Czas,AbsSum,Sum
100.445,0.1466353806816647,-0.1466353806816647
100.446,0.054825586347008515,-0.054825586347008515
100.447,0.008648186516967415,0.008648186516967415
100.448,0.02179085686022897,0.02179085686022897
100.449,0.02126705297645015,-0.02126705297645015
100.45,0.10760556293845391,-0.10760556293845391
100.451,0.20846141417324926,-0.20846141417324926
100.452,0.28716201516725826,-0.28716201516725826
100.453,0.309898708373173,-0.309898708373173
100.454,0.2562497786137853,-0.2562497786137853
100.455,0.12631494197320303,-0.12631494197320303
100.456,0.05778714988307043,0.05778714988307043
100.457,0.2567172257542396,0.2567172257542396
100.458,0.42383768255398446,0.42383768255398446
100.459,0.5175591621374516,0.5175591621374516
100.46,0.512650690016565,0.512650690016565
100.461,0.40729829071374546,0.40729829071374546
100.462,0.22388789113424346,0.22388789113424346
100.463,0.003276758093784693,0.003276758093784693
100.464,0.20582623124551402,-0.20582623124551402
100.465,0.3593781733754551,-0.3593781733754551
100.466,0.42893709477776276,-0.42893709477776276
100.467,0.40806468656250283,-0.40806468656250283
100.468,0.3126195507611169,-0.3126195507611169
100.469,0.1751500998799621,-0.1751500998799621
100.47,0.03525416678871418,-0.03525416678871418
100.471,0.07118655298271848,0.07118655298271848
100.472,0.12084973426193035,0.12084973426193035
100.473,0.10760735113969355,0.10760735113969355
100.474,0.04205209171020208,0.04205209171020208
100.475,0.05343072300173124,-0.05343072300173124
100.476,0.15215364147576982,-0.15215364147576982
100.477,0.23072528581798613,-0.23072528581798613
100.478,0.27453994408352955,-0.27453994408352955
100.479,0.27984518804441294,-0.27984518804441294
100.48,0.2523007248422513,-0.2523007248422513
100.481,0.2030685811552676,-0.2030685811552676
100.482,0.1441399984070193,-0.1441399984070193
100.483,0.08462445387917339,-0.08462445387917339
100.484,0.02914768473330731,-0.02914768473330731
100.485,0.021422582242818455,0.021422582242818455
100.486,0.06762681503285828,0.06762681503285828
100.487,0.10872627252902012,0.10872627252902012
100.488,0.14101229240875734,0.14101229240875734
100.489,0.15796553099402866,0.15796553099402866
100.49,0.15230804104185958,0.15230804104185958
100.491,0.11916724501081921,0.11916724501081921
100.492,0.05904961327460656,0.05904961327460656
100.493,0.02069506178777558,-0.02069506178777558
100.494,0.10673537759612439,-0.10673537759612439
100.495,0.18291746159857092,-0.18291746159857092
100.496,0.23481098233761066,-0.23481098233761066
100.497,0.25413838963347546,-0.25413838963347546
100.498,0.24150891143885755,-0.24150891143885755
100.499,0.20637184017354648,-0.20637184017354648
100.5,0.16401326199923993,-0.16401326199923993
100.501,0.13044339297091756,-0.13044339297091756
100.502,0.11680506176098004,-0.11680506176098004
100.503,0.12519567706924883,-0.12519567706924883
100.504,0.1474227936292375,-0.1474227936292375
100.505,0.16730655316336396,-0.16730655316336396
100.506,0.16598363618292034,-0.16598363618292034
100.507,0.12863282543963195,-0.12863282543963195
100.508,0.050478285252430255,-0.050478285252430255
100.509,0.05996439742208004,0.05996439742208004
100.51,0.18166302373052723,0.18166302373052723
100.511,0.28591838237288836,0.28591838237288836
100.512,0.34406398130728255,0.34406398130728255
100.513,0.33584334257739745,0.33584334257739745
100.514,0.25597932079102814,0.25597932079102814
100.515,0.11688465897561673,0.11688465897561673
100.516,0.05346992010657059,-0.05346992010657059
100.517,0.21812405257460443,-0.21812405257460443
100.518,0.3404245498668802,-0.3404245498668802
100.519,0.39351602856867307,-0.39351602856867307
100.52,0.36738728066528414,-0.36738728066528414
100.521,0.2714905083418556,-0.2714905083418556
100.522,0.13217744641540374,-0.13217744641540374
100.523,0.014357708509098233,0.014357708509098233
100.524,0.13168794772426784,0.13168794772426784
100.525,0.1926746389204086,0.1926746389204086
100.526,0.18630356670721437,0.18630356670721437
100.527,0.12000887562673435,0.12000887562673435
100.528,0.016928680759036308,0.016928680759036308
100.529,0.0910546088795594,-0.0910546088795594
100.53,0.17248417845191455,-0.17248417845191455
100.531,0.2051265491718448,-0.2051265491718448
100.532,0.1819641261206838,-0.1819641261206838
100.533,0.11277234488054255,-0.11277234488054255
100.534,0.020928118882404312,-0.020928118882404312
100.535,0.06356885926934508,0.06356885926934508
100.536,0.11283980020648299,0.11283980020648299
100.537,0.10915197784997765,0.10915197784997765
100.538,0.0499801044839423,0.0499801044839423
100.539,0.05127899509057021,-0.05127899509057021
100.54,0.16908301051424457,-0.16908301051424457
100.541,0.2728927105947053,-0.2728927105947053
100.542,0.3356378916182534,-0.3356378916182534
100.543,0.3410995845492174,-0.3410995845492174
100.544,0.2881425908296833,-0.2881425908296833
100.545,0.1906501407888772,-0.1906501407888772
100.546,0.07324914988535247,-0.07324914988535247
100.547,0.03588345875961263,0.03588345875961263
100.548,0.1130192321232284,0.1130192321232284
100.549,0.14535766645605497,0.14535766645605497
100.55,0.13412687221732034,0.13412687221732034
100.551,0.09344856994935746,0.09344856994935746
100.552,0.045360999882454456,0.045360999882454456
100.553,0.012526294634063628,0.012526294634063628
100.554,0.010831804861416439,0.010831804861416439
100.555,0.044125370352005255,0.044125370352005255
100.556,0.10269109422427936,0.10269109422427936
100.557,0.16595937767637503,0.16595937767637503
100.558,0.20868049938589595,0.20868049938589595
100.559,0.20874947039174274,0.20874947039174274
100.56,0.15436144896619486,0.15436144896619486
100.561,0.04835435053966841,0.04835435053966841
100.562,0.09159286760247842,-0.09159286760247842
100.563,0.23703199585467616,-0.23703199585467616
100.564,0.3559712832823483,-0.3559712832823483
100.565,0.4212281533434694,-0.4212281533434694
100.566,0.41756847441542577,-0.41756847441542577
100.567,0.34566098598710016,-0.34566098598710016
100.568,0.2218077369432392,-0.2218077369432392
100.569,0.07362154430820478,-0.07362154430820478
100.57,0.06705252309359122,0.06705252309359122
100.571,0.17196019519960326,0.17196019519960326
100.572,0.22288540857911343,0.22288540857911343
100.573,0.21510451845904766,0.21510451845904766
100.574,0.15716558411398518,0.15716558411398518
100.575,0.06737974644964506,0.06737974644964506
100.576,0.031711234561499047,-0.031711234561499047
100.577,0.11918918188322314,-0.11918918188322314
100.578,0.18033134893088876,-0.18033134893088876
100.579,0.20885473331219295,-0.20885473331219295
100.58,0.20659454471009675,-0.20659454471009675
100.581,0.18115956544693956,-0.18115956544693956
100.582,0.14262032124158286,-0.14262032124158286
100.583,0.10039764923818728,-0.10039764923818728
100.584,0.06124020871340474,-0.06124020871340474
100.585,0.02865014945929456,-0.02865014945929456
100.586,0.003548522381041974,-0.003548522381041974
100.587,0.014429502333108468,0.014429502333108468
100.588,0.02572973101504883,0.02572973101504883
100.589,0.030296496406108764,0.030296496406108764
100.59,0.02776446544137423,0.02776446544137423
100.591,0.01817557670331471,0.01817557670331471
100.592,0.0027190881293435165,0.0027190881293435165
100.593,0.01601183180583421,-0.01601183180583421
100.594,0.034514930923660536,-0.034514930923660536
100.595,0.04951773385548852,-0.04951773385548852
100.596,0.05930508407701074,-0.05930508407701074
100.597,0.0646153206634471,-0.0646153206634471
100.598,0.06858812639831957,-0.06858812639831957
100.599,0.07559485886567474,-0.07559485886567474
100.6,0.08924897703011414,-0.08924897703011414
100.601,0.11029691248997053,-0.11029691248997053
100.602,0.13525702592542288,-0.13525702592542288
100.603,0.15651408503156083,-0.15651408503156083
100.604,0.16411683393735998,-0.16411683393735998
100.605,0.14891168734153792,-0.14891168734153792
100.606,0.1060918186296348,-0.1060918186296348
100.607,0.03795855861542807,-0.03795855861542807
100.608,0.04519054077539342,0.04519054077539342
100.609,0.12662091510485762,0.12662091510485762
100.61,0.186981032064661,0.186981032064661
100.611,0.20943021371416637,0.20943021371416637
100.612,0.1846082231174413,0.1846082231174413
100.613,0.11390992180010007,0.11390992180010007
100.614,0.009949491267381427,0.009949491267381427
100.615,0.10610020994527314,-0.10610020994527314
100.616,0.2096685690126695,-0.2096685690126695
100.617,0.2790425297231336,-0.2790425297231336
100.618,0.3009400092230844,-0.3009400092230844
100.619,0.27379250846247083,-0.27379250846247083
100.62,0.20779012765891436,-0.20779012765891436
100.621,0.12169807241101305,-0.12169807241101305
100.622,0.037407993361248226,-0.037407993361248226
100.623,0.02615505314400357,0.02615505314400357
100.624,0.057989298641814235,0.057989298641814235
100.625,0.05743642802750282,0.05743642802750282
100.626,0.03345955616406315,0.03345955616406315
100.627,0.0011287570279019388,0.0011287570279019388
100.628,0.023516882562995223,-0.023516882562995223
100.629,0.028624868292391303,-0.028624868292391303
100.63,0.0101617071118566,-0.0101617071118566
100.631,0.02699247313133779,0.02699247313133779
100.632,0.07069555039029662,0.07069555039029662
100.633,0.1053230234969833,0.1053230234969833
100.634,0.11646221480549057,0.11646221480549057
100.635,0.09511054462843815,0.09511054462843815
100.636,0.040201932184286804,0.040201932184286804
100.637,0.04114964240403585,-0.04114964240403585
100.638,0.13560027713856282,-0.13560027713856282
100.639,0.22701684384065024,-0.22701684384065024
100.64,0.30035298145928147,-0.30035298145928147
100.641,0.3448940443974958,-0.3448940443974958
100.642,0.3561011670857288,-0.3561011670857288
100.643,0.3357644131788564,-0.3357644131788564
100.644,0.2906720084839812,-0.2906720084839812
100.645,0.2303666843334763,-0.2303666843334763
100.646,0.1647030173304307,-0.1647030173304307
100.647,0.10183559571898115,-0.10183559571898115
100.648,0.047023818428106545,-0.047023818428106545
100.649,0.0023415792631944488,-0.0023415792631944488
100.65,0.03286749842831993,0.03286749842831993
100.651,0.061081188365603056,0.061081188365603056
100.652,0.08553552273547393,0.08553552273547393
100.653,0.10922747680944256,0.10922747680944256
100.654,0.13410001778366554,0.13410001778366554
100.655,0.16045407117698507,0.16045407117698507
100.656,0.18661654808874628,0.18661654808874628
100.657,0.20892093517232468,0.20892093517232468
100.658,0.2220849088516681,0.2220849088516681
100.659,0.22005106248043949,0.22005106248043949
100.66,0.1972664500712642,0.1972664500712642
100.661,0.15022668770019965,0.15022668770019965
100.662,0.07895129237743759,0.07895129237743759
100.663,0.012040504877589564,-0.012040504877589564
100.664,0.11365807918101967,-0.11365807918101967
100.665,0.21330217516836414,-0.21330217516836414
100.666,0.29699941220204695,-0.29699941220204695
100.667,0.35221418520109926,-0.35221418520109926
100.668,0.3706805778361443,-0.3706805778361443
100.669,0.3505006393025467,-0.3505006393025467
100.67,0.2968786569206212,-0.2968786569206212
100.671,0.22118825992879465,-0.22118825992879465
100.672,0.1385157506207717,-0.1385157506207717
100.673,0.06425888434685534,-0.06425888434685534
100.674,0.010650170303985407,-0.010650170303985407
100.675,0.0158785882194028,0.0158785882194028
100.676,0.015792556067870445,0.015792556067870445
100.677,0.004260071459795678,-0.004260071459795678
100.678,0.033732424676363504,-0.033732424676363504
100.679,0.061351832030987485,-0.061351832030987485
100.68,0.07825886651783243,-0.07825886651783243
100.681,0.08022325845252731,-0.08022325845252731
100.682,0.06834205646010516,-0.06834205646010516
100.683,0.04809037584663878,-0.04809037584663878
100.684,0.027088299883936018,-0.027088299883936018
100.685,0.012320691661535488,-0.012320691661535488
100.686,0.007690632068298897,-0.007690632068298897
100.687,0.01266410082844971,-0.01266410082844971
100.688,0.022416422317948825,-0.022416422317948825
100.689,0.029428446651564077,-0.029428446651564077
100.69,0.026041859299938075,-0.026041859299938075
100.691,0.0071963330230948586,-0.0071963330230948586
100.692,0.0274841533299095,0.0274841533299095
100.693,0.0729026361205174,0.0729026361205174
100.694,0.11927684004123096,0.11927684004123096
100.695,0.1543394278609378,0.1543394278609378
100.696,0.16639411610835442,0.16639411610835442
100.697,0.14743269457699681,0.14743269457699681
100.698,0.09549354413571542,0.09549354413571542
100.699,0.015631983561205764,0.015631983561205764
100.7,0.0807780020898754,-0.0807780020898754
100.701,0.1782747378803622,-0.1782747378803622
100.702,0.26055792772509934,-0.26055792772509934
100.703,0.3139915014899438,-0.3139915014899438
100.704,0.33053258107220296,-0.33053258107220296
100.705,0.3093940947895233,-0.3093940947895233
100.706,0.2570486304548312,-0.2570486304548312
100.707,0.18557541717888038,-0.18557541717888038
100.708,0.10974915468709234,-0.10974915468709234
100.709,0.043575687262387475,-0.043575687262387475
100.71,0.0028791368451845933,0.0028791368451845933
100.711,0.02558339320379277,0.02558339320379277
100.712,0.027030232457588843,0.027030232457588843
100.713,0.015000171927324057,0.015000171927324057
100.714,8.446840553144597e-05,-8.446840553144597e-05
100.715,0.008509354489399268,-0.008509354489399268
100.716,0.004404338935598662,-0.004404338935598662
100.717,0.012229616468195204,0.012229616468195204
100.718,0.03523022956732191,0.03523022956732191
100.719,0.05389021116885018,0.05389021116885018
100.72,0.056117061426509185,0.056117061426509185
100.721,0.032309816498963695,0.032309816498963695
100.722,0.021131651611421054,-0.021131651611421054
100.723,0.09971390370554845,-0.09971390370554845
100.724,0.19088553288353727,-0.19088553288353727
100.725,0.27635190771010343,-0.27635190771010343
100.726,0.33618435502546873,-0.33618435502546873
100.727,0.3537087936492177,-0.3537087936492177
100.728,0.3198923101852381,-0.3198923101852381
100.729,0.23603177007530762,-0.23603177007530762
100.73,0.11397431624946319,-0.11397431624946319
100.731,0.02624747207861322,0.02624747207861322
100.732,0.1607863760982986,0.1607863760982986
100.733,0.26723791933536956,0.26723791933536956
100.734,0.3294381865788458,0.3294381865788458
100.735,0.3406067484067552,0.3406067484067552
100.736,0.30411948309096304,0.30411948309096304
100.737,0.23185925791852857,0.23185925791852857
100.738,0.14074015239353987,0.14074015239353987
100.739,0.04844472308636538,0.04844472308636538
100.74,0.030466056457235324,-0.030466056457235324
100.741,0.08712944770338371,-0.08712944770338371
100.742,0.11917111975671968,-0.11917111975671968
100.743,0.12978973459305954,-0.12978973459305954
100.744,0.12567879960526196,-0.12567879960526196
100.745,0.11456417088370763,-0.11456417088370763
100.746,0.10309659285028017,-0.10309659285028017
100.747,0.09557420463928279,-0.09557420463928279
100.748,0.09360235022683305,-0.09360235022683305
100.749,0.09647363282210675,-0.09647363282210675
100.75,0.10188430234034918,-0.10188430234034918
100.751,0.10663431784138921,-0.10663431784138921
100.752,0.10714261109512169,-0.10714261109512169
100.753,0.0998376096038649,-0.0998376096038649
100.754,0.08163186726459415,-0.08163186726459415
100.755,0.050673797203057425,-0.050673797203057425
100.756,0.007382819947173491,-0.007382819947173491
100.757,0.04450313208161516,0.04450313208161516
100.758,0.0973695499864049,0.0973695499864049
100.759,0.14020436967661754,0.14020436967661754
100.76,0.1604458091157912,0.1604458091157912
100.761,0.1470808456715207,0.1470808456715207
100.762,0.09432942263672173,0.09432942263672173
100.763,0.004812663611987844,0.004812663611987844
100.764,0.10902051917286026,-0.10902051917286026
100.765,0.22612759716318764,-0.22612759716318764
100.766,0.32097738179021407,-0.32097738179021407
100.767,0.36980813709070326,-0.36980813709070326
100.768,0.35747006014634797,-0.35747006014634797
100.769,0.2828212460200429,-0.2828212460200429
100.77,0.16079266455625063,-0.16079266455625063
100.771,0.020028751077452056,-0.020028751077452056
100.772,0.10373592989006752,0.10373592989006752
100.773,0.17704822160974354,0.17704822160974354
100.774,0.178319335774358,0.178319335774358
100.775,0.10476438713838965,0.10476438713838965
100.776,0.025600569592924782,-0.025600569592924782
100.777,0.17787528856038226,-0.17787528856038226
100.778,0.30934044413937634,-0.30934044413937634
100.779,0.3812840405078689,-0.3812840405078689
100.78,0.3702190325770476,-0.3702190325770476
100.781,0.2751287960830656,-0.2751287960830656
100.782,0.11842684816311688,-0.11842684816311688
100.783,0.059868650550122915,0.059868650550122915
100.784,0.21320369442059106,0.21320369442059106
100.785,0.30162334608858,0.30162334608858
100.786,0.30309494782133406,0.30309494782133406
100.787,0.21962436882299685,0.21962436882299685
100.788,0.07631424811398624,0.07631424811398624
100.789,0.08634466171777788,-0.08634466171777788
100.79,0.22458326169772258,-0.22458326169772258
100.791,0.3041486063153459,-0.3041486063153459
100.792,0.3098753849769438,-0.3098753849769438
100.793,0.24916314458187472,-0.24916314458187472
100.794,0.1484268457106831,-0.1484268457106831
100.795,0.04381067738099731,-0.04381067738099731
100.796,0.03075254928924731,0.03075254928924731
100.797,0.05426753982935417,0.05426753982935417
100.798,0.024787663442219277,0.024787663442219277
100.799,0.04092682483680399,-0.04092682483680399
100.8,0.11390325490367559,-0.11390325490367559
100.801,0.16329563157921323,-0.16329563157921323
100.802,0.1670423624085805,-0.1670423624085805
100.803,0.11928320996190955,-0.11928320996190955
100.804,0.0321257996664841,-0.0321257996664841
100.805,0.0687107749876823,0.0687107749876823
100.806,0.15277955299517676,0.15277955299517676
100.807,0.19521788011067787,0.19521788011067787
100.808,0.18495323137056685,0.18495323137056685
100.809,0.12803629942182315,0.12803629942182315
100.81,0.0450377876710939,0.0450377876710939
100.811,0.0365039010600392,-0.0365039010600392
100.812,0.09190034224922106,-0.09190034224922106
100.813,0.1079488217643979,-0.1079488217643979
100.814,0.08736664674323835,-0.08736664674323835
100.815,0.04747421121392281,-0.04747421121392281
100.816,0.013582323116275496,-0.013582323116275496
100.817,0.009390787468588457,-0.009390787468588457
100.818,0.047765732827652174,-0.047765732827652174
100.819,0.12516576030747328,-0.12516576030747328
100.82,0.22176063658403655,-0.22176063658403655
100.821,0.3073461972607301,-0.3073461972607301
100.822,0.35116551215007963,-0.35116551215007963
100.823,0.3323792620733842,-0.3323792620733842
100.824,0.24765602848170354,-0.24765602848170354
100.825,0.11327302854680521,-0.11327302854680521
100.826,0.039077063193195816,0.039077063193195816
100.827,0.1714935409975029,0.1714935409975029
100.828,0.2511467548184083,0.2511467548184083
100.829,0.260001174559251,0.260001174559251
100.83,0.1998735194033463,0.1998735194033463
100.831,0.0912605569367313,0.0912605569367313
100.832,0.03358189272064571,-0.03358189272064571
100.833,0.14096236877281543,-0.14096236877281543
100.834,0.20606824936208046,-0.20606824936208046
100.835,0.219938184711441,-0.219938184711441
100.836,0.19093770569129775,-0.19093770569129775
100.837,0.14045167178327922,-0.14045167178327922
100.838,0.09443163363714424,-0.09443163363714424
100.839,0.07377435216509132,-0.07377435216509132
100.84,0.08682471496123967,-0.08682471496123967
100.841,0.1265065423815649,-0.1265065423815649
100.842,0.1729741794378047,-0.1729741794378047
100.843,0.20080068607402723,-0.20080068607402723
100.844,0.18820666764406313,-0.18820666764406313
100.845,0.1251836591862956,-0.1251836591862956
100.846,0.017775626303919156,-0.017775626303919156
100.847,0.11290752284223049,0.11290752284223049
100.848,0.2366139164558816,0.2366139164558816
100.849,0.32286860007473783,0.32286860007473783
100.85,0.35000427485926333,0.35000427485926333
100.851,0.31144252276326134,0.31144252276326134
100.852,0.21731294343989438,0.21731294343989438
100.853,0.0910352189764585,0.0910352189764585
100.854,0.037904063614234595,-0.037904063614234595
100.855,0.14259511236660738,-0.14259511236660738
100.856,0.20604015765314732,-0.20604015765314732
100.857,0.224992374795826,-0.224992374795826
100.858,0.2093231380966143,-0.2093231380966143
100.859,0.17740423011578,-0.17740423011578
100.86,0.14922131840445074,-0.14922131840445074
100.861,0.13955049686352372,-0.13955049686352372
100.862,0.15336779202075024,-0.15336779202075024
100.863,0.18481852073889993,-0.18481852073889993
100.864,0.21985863289995689,-0.21985863289995689
100.865,0.24150324065380957,-0.24150324065380957
100.866,0.23584988957308628,-0.23584988957308628
100.867,0.19690246529023525,-0.19690246529023525
100.868,0.12870942014654874,-0.12870942014654874
100.869,0.04425198260736074,-0.04425198260736074
100.87,0.03844275086340643,0.03844275086340643
100.871,0.10166149326745133,0.10166149326745133
100.872,0.13315650988501093,0.13315650988501093
100.873,0.1295596583608567,0.1295596583608567
100.874,0.09712248893817987,0.09712248893817987
100.875,0.04967172035439349,0.04967172035439349
100.876,0.004468799475511487,0.004468799475511487
100.877,0.02278872985935043,-0.02278872985935043
100.878,0.02241707009735061,-0.02241707009735061
100.879,0.006539098835482315,0.006539098835482315
100.88,0.05599814949128046,0.05599814949128046
100.881,0.11096050249940403,0.11096050249940403
100.882,0.15346441164540647,0.15346441164540647
100.883,0.1673554399731414,0.1673554399731414
100.884,0.14267651813872262,0.14267651813872262
100.885,0.07859528384707093,0.07859528384707093
100.886,0.01586490060854706,-0.01586490060854706
100.887,0.12351561554276491,-0.12351561554276491
100.888,0.22277991062361624,-0.22277991062361624
100.889,0.2927187997083365,-0.2927187997083365
100.89,0.3181400832814971,-0.3181400832814971
100.891,0.29354159134824787,-0.29354159134824787
100.892,0.22485206088704457,-0.22485206088704457
100.893,0.12841448425038382,-0.12841448425038382
100.894,0.027318759772711587,-0.027318759772711587
100.895,0.05411793340258164,0.05411793340258164
100.896,0.09638512500250651,0.09638512500250651
100.897,0.0897673576414939,0.0897673576414939
100.898,0.036917772344003064,0.036917772344003064
100.899,0.04776246772172077,-0.04776246772172077
100.9,0.14186681793376799,-0.14186681793376799
100.901,0.22089379387869856,-0.22089379387869856
100.902,0.26472107732201133,-0.26472107732201133
100.903,0.26283420871161745,-0.26283420871161745
100.904,0.21682890561987433,-0.21682890561987433
100.905,0.13949127197603262,-0.13949127197603262
100.906,0.05077515869750404,-0.05077515869750404
100.907,0.028072577692398903,0.028072577692398903
100.908,0.08043971770779823,0.08043971770779823
100.909,0.09854886736227542,0.09854886736227542
100.91,0.08473737105163548,0.08473737105163548
100.911,0.049591153010488,0.049591153010488
100.912,0.0077318129491481535,0.0077318129491481535
100.913,0.02720686978079434,-0.02720686978079434
100.914,0.04667957285115443,-0.04667957285115443
100.915,0.04908144332032949,-0.04908144332032949
100.916,0.038890719290597286,-0.038890719290597286
100.917,0.02365105963268499,-0.02365105963268499
100.918,0.010129504292041513,-0.010129504292041513
100.919,0.001259095792537468,-0.001259095792537468
100.92,0.0048704841732667425,0.0048704841732667425
100.921,0.013551445028498588,0.013551445028498588
100.922,0.03012513438067721,0.03012513438067721
100.923,0.05619104353080551,0.05619104353080551
100.924,0.08705108235098913,0.08705108235098913
100.925,0.11169716042148092,0.11169716042148092
100.926,0.11571487044837281,0.11571487044837281
100.927,0.08632314762086035,0.08632314762086035
100.928,0.017831556393947512,0.017831556393947512
100.929,0.08455233829119968,-0.08455233829119968
100.93,0.2042207752954709,-0.2042207752954709
100.931,0.31655471406682945,-0.31655471406682945
100.932,0.3954199467052174,-0.3954199467052174
100.933,0.4208047924820665,-0.4208047924820665
100.934,0.38508638484462554,-0.38508638484462554
100.935,0.295735917409477,-0.295735917409477
100.936,0.17339648678434283,-0.17339648678434283
100.937,0.04582365919961873,-0.04582365919961873
100.938,0.060373181807671816,0.060373181807671816
100.939,0.12743762528603741,0.12743762528603741
100.94,0.1510097320661028,0.1510097320661028
100.941,0.13997139118865598,0.13997139118865598
100.942,0.11171485527830982,0.11171485527830982
100.943,0.08460930812004874,0.08460930812004874
100.944,0.07048781694730244,0.07048781694730244
100.945,0.07001380490737352,0.07001380490737352
100.946,0.07276245703958661,0.07276245703958661
100.947,0.06210618424722525,0.06210618424722525
100.948,0.02314250935940465,0.02314250935940465
100.949,0.04936874075540332,-0.04936874075540332
100.95,0.14628251679068194,-0.14628251679068194
100.951,0.24476527196153386,-0.24476527196153386
100.952,0.3147005365443747,-0.3147005365443747
100.953,0.32893532000670256,-0.32893532000670256
100.954,0.2738820766990342,-0.2738820766990342
100.955,0.15654175874047516,-0.15654175874047516
100.956,0.004972470652135019,-0.004972470652135019
100.957,0.1386586718195224,0.1386586718195224
100.958,0.23071849779968923,0.23071849779968923
100.959,0.24055800262235882,0.24055800262235882
100.96,0.16192789796455576,0.16192789796455576
100.961,0.017184893988535288,0.017184893988535288
100.962,0.14773035615317254,-0.14773035615317254
100.963,0.27657547061848553,-0.27657547061848553
100.964,0.3205370627089501,-0.3205370627089501
100.965,0.2548710531136609,-0.2548710531136609
100.966,0.0889391934728111,-0.0889391934728111
100.967,0.13402139813311797,0.13402139813311797
100.968,0.3479207860640894,0.3479207860640894
100.969,0.4827138241148765,0.4827138241148765
100.97,0.4856244279604409,0.4856244279604409
100.971,0.33820577794016504,0.33820577794016504
100.972,0.0638387887595071,0.0638387887595071
100.973,0.27690883161515434,-0.27690883161515434
100.974,0.6019645718142117,-0.6019645718142117
100.975,0.8299979695549351,-0.8299979695549351
100.976,0.902740778417805,-0.902740778417805
100.977,0.8008660847286411,-0.8008660847286411
100.978,0.5488766102420933,-0.5488766102420933
100.979,0.20777159452211436,-0.20777159452211436
100.98,0.14211378048916345,0.14211378048916345
100.981,0.4228949507602935,0.4228949507602935
100.982,0.5791948891995,0.5791948891995
100.983,0.5909073711820767,0.5909073711820767
100.984,0.475514307007487,0.475514307007487
100.985,0.28002103669825407,0.28002103669825407
100.986,0.06556953241638075,0.06556953241638075
100.987,0.11033213926633567,-0.11033213926633567
100.988,0.20875748309418685,-0.20875748309418685
100.989,0.2175778192512775,-0.2175778192512775
100.99,0.1513736561532414,-0.1513736561532414
100.991,0.04403082244786316,-0.04403082244786316
100.992,0.06300429184307799,0.06300429184307799
100.993,0.13297350956202592,0.13297350956202592
100.994,0.14311232724307366,0.14311232724307366
100.995,0.08892216235423467,0.08892216235423467
100.996,0.0169143873308788,-0.0169143873308788
100.997,0.14973981491740407,-0.14973981491740407
100.998,0.28011875726325386,-0.28011875726325386
100.999,0.3808263803709204,-0.3808263803709204
101.0,0.43203916556914823,-0.43203916556914823
101.001,0.4240701423861434,-0.4240701423861434
101.002,0.35783709080851867,-0.35783709080851867
101.003,0.24372576531306578,-0.24372576531306578
101.004,0.09953626367506996,-0.09953626367506996
101.005,0.05208209389008256,0.05208209389008256
101.006,0.18663261064940473,0.18663261064940473
101.007,0.28126678798368476,0.28126678798368476
101.008,0.31865280802785234,0.31865280802785234
101.009,0.2906878866202012,0.2906878866202012
101.01,0.20111970071898355,0.20111970071898355
101.011,0.06601461957459231,0.06601461957459231
101.012,0.08865692924002033,-0.08865692924002033
101.013,0.2322701583375274,-0.2322701583375274
101.014,0.33659398794441864,-0.33659398794441864
101.015,0.3827768102400837,-0.3827768102400837
101.016,0.3661229742855989,-0.3661229742855989
101.017,0.29697273346527764,-0.29697273346527764
101.018,0.19713941700090098,-0.19713941700090098
101.019,0.09283509599158979,-0.09283509599158979
101.02,0.006311323134166824,-0.006311323134166824
101.021,0.05095168493562596,0.05095168493562596
101.022,0.08105091797693098,0.08105091797693098
101.023,0.09731530821487744,0.09731530821487744
101.024,0.11749926603937588,0.11749926603937588
101.025,0.1549257446813448,0.1549257446813448
101.026,0.21094316639660926,0.21094316639660926
101.027,0.27182836237962893,0.27182836237962893
101.028,0.31183909056298886,0.31183909056298886
101.029,0.30192715066851905,0.30192715066851905
101.03,0.22141526707077563,0.22141526707077563
101.031,0.06853024175204281,0.06853024175204281
101.032,0.1343451171381237,-0.1343451171381237
101.033,0.3433621012434491,-0.3433621012434491
101.034,0.5039242111102751,-0.5039242111102751
101.035,0.5666782087088986,-0.5666782087088986
101.036,0.503901508675428,-0.503901508675428
101.037,0.3208063209936288,-0.3208063209936288
101.038,0.05751587144223802,-0.05751587144223802
101.039,0.2197592264481849,0.2197592264481849
101.04,0.4363547744673848,0.4363547744673848
101.041,0.5305893501104983,0.5305893501104983
101.042,0.4724614326875989,0.4724614326875989
101.043,0.2736026900879418,0.2736026900879418
101.044,0.014992590451001098,-0.014992590451001098
101.045,0.31718289432800373,-0.31718289432800373
101.046,0.5537586286385416,-0.5537586286385416
101.047,0.6657027479030788,-0.6657027479030788
101.048,0.6314317977660148,-0.6314317977660148
101.049,0.4725967630938903,-0.4725967630938903
101.05,0.24656877195445737,-0.24656877195445737
101.051,0.027924480130953167,-0.027924480130953167
101.052,0.11526637275811447,0.11526637275811447
101.053,0.14289333002343607,0.14289333002343607
101.054,0.05525729188089912,0.05525729188089912
101.055,0.10735555123511398,-0.10735555123511398
101.056,0.2777723648342876,-0.2777723648342876
101.057,0.3835100791659427,-0.3835100791659427
101.058,0.3700147001629652,-0.3700147001629652
101.059,0.21831718570860703,-0.21831718570860703
101.06,0.048281208115442675,0.048281208115442675
101.061,0.37036853324255414,0.37036853324255414
101.062,0.6692905190056835,0.6692905190056835
101.063,0.869369300580533,0.869369300580533
101.064,0.9186756573916974,0.9186756573916974
101.065,0.8022921849313989,0.8022921849313989
101.066,0.54458743890261,0.54458743890261
101.067,0.20054593653658204,0.20054593653658204
101.068,0.1605027101067038,-0.1605027101067038
101.069,0.47337738693740905,-0.47337738693740905
101.07,0.6921829875218153,-0.6921829875218153
101.071,0.7980856054974994,-0.7980856054974994
101.072,0.7984256962147495,-0.7984256962147495
101.073,0.7187372649709883,-0.7187372649709883
101.074,0.5913095004538074,-0.5913095004538074
101.075,0.44457152154986423,-0.44457152154986423
101.076,0.29670486699945375,-0.29670486699945375
101.077,0.15492537060256895,-0.15492537060256895
101.078,0.019606851499398004,-0.019606851499398004
101.079,0.10932186323839233,0.10932186323839233
101.08,0.22689674148148353,0.22689674148148353
101.081,0.32109703988264005,0.32109703988264005
101.082,0.3752264212477452,0.3752264212477452
101.083,0.37374561314110677,0.37374561314110677
101.084,0.30914610313146773,0.30914610313146773
101.085,0.1869725226071859,0.1869725226071859
101.086,0.026756824081390684,0.026756824081390684
101.087,0.14184858032141234,-0.14184858032141234
101.088,0.28664477574949154,-0.28664477574949154
101.089,0.3816635849920307,-0.3816635849920307
101.09,0.4141530157650116,-0.4141530157650116
101.091,0.3873790498454791,-0.3873790498454791
101.092,0.3183219309411003,-0.3183219309411003
101.093,0.23114095555696978,-0.23114095555696978
101.094,0.14875120792046337,-0.14875120792046337
101.095,0.0854735549566491,-0.0854735549566491
101.096,0.04327516025529066,-0.04327516025529066
101.097,0.012786588379596342,-0.012786588379596342
101.098,0.021446584866071206,0.021446584866071206
101.099,0.07352124159268025,0.07352124159268025
101.1,0.14933077536314943,0.14933077536314943
101.101,0.24283951197430031,0.24283951197430031
101.102,0.33684417071279293,0.33684417071279293
101.103,0.4079682551687711,0.4079682551687711
101.104,0.4341354059394351,0.4341354059394351
101.105,0.40191625295889644,0.40191625295889644
101.106,0.3112241662166251,0.3112241662166251
101.107,0.17579467954539596,0.17579467954539596
101.108,0.0193584788473129,0.0193584788473129
101.109,0.13112453963725268,-0.13112453963725268
101.11,0.25287100113214,-0.25287100113214
101.111,0.332918303501164,-0.332918303501164
101.112,0.3703313265056941,-0.3703313265056941
101.113,0.3745528481548368,-0.3745528481548368
101.114,0.36079784036328555,-0.36079784036328555
101.115,0.3443035539426629,-0.3443035539426629
101.116,0.33545446789126376,-0.33545446789126376
101.117,0.33727846614965895,-0.33727846614965895
101.118,0.34580161215877425,-0.34580161215877425
101.119,0.3526634348108826,-0.3526634348108826
101.12,0.3486476438571363,-0.3486476438571363
101.121,0.326636967631049,-0.326636967631049
101.122,0.28296998528851025,-0.28296998528851025
101.123,0.21703168860091582,-0.21703168860091582
101.124,0.12976920464338204,-0.12976920464338204
101.125,0.02231645520675174,-0.02231645520675174
101.126,0.10418020314175691,0.10418020314175691
101.127,0.2470899170566534,0.2470899170566534
101.128,0.39966675302826027,0.39966675302826027
101.129,0.5485636406365084,0.5485636406365084
101.13,0.6731087154397564,0.6731087154397564
101.131,0.7475740003669413,0.7475740003669413
101.132,0.7466465291348505,0.7466465291348505
101.133,0.6529964458150141,0.6529964458150141
101.134,0.4647158969345624,0.4647158969345624
101.135,0.1999449347744784,0.1999449347744784
101.136,0.10352763517199715,-0.10352763517199715
101.137,0.3945518259037646,-0.3945518259037646
101.138,0.6198082044136322,-0.6198082044136322
101.139,0.7371666054679302,-0.7371666054679302
101.14,0.7274313141471258,-0.7274313141471258
101.141,0.6007811023343305,-0.6007811023343305
101.142,0.39550480058180226,-0.39550480058180226
101.143,0.16880157554141806,-0.16880157554141806
101.144,0.018179635324488075,0.018179635324488075
101.145,0.11700108779319862,0.11700108779319862
101.146,0.10550008077121831,0.10550008077121831
101.147,0.005838038114115873,-0.005838038114115873
101.148,0.1768010097962257,-0.1768010097962257
101.149,0.34905850739227506,-0.34905850739227506
101.15,0.4632364070265118,-0.4632364070265118
101.151,0.4765208288238323,-0.4765208288238323
101.152,0.37559460175182846,-0.37559460175182846
101.153,0.18101106924425636,-0.18101106924425636
101.154,0.0583912978215686,0.0583912978215686
101.155,0.27947600286491614,0.27947600286491614
101.156,0.42312012648808794,0.42312012648808794
101.157,0.45145410530714525,0.45145410530714525
101.158,0.35892206222842016,0.35892206222842016
101.159,0.17387349112309747,0.17387349112309747
101.16,0.049795694448799166,-0.049795694448799166
101.161,0.2484788496470185,-0.2484788496470185
101.162,0.36747744898168766,-0.36747744898168766
101.163,0.37688879282443166,-0.37688879282443166
101.164,0.2800685976841857,-0.2800685976841857
101.165,0.11218690463853687,-0.11218690463853687
101.166,0.07066245613335376,0.07066245613335376
101.167,0.20854324756329112,0.20854324756329112
101.168,0.25587139774597634,0.25587139774597634
101.169,0.19532937541723983,0.19532937541723983
101.17,0.0433818094860452,0.0433818094860452
101.171,0.15424585111950573,-0.15424585111950573
101.172,0.3358140515557362,-0.3358140515557362
101.173,0.4416776101835683,-0.4416776101835683
101.174,0.4319808262164342,-0.4319808262164342
101.175,0.2987955675348435,-0.2987955675348435
101.176,0.06918208489455135,-0.06918208489455135
101.177,0.20171671267124291,0.20171671267124291
101.178,0.44556946060505576,0.44556946060505576
101.179,0.5994878886811266,0.5994878886811266
101.18,0.623114125034522,0.623114125034522
101.181,0.5093752211677807,0.5093752211677807
101.182,0.28597046612950705,0.28597046612950705
101.183,0.007319986988246319,0.007319986988246319
101.184,0.2606013339361414,-0.2606013339361414
101.185,0.4581647112571763,-0.4581647112571763
101.186,0.5476721548012455,-0.5476721548012455
101.187,0.522352761311595,-0.522352761311595
101.188,0.4064708831869748,-0.4064708831869748
101.189,0.246819222603617,-0.246819222603617
101.19,0.09829089793825052,-0.09829089793825052
101.191,0.007805240677282721,-0.007805240677282721
101.192,0.0011757492238732015,-0.0011757492238732015
101.193,0.07650716647450528,-0.07650716647450528
101.194,0.20572546762222266,-0.20572546762222266
101.195,0.3434851377176018,-0.3434851377176018
101.196,0.44065377901344416,-0.44065377901344416
101.197,0.45841636026021815,-0.45841636026021815
101.198,0.37905933437322037,-0.37905933437322037
101.199,0.2106224235029388,-0.2106224235029388
101.2,0.01554146623021646,0.01554146623021646
101.201,0.2532530071669694,0.2532530071669694
101.202,0.4534190932922977,0.4534190932922977
101.203,0.5760204911636053,0.5760204911636053
101.204,0.5990779126344801,0.5990779126344801
101.205,0.5225789809579608,0.5225789809579608
101.206,0.36686652342166326,0.36686652342166326
101.207,0.1664699102176661,0.1664699102176661
101.208,0.03860637239171316,-0.03860637239171316
101.209,0.21176847147108502,-0.21176847147108502
101.21,0.3268460459194382,-0.3268460459194382
101.211,0.37197796267191086,-0.37197796267191086
101.212,0.35006955068787315,-0.35006955068787315
101.213,0.2763324713388905,-0.2763324713388905
101.214,0.17389831317283855,-0.17389831317283855
101.215,0.0686084197444643,-0.0686084197444643
101.216,0.01607481096667218,0.01607481096667218
101.217,0.06334909238320052,0.06334909238320052
101.218,0.0660748283522119,0.0660748283522119
101.219,0.028140568352286843,0.028140568352286843
101.22,0.036109526051191665,-0.036109526051191665
101.221,0.10456800103584862,-0.10456800103584862
101.222,0.15206819994170195,-0.15206819994170195
101.223,0.15650757206369625,-0.15650757206369625
101.224,0.1052231228897137,-0.1052231228897137
101.225,3.875508664319405e-06,-3.875508664319405e-06
101.226,0.14094569033867477,0.14094569033867477
101.227,0.285297618516136,0.285297618516136
101.228,0.39332863000946205,0.39332863000946205
101.229,0.42791984884541767,0.42791984884541767
101.23,0.36540536632617693,0.36540536632617693
101.231,0.204140672391933,0.204140672391933
101.232,0.03213780421225587,-0.03213780421225587
101.233,0.29789292467755313,-0.29789292467755313
101.234,0.5360913021083582,-0.5360913021083582
101.235,0.6928720147037875,-0.6928720147037875
101.236,0.7325735739155769,-0.7325735739155769
101.237,0.6485795260062479,-0.6485795260062479
101.238,0.46632703774965223,-0.46632703774965223
101.239,0.23697927553521458,-0.23697927553521458
101.24,0.023098811104047545,-0.023098811104047545
101.241,0.119703652308355,0.119703652308355
101.242,0.15962342014266673,0.15962342014266673
101.243,0.09863601087202367,0.09863601087202367
101.244,0.027889641738585103,-0.027889641738585103
101.245,0.1622656833390993,-0.1622656833390993
101.246,0.24313199669121233,-0.24313199669121233
101.247,0.22595196580984245,-0.22595196580984245
101.248,0.09877141706776793,-0.09877141706776793
101.249,0.1120866139893908,0.1120866139893908
101.25,0.3486520178705679,0.3486520178705679
101.251,0.5385825538015996,0.5385825538015996
101.252,0.6178579718906363,0.6178579718906363
101.253,0.5517096241170083,0.5517096241170083
101.254,0.3469405796679115,0.3469405796679115
101.255,0.05139430657436983,0.05139430657436983
101.256,0.25959395054944645,-0.25959395054944645
101.257,0.5056899481918526,-0.5056899481918526
101.258,0.6259260769901926,-0.6259260769901926
101.259,0.5971378261017737,-0.5971378261017737
101.26,0.44049773223071276,-0.44049773223071276
101.261,0.21400119074805624,-0.21400119074805624
101.262,0.006658162552873659,0.006658162552873659
101.263,0.15256720410749214,0.15256720410749214
101.264,0.18340336481119834,0.18340336481119834
101.265,0.09945154134809742,0.09945154134809742
101.266,0.06001406387924424,-0.06001406387924424
101.267,0.23125090660536063,-0.23125090660536063
101.268,0.3484154103698729,-0.3484154103698729
101.269,0.3661152042186181,-0.3661152042186181
101.27,0.27449127140794227,-0.27449127140794227
101.271,0.10179533436267918,-0.10179533436267918
101.272,0.09623412255708508,0.09623412255708508
101.273,0.25633133195134317,0.25633133195134317
101.274,0.32992389614076467,0.32992389614076467
101.275,0.2998019430483314,0.2998019430483314
101.276,0.18541663395964547,0.18541663395964547
101.277,0.03502341412713861,0.03502341412713861
101.278,0.0924486748415303,-0.0924486748415303
101.279,0.1492634487329778,-0.1492634487329778
101.28,0.11659098320044159,-0.11659098320044159
101.281,0.011628772510584917,-0.011628772510584917
101.282,0.11854989690087359,0.11854989690087359
101.283,0.214346854858525,0.214346854858525
101.284,0.22604726662739716,0.22604726662739716
101.285,0.1332181788169795,0.1332181788169795
101.286,0.046035494503908536,-0.046035494503908536
101.287,0.2595872578946097,-0.2595872578946097
101.288,0.43834194846310726,-0.43834194846310726
101.289,0.5200712378272921,-0.5200712378272921
101.29,0.471719300160947,-0.471719300160947
101.291,0.3022117687897833,-0.3022117687897833
101.292,0.0609806632381209,-0.0609806632381209
101.293,0.17764330076328805,0.17764330076328805
101.294,0.33903701248384577,0.33903701248384577
101.295,0.37348881824470026,0.37348881824470026
101.296,0.27322994951289115,0.27322994951289115
101.297,0.07523212914744026,0.07523212914744026
101.298,0.15140653746253518,-0.15140653746253518
101.299,0.3292895350249915,-0.3292895350249915
101.3,0.3995796485533918,-0.3995796485533918
101.301,0.3425268089060418,-0.3425268089060418
101.302,0.1843962815536626,-0.1843962815536626
101.303,0.011803060875992255,0.011803060875992255
101.304,0.1687417570109222,0.1687417570109222
101.305,0.222632922310263,0.222632922310263
101.306,0.14679480405596745,0.14679480405596745
101.307,0.03747821173177457,-0.03747821173177457
101.308,0.26682348874924045,-0.26682348874924045
101.309,0.4567895719469335,-0.4567895719469335
101.31,0.5308942677637162,-0.5308942677637162
101.311,0.4478376572699564,-0.4478376572699564
101.312,0.21741623771418994,-0.21741623771418994
101.313,0.10057012342685945,0.10057012342685945
101.314,0.41436845292765945,0.41436845292765945
101.315,0.6294295939182233,0.6294295939182233
101.316,0.6789775502676254,0.6789775502676254
101.317,0.5457453198401034,0.5457453198401034
101.318,0.2675768042368494,0.2675768042368494
101.319,0.07496286877859759,-0.07496286877859759
101.32,0.3847491422837659,-0.3847491422837659
101.321,0.5791843715475877,-0.5791843715475877
101.322,0.6157663876250111,-0.6157663876250111
101.323,0.5036736499671413,-0.5036736499671413
101.324,0.29775652317860224,-0.29775652317860224
101.325,0.07737544888289083,-0.07737544888289083
101.326,0.08231417045535716,0.08231417045535716
101.327,0.136535193061055,0.136535193061055
101.328,0.0854371605173232,0.0854371605173232
101.329,0.027914246762220096,-0.027914246762220096
101.33,0.13520817135527352,-0.13520817135527352
101.331,0.1698314180718764,-0.1698314180718764
101.332,0.09344553296543001,-0.09344553296543001
101.333,0.08733235592184152,0.08733235592184152
101.334,0.3202593157278977,0.3202593157278977
101.335,0.5233826772251902,0.5233826772251902
101.336,0.6123663413501872,0.6123663413501872
101.337,0.5300584175390279,0.5300584175390279
101.338,0.26825544090641507,0.26825544090641507
101.339,0.12585452113267892,-0.12585452113267892
101.34,0.5610299545194632,-0.5610299545194632
101.341,0.9276869018925418,-0.9276869018925418
101.342,1.0,-1.0
101.343,1.0,-1.0
101.344,0.8811835826637744,-0.8811835826637744
101.345,0.4918827818434911,-0.4918827818434911
101.346,0.041493896095477156,-0.041493896095477156
101.347,0.3646940364140998,0.3646940364140998
101.348,0.6416207973505519,0.6416207973505519
101.349,0.7461709304874817,0.7461709304874817
101.35,0.6850267604195304,0.6850267604195304
101.351,0.507243694823247,0.507243694823247
101.352,0.2849972477032403,0.2849972477032403
101.353,0.08940365809674833,0.08940365809674833
101.354,0.030679956881624504,-0.030679956881624504
101.355,0.06057884436016736,-0.06057884436016736
101.356,0.019659103193090277,-0.019659103193090277
101.357,0.04955475352038108,0.04955475352038108
101.358,0.09836950937060873,0.09836950937060873
101.359,0.0889079531176511,0.0889079531176511
101.36,0.005657143658665431,0.005657143658665431
101.361,0.14144445922821702,-0.14144445922821702
101.362,0.3222601820405918,-0.3222601820405918
101.363,0.49719663333854947,-0.49719663333854947
101.364,0.629164848295884,-0.629164848295884
101.365,0.6927391226222178,-0.6927391226222178
101.366,0.6781201595544222,-0.6781201595544222
101.367,0.5897632532890719,-0.5897632532890719
101.368,0.441498688794997,-0.441498688794997
101.369,0.25093406118954253,-0.25093406118954253
101.37,0.03562319949708603,-0.03562319949708603
101.371,0.18782923256070405,0.18782923256070405
101.372,0.40224244843780643,0.40224244843780643
101.373,0.5877304048773317,0.5877304048773317
101.374,0.7211514633233995,0.7211514633233995
101.375,0.7786072761474137,0.7786072761474137
101.376,0.7409858891556298,0.7409858891556298
101.377,0.6009396748424394,0.6009396748424394
101.378,0.3686483870870121,0.3686483870870121
101.379,0.07371328919095377,0.07371328919095377
101.38,0.23837849522304666,-0.23837849522304666
101.381,0.5149650259797397,-0.5149650259797397
101.382,0.7079727860603456,-0.7079727860603456
101.383,0.7853908298917837,-0.7853908298917837
101.384,0.739017601389983,-0.739017601389983
101.385,0.5861241300470955,-0.5861241300470955
101.386,0.36456282109171445,-0.36456282109171445
101.387,0.12287525230339758,-0.12287525230339758
101.388,0.09158858678131754,0.09158858678131754
101.389,0.24311561889186373,0.24311561889186373
101.39,0.3139407255679434,0.3139407255679434
101.391,0.3052635956726122,0.3052635956726122
101.392,0.23356585014934628,0.23356585014934628
101.393,0.12415568428247847,0.12415568428247847
101.394,0.0043451249305404005,0.0043451249305404005
101.395,0.10178684580331199,-0.10178684580331199
101.396,0.17618113547906733,-0.17618113547906733
101.397,0.20747466276585125,-0.20747466276585125
101.398,0.1906944159275783,-0.1906944159275783
101.399,0.12715987395997508,-0.12715987395997508
101.4,0.025147112061528087,-0.025147112061528087
101.401,0.0991150361525237,0.0991150361525237
101.402,0.22135358859527954,0.22135358859527954
101.403,0.3114731973123803,0.3114731973123803
101.404,0.3388474697807917,0.3388474697807917
101.405,0.280146206299944,0.280146206299944
101.406,0.12774307280987918,0.12774307280987918
101.407,0.10417188741097816,-0.10417188741097816
101.408,0.37856779051686507,-0.37856779051686507
101.409,0.6411997149883704,-0.6411997149883704
101.41,0.8323817796055368,-0.8323817796055368
101.411,0.9021762569005022,-0.9021762569005022
101.412,0.8247069246786386,-0.8247069246786386
101.413,0.6070611007170377,-0.6070611007170377
101.414,0.28954298793116673,-0.28954298793116673
101.415,0.06344188527972228,0.06344188527972228
101.416,0.3796435723642251,0.3796435723642251
101.417,0.5977538106879594,0.5977538106879594
101.418,0.6831375277771603,0.6831375277771603
101.419,0.6357600732350828,0.6357600732350828
101.42,0.48797670787961156,0.48797670787961156
101.421,0.29306728927190107,0.29306728927190107
101.422,0.10833708621707272,0.10833708621707272
101.423,0.021735815514399848,-0.021735815514399848
101.424,0.07701113773623802,-0.07701113773623802
101.425,0.06451564786925146,-0.06451564786925146
101.426,0.012285564397452098,-0.012285564397452098
101.427,0.04303996502681473,0.04303996502681473
101.428,0.07014757207996625,0.07014757207996625
101.429,0.05351780000640627,0.05351780000640627
101.43,0.003023376042954329,-0.003023376042954329
101.431,0.08040991252767671,-0.08040991252767671
101.432,0.15395171222324244,-0.15395171222324244
101.433,0.2043262748578053,-0.2043262748578053
101.434,0.22544542104993726,-0.22544542104993726
101.435,0.2260694618247464,-0.2260694618247464
101.436,0.22461524752808115,-0.22461524752808115
101.437,0.23938929572004308,-0.23938929572004308
101.438,0.278398263077826,-0.278398263077826
101.439,0.33319104601110416,-0.33319104601110416
101.44,0.37972116610849305,-0.37972116610849305
101.441,0.3865073091122647,-0.3865073091122647
101.442,0.3274221776093945,-0.3274221776093945
101.443,0.19437990948678896,-0.19437990948678896
101.444,0.004842728252994255,-0.004842728252994255
101.445,0.1993652735771143,0.1993652735771143
101.446,0.3624663612472052,0.3624663612472052
101.447,0.43153096042821915,0.43153096042821915
101.448,0.37432457341224357,0.37432457341224357
101.449,0.19211412020141294,0.19211412020141294
101.45,0.0772762864254064,-0.0772762864254064
101.451,0.3677973724558705,-0.3677973724558705
101.452,0.6027878016323578,-0.6027878016323578
101.453,0.7166261295944357,-0.7166261295944357
101.454,0.6737367370321952,-0.6737367370321952
101.455,0.47902191808241856,-0.47902191808241856
101.456,0.17650050981298326,-0.17650050981298326
101.457,0.16332240224319894,0.16332240224319894
101.458,0.4633093118741436,0.4633093118741436
101.459,0.6605880752967324,0.6605880752967324
101.46,0.7222344118971062,0.7222344118971062
101.461,0.6514087152868604,0.6514087152868604
101.462,0.4828309947468836,0.4828309947468836
101.463,0.26985039073210393,0.26985039073210393
101.464,0.0677718860518477,0.0677718860518477
101.465,0.0811899102633511,-0.0811899102633511
101.466,0.1570565998417851,-0.1570565998417851
101.467,0.1634346231940853,-0.1634346231940853
101.468,0.12189753375700185,-0.12189753375700185
101.469,0.0623366345082732,-0.0623366345082732
101.47,0.013028922086646633,-0.013028922086646633
101.471,0.006439537431478959,0.006439537431478959
101.472,0.01211267942984906,-0.01211267942984906
101.473,0.06671940284185729,-0.06671940284185729
101.474,0.14871366119005436,-0.14871366119005436
101.475,0.24620310487950114,-0.24620310487950114
101.476,0.34607493193857597,-0.34607493193857597
101.477,0.43431695828368666,-0.43431695828368666
101.478,0.49567987794632196,-0.49567987794632196
101.479,0.5142723758846711,-0.5142723758846711
101.48,0.47627404568599296,-0.47627404568599296
101.481,0.37473028941273034,-0.37473028941273034
101.482,0.2149194718572478,-0.2149194718572478
101.483,0.01778308750221269,-0.01778308750221269
101.484,0.1810385406409465,0.1810385406409465
101.485,0.33776242498967957,0.33776242498967957
101.486,0.4117089464026338,0.4117089464026338
101.487,0.3781825740872016,0.3781825740872016
101.488,0.23863433097388942,0.23863433097388942
101.489,0.0239763316188224,0.0239763316188224
101.49,0.21121259179324015,-0.21121259179324015
101.491,0.40285714417208696,-0.40285714417208696
101.492,0.4960983976315022,-0.4960983976315022
101.493,0.46267351806142465,-0.46267351806142465
101.494,0.31097355732096066,-0.31097355732096066
101.495,0.08482732177740926,-0.08482732177740926
101.496,0.14931827580987767,0.14931827580987767
101.497,0.32313877863263385,0.32313877863263385
101.498,0.3884343890470048,0.3884343890470048
101.499,0.3329353841865901,0.3329353841865901
101.5,0.18425101307884884,0.18425101307884884
101.501,0.00020091401802635467,0.00020091401802635467
101.502,0.15151815458925322,-0.15151815458925322
101.503,0.21749495557379306,-0.21749495557379306
101.504,0.17813745142871462,-0.17813745142871462
101.505,0.05543897044099555,-0.05543897044099555
101.506,0.09424114247483084,0.09424114247483084
101.507,0.20036793461912583,0.20036793461912583
101.508,0.20464569660622955,0.20464569660622955
101.509,0.08438583339684813,0.08438583339684813
101.51,0.13577370455707394,-0.13577370455707394
101.511,0.3886453940501694,-0.3886453940501694
101.512,0.5849859362253075,-0.5849859362253075
101.513,0.6433416303576707,-0.6433416303576707
101.514,0.5193033216519045,-0.5193033216519045
101.515,0.2239861263591193,-0.2239861263591193
101.516,0.17516233663617164,0.17516233663617164
101.517,0.5723327740322575,0.5723327740322575
101.518,0.8548534171494961,0.8548534171494961
101.519,0.9382167845230149,0.9382167845230149
101.52,0.793163055809095,0.793163055809095
101.521,0.45573404543673113,0.45573404543673113
101.522,0.016711208159862156,0.016711208159862156
101.523,0.4063560076518541,-0.4063560076518541
101.524,0.705526976019976,-0.705526976019976
101.525,0.8154170252199244,-0.8154170252199244
101.526,0.7319949934107345,-0.7319949934107345
101.527,0.5112119559600912,-0.5112119559600912
101.528,0.2481489309124053,-0.2481489309124053
101.529,0.043823722043288105,-0.043823722043288105
101.53,0.029175745464729452,0.029175745464729452
101.531,0.04919824409241691,-0.04919824409241691
101.532,0.2404705447099088,-0.2404705447099088
101.533,0.4615167641615229,-0.4615167641615229
101.534,0.6133909818709304,-0.6133909818709304
101.535,0.6153190034793066,-0.6153190034793066
101.536,0.4325338606687187,-0.4325338606687187
101.537,0.08889340206642005,-0.08889340206642005
101.538,0.3395637852076421,0.3395637852076421
101.539,0.7476189279745347,0.7476189279745347
101.54,1.0,1.0
101.541,1.0,1.0
101.542,1.0,1.0
101.543,0.7086866826374405,0.7086866826374405
101.544,0.31245882805012193,0.31245882805012193
101.545,0.09262418322321908,-0.09262418322321908
101.546,0.42629780155149744,-0.42629780155149744
101.547,0.639881271933858,-0.639881271933858
101.548,0.7244060590071559,-0.7244060590071559
101.549,0.7052223374480365,-0.7052223374480365
101.55,0.6264916313587248,-0.6264916313587248
101.551,0.5320910779499742,-0.5320910779499742
101.552,0.4500480259398374,-0.4500480259398374
101.553,0.3856581335909224,-0.3856581335909224
101.554,0.3247917035561203,-0.3247917035561203
101.555,0.24498751991753032,-0.24498751991753032
101.556,0.12920540788320478,-0.12920540788320478
101.557,0.02351823377734097,0.02351823377734097
101.558,0.19469113936333304,0.19469113936333304
101.559,0.35137693784750135,0.35137693784750135
101.56,0.4573912408448564,0.4573912408448564
101.561,0.48616240235963115,0.48616240235963115
101.562,0.43026055859851464,0.43026055859851464
101.563,0.3040559446316522,0.3040559446316522
101.564,0.13871975248734958,0.13871975248734958
101.565,0.02827878640440462,-0.02827878640440462
101.566,0.16503399750127146,-0.16503399750127146
101.567,0.2539692081892533,-0.2539692081892533
101.568,0.2944829074010681,-0.2944829074010681
101.569,0.2990080644999932,-0.2990080644999932
101.57,0.284657076427133,-0.284657076427133
101.571,0.2643004470778061,-0.2643004470778061
101.572,0.24098934024692753,-0.24098934024692753
101.573,0.20807972075166814,-0.20807972075166814
101.574,0.1548910389590924,-0.1548910389590924
101.575,0.07526523688992925,-0.07526523688992925
101.576,0.02500548062181185,0.02500548062181185
101.577,0.125645628212268,0.125645628212268
101.578,0.1961484330966874,0.1961484330966874
101.579,0.20592672021232894,0.20592672021232894
101.58,0.1368784683578439,0.1368784683578439
101.581,0.006489362161578138,-0.006489362161578138
101.582,0.1937744773880935,-0.1937744773880935
101.583,0.3744122644161543,-0.3744122644161543
101.584,0.4913982620371198,-0.4913982620371198
101.585,0.4989241751827225,-0.4989241751827225
101.586,0.3781169958934506,-0.3781169958934506
101.587,0.14534685998734576,-0.14534685998734576
101.588,0.1501621407370417,0.1501621407370417
101.589,0.43916826102656037,0.43916826102656037
101.59,0.6518981930251659,0.6518981930251659
101.591,0.7380589447804302,0.7380589447804302
101.592,0.6809832065170367,0.6809832065170367
101.593,0.5014232881613057,0.5014232881613057
101.594,0.24994137889655788,0.24994137889655788
101.595,0.009387240734816338,-0.009387240734816338
101.596,0.218441089269379,-0.218441089269379
101.597,0.34129730443461725,-0.34129730443461725
101.598,0.37218292466878067,-0.37218292466878067
101.599,0.3330732014040061,-0.3330732014040061
101.6,0.2624895218595519,-0.2624895218595519
101.601,0.19998031912006775,-0.19998031912006775
101.602,0.17200703889904756,-0.17200703889904756
101.603,0.18411986086150334,-0.18411986086150334
101.604,0.22176300672207627,-0.22176300672207627
101.605,0.2587703199271243,-0.2587703199271243
101.606,0.2698121033460462,-0.2698121033460462
101.607,0.241742935021659,-0.241742935021659
101.608,0.1794181192319506,-0.1794181192319506
101.609,0.10381563206518785,-0.10381563206518785
101.61,0.043338658811575725,-0.043338658811575725
101.611,0.02182862441753952,-0.02182862441753952
101.612,0.048096031342355405,-0.048096031342355405
101.613,0.11120638570908825,-0.11120638570908825
101.614,0.1835637095119791,-0.1835637095119791
101.615,0.2308424547423772,-0.2308424547423772
101.616,0.22515345413608168,-0.22515345413608168
101.617,0.15649346550565058,-0.15649346550565058
101.618,0.03803285024881142,-0.03803285024881142
101.619,0.09702509109907087,0.09702509109907087
101.62,0.20621188794509893,0.20621188794509893
101.621,0.25254807989962536,0.25254807989962536
101.622,0.21807389531706733,0.21807389531706733
101.623,0.11123569349003049,0.11123569349003049
101.624,0.034724522551407566,-0.034724522551407566
101.625,0.17210221099582934,-0.17210221099582934
101.626,0.254428702414744,-0.254428702414744
101.627,0.25223115404756247,-0.25223115404756247
101.628,0.1634344580465421,-0.1634344580465421
101.629,0.014751487785240047,-0.014751487785240047
101.63,0.14655137979879873,0.14655137979879873
101.631,0.267860645532525,0.267860645532525
101.632,0.3083722377520084,0.3083722377520084
101.633,0.25251004010897016,0.25251004010897016
101.634,0.11516888995443142,0.11516888995443142
101.635,0.06292866108571038,-0.06292866108571038
101.636,0.2282040181326066,-0.2282040181326066
101.637,0.33125441383915055,-0.33125441383915055
101.638,0.34241341233523703,-0.34241341233523703
101.639,0.26087660230520326,-0.26087660230520326
101.64,0.11459475002347574,-0.11459475002347574
101.641,0.04885317898330621,0.04885317898330621
101.642,0.1773431274436088,0.1773431274436088
101.643,0.23039936805888472,0.23039936805888472
101.644,0.191464926395293,0.191464926395293
101.645,0.07260868676932741,0.07260868676932741
101.646,0.08951535736556071,-0.08951535736556071
101.647,0.24494648371499428,-0.24494648371499428
101.648,0.34533463113584495,-0.34533463113584495
101.649,0.35801232453180365,-0.35801232453180365
101.65,0.27523185385420035,-0.27523185385420035
101.651,0.11619612630925824,-0.11619612630925824
101.652,0.07832136598274508,0.07832136598274508
101.653,0.2569336045256214,0.2569336045256214
101.654,0.3709939479516615,0.3709939479516615
101.655,0.3868057301788883,0.3868057301788883
101.656,0.29374408965403376,0.29374408965403376
101.657,0.10661376295282654,0.10661376295282654
101.658,0.1379190814574046,-0.1379190814574046
101.659,0.38963080573549025,-0.38963080573549025
101.66,0.5956849466462377,-0.5956849466462377
101.661,0.7117780546386714,-0.7117780546386714
101.662,0.711223842672721,-0.711223842672721
101.663,0.5902774204743814,-0.5902774204743814
101.664,0.3687943360449324,-0.3687943360449324
101.665,0.08619794808470327,-0.08619794808470327
101.666,0.20642120834997923,0.20642120834997923
101.667,0.4565299692985194,0.4565299692985194
101.668,0.6206715984403788,0.6206715984403788
101.669,0.6731090983814394,0.6731090983814394
101.67,0.6107112028590911,0.6107112028590911
101.671,0.4529313119001759,0.4529313119001759
101.672,0.23680438901595946,0.23680438901595946
101.673,0.008080374542108304,0.008080374542108304
101.674,0.189383386164948,-0.189383386164948
101.675,0.32334039726911823,-0.32334039726911823
101.676,0.37954026139275965,-0.37954026139275965
101.677,0.3632215052289368,-0.3632215052289368
101.678,0.29551413031192,-0.29551413031192
101.679,0.20599870271049647,-0.20599870271049647
101.68,0.12374766875696697,-0.12374766875696697
101.681,0.06953504259758858,-0.06953504259758858
101.682,0.051415232168875336,-0.051415232168875336
101.683,0.06469505301601142,-0.06469505301601142
101.684,0.09584941972820682,-0.09584941972820682
101.685,0.1286640688899504,-0.1286640688899504
101.686,0.15026336565784748,-0.15026336565784748
101.687,0.15490688708038747,-0.15490688708038747
101.688,0.14441750981779033,-0.14441750981779033
101.689,0.12546276830344893,-0.12546276830344893
101.69,0.10513541424022,-0.10513541424022
101.691,0.08690273603682486,-0.08690273603682486
101.692,0.06877759726874488,-0.06877759726874488
101.693,0.04458901128392312,-0.04458901128392312
101.694,0.007874804381830192,-0.007874804381830192
101.695,0.043280164528560316,0.043280164528560316
101.696,0.10268892806950047,0.10268892806950047
101.697,0.1556714325630566,0.1556714325630566
101.698,0.18255259562675374,0.18255259562675374
101.699,0.1652241973886721,0.1652241973886721
101.7,0.09459074440497472,0.09459074440497472
101.701,0.02389468639518555,-0.02389468639518555
101.702,0.16898322216775485,-0.16898322216775485
101.703,0.30769440958739014,-0.30769440958739014
101.704,0.4038689989545654,-0.4038689989545654
101.705,0.4287094310765698,-0.4287094310765698
101.706,0.36992374320161203,-0.36992374320161203
101.707,0.23636107395179862,-0.23636107395179862
101.708,0.05640748547999386,-0.05640748547999386
101.709,0.1295533786603138,0.1295533786603138
101.71,0.2803227626685021,0.2803227626685021
101.711,0.3651845541117935,0.3651845541117935
101.712,0.37175323754982337,0.37175323754982337
101.713,0.30799137621223616,0.30799137621223616
101.714,0.19800722583679065,0.19800722583679065
101.715,0.07333502572097172,0.07333502572097172
101.716,0.037149093838008684,-0.037149093838008684
101.717,0.11522112302143361,-0.11522112302143361
101.718,0.1566922737642712,-0.1566922737642712
101.719,0.16946304489278552,-0.16946304489278552
101.72,0.16751985680016568,-0.16751985680016568
101.721,0.16357925563135367,-0.16357925563135367
101.722,0.16343539901274373,-0.16343539901274373
101.723,0.16422295110964047,-0.16422295110964047
101.724,0.15711469288871704,-0.15711469288871704
101.725,0.13310179961977597,-0.13310179961977597
101.726,0.08919520737977038,-0.08919520737977038
101.727,0.032163771625764226,-0.032163771625764226
101.728,0.022107119542123632,0.022107119542123632
101.729,0.05375815597334532,0.05375815597334532
101.73,0.046799259190595466,0.046799259190595466
101.731,0.00342827305813298,-0.00342827305813298
101.732,0.08635022014459903,-0.08635022014459903
101.733,0.1778174784737434,-0.1778174784737434
101.734,0.24726515486697087,-0.24726515486697087
101.735,0.2681409555335491,-0.2681409555335491
101.736,0.2279224202543233,-0.2279224202543233
101.737,0.13391760937005714,-0.13391760937005714
101.738,0.012361979965288206,-0.012361979965288206
101.739,0.09933967550417822,0.09933967550417822
101.74,0.164852889556814,0.164852889556814
101.741,0.16148535576771406,0.16148535576771406
101.742,0.08860936926096552,0.08860936926096552
101.743,0.031249978276918222,-0.031249978276918222
101.744,0.1593331023651724,-0.1593331023651724
101.745,0.2533924022470404,-0.2533924022470404
101.746,0.28193253714099265,-0.28193253714099265
101.747,0.2349585943020317,-0.2349585943020317
101.748,0.1273808603261496,-0.1273808603261496
101.749,0.006220065902098781,0.006220065902098781
101.75,0.12368495757460485,0.12368495757460485
101.751,0.18994953264272274,0.18994953264272274
101.752,0.1890429604314785,0.1890429604314785
101.753,0.12907302165403145,0.12907302165403145
101.754,0.03838096383922229,0.03838096383922229
101.755,0.04572072743648181,-0.04572072743648181
101.756,0.0914504125318113,-0.0914504125318113
101.757,0.0848548599065535,-0.0848548599065535
101.758,0.03519108133653148,-0.03519108133653148
101.759,0.028807616734411123,0.028807616734411123
101.76,0.07057736433891604,0.07057736433891604
101.761,0.0610200757219832,0.0610200757219832
101.762,0.008372613580981292,-0.008372613580981292
101.763,0.11982494173894365,-0.11982494173894365
101.764,0.23370647119985966,-0.23370647119985966
101.765,0.3020898053034683,-0.3020898053034683
101.766,0.28693831794329827,-0.28693831794329827
101.767,0.17640491098527766,-0.17640491098527766
101.768,0.0070114680798814,0.0070114680798814
101.769,0.2101452619629629,0.2101452619629629
101.77,0.3643386073237227,0.3643386073237227
101.771,0.4076374460933734,0.4076374460933734
101.772,0.3067711578124579,0.3067711578124579
101.773,0.07131196895624914,0.07131196895624914
101.774,0.24533050233968878,-0.24533050233968878
101.775,0.5592254152658385,-0.5592254152658385
101.776,0.7799338189460316,-0.7799338189460316
101.777,0.837894568503146,-0.837894568503146
101.778,0.7064870849148905,-0.7064870849148905
101.779,0.4115603060934683,-0.4115603060934683
101.78,0.02511729509789451,-0.02511729509789451
101.781,0.355104978077752,0.355104978077752
101.782,0.6338867658220178,0.6338867658220178
101.783,0.7458193649880911,0.7458193649880911
101.784,0.6731932217346024,0.6731932217346024
101.785,0.44910744453623597,0.44910744453623597
101.786,0.14521009855353628,0.14521009855353628
101.787,0.15162165133767314,-0.15162165133767314
101.788,0.365946914991212,-0.365946914991212
101.789,0.4552388932990612,-0.4552388932990612
101.79,0.41962547060338395,-0.41962547060338395
101.791,0.2974064097698187,-0.2974064097698187
101.792,0.14860529305540127,-0.14860529305540127
101.793,0.03264613048575005,-0.03264613048575005
101.794,0.012083955815853864,0.012083955815853864
101.795,0.019996127301823874,-0.019996127301823874
101.796,0.10212555572737958,-0.10212555572737958
101.797,0.18716310524767277,-0.18716310524767277
101.798,0.2264103797075636,-0.2264103797075636
101.799,0.18846747388636076,-0.18846747388636076
101.8,0.0714937350101772,-0.0714937350101772
101.801,0.0952980236437293,0.0952980236437293
101.802,0.261276067081037,0.261276067081037
101.803,0.3716827683449886,0.3716827683449886
101.804,0.3865584409934901,0.3865584409934901
101.805,0.29481399464792246,0.29481399464792246
101.806,0.11871305705585744,0.11871305705585744
101.807,0.09268386383462324,-0.09268386383462324
101.808,0.2788652596224124,-0.2788652596224124
101.809,0.3868999929285585,-0.3868999929285585
101.81,0.3879509730121822,-0.3879509730121822
101.811,0.2860296365452578,-0.2860296365452578
101.812,0.11638180685976729,-0.11638180685976729
101.813,0.06572506871894324,0.06572506871894324
101.814,0.20204316898929542,0.20204316898929542
101.815,0.2487722176203242,0.2487722176203242
101.816,0.18905811244475768,0.18905811244475768
101.817,0.03703159026719227,0.03703159026719227
101.818,0.1673635757044183,-0.1673635757044183
101.819,0.37066976628615833,-0.37066976628615833
101.82,0.5212659758559216,-0.5212659758559216
101.821,0.5831008253878911,-0.5831008253878911
101.822,0.5440172151660595,-0.5440172151660595
101.823,0.4168229743255748,-0.4168229743255748
101.824,0.233569789005469,-0.233569789005469
101.825,0.03542205857844838,-0.03542205857844838
101.826,0.13852194018910557,0.13852194018910557
101.827,0.2602435802233387,0.2602435802233387
101.828,0.3175284380029688,0.3175284380029688
101.829,0.3138417912862399,0.3138417912862399
101.83,0.26427765117781155,0.26427765117781155
101.831,0.1894554745884529,0.1894554745884529
101.832,0.10944907890997402,0.10944907890997402
101.833,0.039367712414259515,0.039367712414259515
101.834,0.012651531464745847,-0.012651531464745847
101.835,0.04517560373630869,-0.04517560373630869
101.836,0.06169109261806105,-0.06169109261806105
101.837,0.06826686063419285,-0.06826686063419285
101.838,0.07144621241697813,-0.07144621241697813
101.839,0.07675837617700487,-0.07675837617700487
101.84,0.0878531755164953,-0.0878531755164953
101.841,0.10605086745744896,-0.10605086745744896
101.842,0.13011407734018265,-0.13011407734018265
101.843,0.1562221283591797,-0.1562221283591797
101.844,0.1783165427025828,-0.1783165427025828
101.845,0.18904768093160162,-0.18904768093160162
101.846,0.18141558844401617,-0.18141558844401617
101.847,0.15089936375709556,-0.15089936375709556
101.848,0.09753804453344295,-0.09753804453344295
101.849,0.027228074522235857,-0.027228074522235857
101.85,0.048433947992947424,0.048433947992947424
101.851,0.11407990475779584,0.11407990475779584
101.852,0.1540323906503005,0.1540323906503005
101.853,0.15649321040700115,0.15649321040700115
101.854,0.11727811374148933,0.11727811374148933
101.855,0.041900860039789434,0.041900860039789434
101.856,0.05480893163207301,-0.05480893163207301
101.857,0.15168639612053125,-0.15168639612053125
101.858,0.2261646311522547,-0.2261646311522547
101.859,0.2598910595141595,-0.2598910595141595
101.86,0.2434954214270283,-0.2434954214270283
101.861,0.17917103451976335,-0.17917103451976335
101.862,0.08032765572318112,-0.08032765572318112
101.863,0.031605726255703015,0.031605726255703015
101.864,0.13235591956571713,0.13235591956571713
101.865,0.20055594504273677,0.20055594504273677
101.866,0.22255312805592942,0.22255312805592942
101.867,0.19507706280346104,0.19507706280346104
101.868,0.12521308283386623,0.12521308283386623
101.869,0.027890669965062953,0.027890669965062953
101.87,0.07824765812502799,-0.07824765812502799
101.871,0.175365707884109,-0.175365707884109
101.872,0.2501200872370951,-0.2501200872370951
101.873,0.2956481467896205,-0.2956481467896205
101.874,0.3115631436540697,-0.3115631436540697
101.875,0.3022666040896822,-0.3022666040896822
101.876,0.2743453780567683,-0.2743453780567683
101.877,0.2340076928714071,-0.2340076928714071
101.878,0.185392190389572,-0.185392190389572
101.879,0.13021255334159276,-0.13021255334159276
101.88,0.0687051543016376,-0.0687051543016376
101.881,0.0013867512195129272,-0.0013867512195129272
101.882,0.06915318737162668,0.06915318737162668
101.883,0.13721838428715638,0.13721838428715638
101.884,0.19426892595623557,0.19426892595623557
101.885,0.23057246682804866,0.23057246682804866
101.886,0.23783048115526118,0.23783048115526118
101.887,0.21196950959672733,0.21196950959672733
101.888,0.1551345254359049,0.1551345254359049
101.889,0.07608221377169522,0.07608221377169522
101.89,0.011379843786300525,-0.011379843786300525
101.891,0.09164783056850545,-0.09164783056850545
101.892,0.15141713526588307,-0.15141713526588307
101.893,0.1833937987450951,-0.1833937987450951
101.894,0.18839430857971806,-0.18839430857971806
101.895,0.1750128605461252,-0.1750128605461252
101.896,0.15675954060467823,-0.15675954060467823
101.897,0.14740517986612944,-0.14740517986612944
101.898,0.15593922077254074,-0.15593922077254074
101.899,0.18281118488440695,-0.18281118488440695
101.9,0.21885161411847975,-0.21885161411847975
101.901,0.24749252067960947,-0.24749252067960947
101.902,0.24984470619412413,-0.24984470619412413
101.903,0.21117536117988667,-0.21117536117988667
101.904,0.1267170577801996,-0.1267170577801996
101.905,0.0047775022940720335,-0.0047775022940720335
101.906,0.13414449938530693,0.13414449938530693
101.907,0.2622882758440812,0.2622882758440812
101.908,0.3522917087218944,0.3522917087218944
101.909,0.38524278140899004,0.38524278140899004
101.91,0.35647883610728837,0.35647883610728837
101.911,0.27707257960321696,0.27707257960321696
101.912,0.17027896374353002,0.17027896374353002
101.913,0.06389752820793837,0.06389752820793837
101.914,0.01902926388185433,-0.01902926388185433
101.915,0.06803690535122908,-0.06803690535122908
101.916,0.08875763574375317,-0.08875763574375317
101.917,0.10064767325386248,-0.10064767325386248
101.918,0.12937751267628894,-0.12937751267628894
101.919,0.1962577911735649,-0.1962577911735649
101.92,0.3082920326504559,-0.3082920326504559
101.921,0.4524943782859089,-0.4524943782859089
101.922,0.5968912420927472,-0.5968912420927472
101.923,0.6984825716770371,-0.6984825716770371
101.924,0.71605563361971,-0.71605563361971
101.925,0.623930203310857,-0.623930203310857
101.926,0.4221257096660014,-0.4221257096660014
101.927,0.13934726214624982,-0.13934726214624982
101.928,0.1726436510528797,0.1726436510528797
101.929,0.4519537436767922,0.4519537436767922
101.93,0.643025794633828,0.643025794633828
101.931,0.7116224637159163,0.7116224637159163
101.932,0.6536498548432264,0.6536498548432264
101.933,0.49505216511779104,0.49505216511779104
101.934,0.2828688908009871,0.2828688908009871
101.935,0.07041323052097304,0.07041323052097304
101.936,0.09856569382529379,-0.09856569382529379
101.937,0.20159337110371334,-0.20159337110371334
101.938,0.2413659965595103,-0.2413659965595103
101.939,0.24085468906353635,-0.24085468906353635
101.94,0.23167901955232995,-0.23167901955232995
101.941,0.2401269215650963,-0.2401269215650963
101.942,0.27597788811192336,-0.27597788811192336
101.943,0.32824419280717165,-0.32824419280717165
101.944,0.3694313236545482,-0.3694313236545482
101.945,0.3668081894233115,-0.3668081894233115
101.946,0.29656832628823926,-0.29656832628823926
101.947,0.15559359171574594,-0.15559359171574594
101.948,0.033754586213081916,0.033754586213081916
101.949,0.2280108756844581,0.2280108756844581
101.95,0.3751074871950779,0.3751074871950779
101.951,0.4310000695343055,0.4310000695343055
101.952,0.37478752129217097,0.37478752129217097
101.953,0.21700364796087346,0.21700364796087346
101.954,0.0020590144169180258,-0.0020590144169180258
101.955,0.2237994287063747,-0.2237994287063747
101.956,0.3889925491971319,-0.3889925491971319
101.957,0.4559710509905781,-0.4559710509905781
101.958,0.4132971766161154,-0.4132971766161154
101.959,0.2826939274463912,-0.2826939274463912
101.96,0.11123961923320702,-0.11123961923320702
101.961,0.04457374215753407,0.04457374215753407
101.962,0.13758800371468283,0.13758800371468283
101.963,0.14527366196671454,0.14527366196671454
101.964,0.07650337753995395,0.07650337753995395
101.965,0.032365922287105886,-0.032365922287105886
101.966,0.13066039923461592,-0.13066039923461592
101.967,0.17127181815503456,-0.17127181815503456
101.968,0.12719380686275727,-0.12719380686275727
101.969,0.0011875388157399636,-0.0011875388157399636
101.97,0.1745595533488713,0.1745595533488713
101.971,0.3485222131003327,0.3485222131003327
101.972,0.4661800528084403,0.4661800528084403
101.973,0.48714216243976094,0.48714216243976094
101.974,0.39749064759154007,0.39749064759154007
101.975,0.21354972938500882,0.21354972938500882
101.976,0.02374787974070902,-0.02374787974070902
101.977,0.2616172648223096,-0.2616172648223096
101.978,0.45083048059711694,-0.45083048059711694
101.979,0.5587391457913451,-0.5587391457913451
101.98,0.5760305034477138,-0.5760305034477138
101.981,0.5157276488082466,-0.5157276488082466
101.982,0.40566234048997274,-0.40566234048997274
101.983,0.2777221656028819,-0.2777221656028819
101.984,0.15791444166819946,-0.15791444166819946
101.985,0.060526723019656115,-0.060526723019656115
101.986,0.012216464005279537,0.012216464005279537
101.987,0.06582490756035786,0.06582490756035786
101.988,0.10707524253939416,0.10707524253939416
101.989,0.13851383970186437,0.13851383970186437
101.99,0.1563278700091253,0.1563278700091253
101.991,0.15233533609265404,0.15233533609265404
101.992,0.1189668972868747,0.1189668972868747
101.993,0.054777500487591224,0.054777500487591224
101.994,0.032227625344773636,-0.032227625344773636
101.995,0.12524672044288443,-0.12524672044288443
101.996,0.20339736713460588,-0.20339736713460588
101.997,0.24878231689233765,-0.24878231689233765
101.998,0.2530646053051019,-0.2530646053051019
101.999,0.22073906239785568,-0.22073906239785568
102.0,0.16750192575553435,-0.16750192575553435
102.001,0.11406993818925726,-0.11406993818925726
102.002,0.07771836276786592,-0.07771836276786592
102.003,0.06490788050839202,-0.06490788050839202
102.004,0.0681601592683796,-0.0681601592683796
102.005,0.06882779459986565,-0.06882779459986565
102.006,0.04511241244609665,-0.04511241244609665
102.007,0.017521716700801493,0.017521716700801493
102.008,0.11763189072273894,0.11763189072273894
102.009,0.23459058292341717,0.23459058292341717
102.01,0.3328943507740165,0.3328943507740165
102.011,0.3732488872542048,0.3732488872542048
102.012,0.326986967673647,0.326986967673647
102.013,0.188741107899995,0.188741107899995
102.014,0.01757960535318004,-0.01757960535318004
102.015,0.2424862884597878,-0.2424862884597878
102.016,0.42403232807045477,-0.42403232807045477
102.017,0.5067181151810383,-0.5067181151810383
102.018,0.4601828086141979,-0.4601828086141979
102.019,0.29127990813233384,-0.29127990813233384
102.02,0.044932112981133865,-0.044932112981133865
102.021,0.2073379396891719,0.2073379396891719
102.022,0.3882240043596701,0.3882240043596701
102.023,0.43853608338172,0.43853608338172
102.024,0.33658257326466146,0.33658257326466146
102.025,0.10657445874811655,0.10657445874811655
102.026,0.18708470542779143,-0.18708470542779143
102.027,0.45829431056942904,-0.45829431056942904
102.028,0.6250542301860609,-0.6250542301860609
102.029,0.6346139399179466,-0.6346139399179466
102.03,0.48008285661723327,-0.48008285661723327
102.031,0.20321187667328566,-0.20321187667328566
102.032,0.1176272445951283,0.1176272445951283
102.033,0.39059605107674966,0.39059605107674966
102.034,0.5375387930276152,0.5375387930276152
102.035,0.5168007905762642,0.5168007905762642
102.036,0.33484155158445295,0.33484155158445295
102.037,0.04335847205982302,0.04335847205982302
102.038,0.27682065524209676,-0.27682065524209676
102.039,0.5397917723554355,-0.5397917723554355
102.04,0.679045679371818,-0.679045679371818
102.041,0.6650167851591111,-0.6650167851591111
102.042,0.5108436909329851,-0.5108436909329851
102.043,0.26535087905137666,-0.26535087905137666
102.044,0.0037594722837142047,0.0037594722837142047
102.045,0.23070386754160244,0.23070386754160244
102.046,0.3697872103323261,0.3697872103323261
102.047,0.40565889625238816,0.40565889625238816
102.048,0.3532765920886931,0.3532765920886931
102.049,0.24864639060348082,0.24864639060348082
102.05,0.13424238529893273,0.13424238529893273
102.051,0.044353600266478166,0.044353600266478166
102.052,0.004866307577988782,-0.004866307577988782
102.053,0.017866983887019572,-0.017866983887019572
102.054,0.014649517367796405,-0.014649517367796405
102.055,0.020678302282354677,-0.020678302282354677
102.056,0.055718961843019055,-0.055718961843019055
102.057,0.12559188162359036,-0.12559188162359036
102.058,0.2195155994669269,-0.2195155994669269
102.059,0.3136077809427451,-0.3136077809427451
102.06,0.37898627559774056,-0.37898627559774056
102.061,0.3914830393354235,-0.3914830393354235
102.062,0.3396679884491658,-0.3396679884491658
102.063,0.22868393032325907,-0.22868393032325907
102.064,0.07894541918913045,-0.07894541918913045
102.065,0.07953458693707782,0.07953458693707782
102.066,0.21513851155322028,0.21513851155322028
102.067,0.30241941584521603,0.30241941584521603
102.068,0.32749650272455866,0.32749650272455866
102.069,0.28991595875523757,0.28991595875523757
102.07,0.20103736190369914,0.20103736190369914
102.071,0.07999651813221886,0.07999651813221886
102.072,0.05122986063006518,-0.05122986063006518
102.073,0.1722381304573608,-0.1722381304573608
102.074,0.2672031509019632,-0.2672031509019632
102.075,0.326264046949413,-0.326264046949413
102.076,0.34561553535410383,-0.34561553535410383
102.077,0.32685476844732486,-0.32685476844732486
102.078,0.2760397348955502,-0.2760397348955502
102.079,0.20263959016207533,-0.20263959016207533
102.08,0.1183000981654383,-0.1183000981654383
102.081,0.03527111119085269,-0.03527111119085269
102.082,0.03550433197159797,0.03550433197159797
102.083,0.0863444604884529,0.0863444604884529
102.084,0.11427053137988663,0.11427053137988663
102.085,0.12133119947235604,0.12133119947235604
102.086,0.1134597935578221,0.1134597935578221
102.087,0.09802081702312093,0.09802081702312093
102.088,0.0807724144533204,0.0807724144533204
102.089,0.06335633739524771,0.06335633739524771
102.09,0.04241831461971768,0.04241831461971768
102.091,0.010991348647744204,0.010991348647744204
102.092,0.03803966652980029,-0.03803966652980029
102.093,0.1074538323459846,-0.1074538323459846
102.094,0.19185637532644584,-0.19185637532644584
102.095,0.2762030701921584,-0.2762030701921584
102.096,0.3378033911746344,-0.3378033911746344
102.097,0.3518094755011242,-0.3518094755011242
102.098,0.2989253527794187,-0.2989253527794187
102.099,0.17307750097493946,-0.17307750097493946
102.1,0.01354161659994757,0.01354161659994757
102.101,0.23012698200630877,0.23012698200630877
102.102,0.43241203987360866,0.43241203987360866
102.103,0.5724597737580372,0.5724597737580372
102.104,0.6107074527762031,0.6107074527762031
102.105,0.5269849512616291,0.5269849512616291
102.106,0.32729109831733894,0.32729109831733894
102.107,0.044161562451424,0.044161562451424
102.108,0.26979285002800824,-0.26979285002800824
102.109,0.553672944443087,-0.553672944443087
102.11,0.7523737782191827,-0.7523737782191827
102.111,0.8292722732706466,-0.8292722732706466
102.112,0.7742263820511617,-0.7742263820511617
102.113,0.6049207418202247,-0.6049207418202247
102.114,0.36144493498945296,-0.36144493498945296
102.115,0.09580985228186589,-0.09580985228186589
102.116,0.14063053856810281,0.14063053856810281
102.117,0.3085172452907985,0.3085172452907985
102.118,0.3878298667949873,0.3878298667949873
102.119,0.37977953075201376,0.37977953075201376
102.12,0.30338340106610895,0.30338340106610895
102.121,0.1882516581948548,0.1882516581948548
102.122,0.06594301842243255,0.06594301842243255
102.123,0.03768189948753664,-0.03768189948753664
102.124,0.107296029674388,-0.107296029674388
102.125,0.13936048351970587,-0.13936048351970587
102.126,0.14014010163872026,-0.14014010163872026
102.127,0.121663685087543,-0.121663685087543
102.128,0.09717242881853783,-0.09717242881853783
102.129,0.07744059155443206,-0.07744059155443206
102.13,0.06880250629877438,-0.06880250629877438
102.131,0.07301293694397859,-0.07301293694397859
102.132,0.0884538105491065,-0.0884538105491065
102.133,0.11186446401361039,-0.11186446401361039
102.134,0.13978304597310653,-0.13978304597310653
102.135,0.16918782975875957,-0.16918782975875957
102.136,0.1972726475801545,-0.1972726475801545
102.137,0.22070256291699397,-0.22070256291699397
102.138,0.2349270222606119,-0.2349270222606119
102.139,0.2341069131889013,-0.2341069131889013
102.14,0.21196038437967868,-0.21196038437967868
102.141,0.1634488853574263,-0.1634488853574263
102.142,0.08684887125883534,-0.08684887125883534
102.143,0.014481117434991031,0.014481117434991031
102.144,0.13133830882409958,0.13133830882409958
102.145,0.2493895972548441,0.2493895972548441
102.146,0.3514251722296593,0.3514251722296593
102.147,0.4207470110604463,0.4207470110604463
102.148,0.44489753867263104,0.44489753867263104
102.149,0.4187459936364071,0.4187459936364071
102.15,0.3460357218897183,0.3460357218897183
102.151,0.23885135017841508,0.23885135017841508
102.152,0.11500838036297223,0.11500838036297223
102.153,0.0060446277605753496,-0.0060446277605753496
102.154,0.10775902542840221,-0.10775902542840221
102.155,0.1802136634267728,-0.1802136634267728
102.156,0.22196275106282537,-0.22196275106282537
102.157,0.2394313046340868,-0.2394313046340868
102.158,0.2439984187453026,-0.2439984187453026
102.159,0.24762971174581305,-0.24762971174581305
102.16,0.2584228585993775,-0.2584228585993775
102.161,0.2775337637806694,-0.2775337637806694
102.162,0.2985858153942521,-0.2985858153942521
102.163,0.30990729952850415,-0.30990729952850415
102.164,0.29900657375299056,-0.29900657375299056
102.165,0.25787651407935763,-0.25787651407935763
102.166,0.1873052731717011,-0.1873052731717011
102.167,0.0985383499821767,-0.0985383499821767
102.168,0.011386517536198015,-0.011386517536198015
102.169,0.050993569143573,0.050993569143573
102.17,0.06925297045651346,0.06925297045651346
102.171,0.03473845480963145,0.03473845480963145
102.172,0.04622443036756141,-0.04622443036756141
102.173,0.15235691084168512,-0.15235691084168512
102.174,0.2522007562122678,-0.2522007562122678
102.175,0.31256002257764015,-0.31256002257764015
102.176,0.30824468311478626,-0.30824468311478626
102.177,0.23014647978633507,-0.23014647978633507
102.178,0.08900636031940568,-0.08900636031940568
102.179,0.0865526382546371,0.0865526382546371
102.18,0.2574018630776098,0.2574018630776098
102.181,0.38462996303036023,0.38462996303036023
102.182,0.44040212183205774,0.44040212183205774
102.183,0.41559718473031615,0.41559718473031615
102.184,0.321807024363961,0.321807024363961
102.185,0.1870453447851852,0.1870453447851852
102.186,0.046537670142652976,0.046537670142652976
102.187,0.06841728569255578,-0.06841728569255578
102.188,0.1398661525479642,-0.1398661525479642
102.189,0.16779867045073482,-0.16779867045073482
102.19,0.16842319788789317,-0.16842319788789317
102.191,0.16675147270814883,-0.16675147270814883
102.192,0.18607800013446318,-0.18607800013446318
102.193,0.2380444439609105,-0.2380444439609105
102.194,0.316840063046231,-0.316840063046231
102.195,0.399727089731562,-0.399727089731562
102.196,0.4539360033580562,-0.4539360033580562
102.197,0.44776813952738137,-0.44776813952738137
102.198,0.362226275400898,-0.362226275400898
102.199,0.19919950240581186,-0.19919950240581186
102.2,0.016720551193974975,0.016720551193974975
102.201,0.24365439918404053,0.24365439918404053
102.202,0.4335562174211689,0.4335562174211689
102.203,0.5456092308120002,0.5456092308120002
102.204,0.5576782409982557,0.5576782409982557
102.205,0.47221351472412043,0.47221351472412043
102.206,0.3148030235769992,0.3148030235769992
102.207,0.1259575137767659,0.1259575137767659
102.208,0.051118542302067915,-0.051118542302067915
102.209,0.18279198077362258,-0.18279198077362258
102.21,0.25343995351656856,-0.25343995351656856
102.211,0.26759511578939976,-0.26759511578939976
102.212,0.24550388724478267,-0.24550388724478267
102.213,0.21400424419516928,-0.21400424419516928
102.214,0.1961048036738593,-0.1961048036738593
102.215,0.202914388705847,-0.202914388705847
102.216,0.23057583002941828,-0.23057583002941828
102.217,0.2629839661630041,-0.2629839661630041
102.218,0.2789962666667889,-0.2789962666667889
102.219,0.261306866033469,-0.261306866033469
102.22,0.20367500360414992,-0.20367500360414992
102.221,0.1139127280405321,-0.1139127280405321
102.222,0.011652727984345135,-0.011652727984345135
102.223,0.07816973177491704,0.07816973177491704
102.224,0.13367143411064686,0.13367143411064686
102.225,0.1431787065168466,0.1431787065168466
102.226,0.10868398089037434,0.10868398089037434
102.227,0.04451662221869279,0.04451662221869279
102.228,0.028091204138835035,-0.028091204138835035
102.229,0.08840621098940415,-0.08840621098940415
102.23,0.12280419415046495,-0.12280419415046495
102.231,0.1282491989442902,-0.1282491989442902
102.232,0.11157840335089242,-0.11157840335089242
102.233,0.08516309351686313,-0.08516309351686313
102.234,0.06088270073815083,-0.06088270073815083
102.235,0.04493417420561063,-0.04493417420561063
102.236,0.03559052022182363,-0.03559052022182363
102.237,0.02478723929400173,-0.02478723929400173
102.238,0.0028356688881547853,-0.0028356688881547853
102.239,0.035747689211389044,0.035747689211389044
102.24,0.0878324812104938,0.0878324812104938
102.241,0.14074573638454013,0.14074573638454013
102.242,0.17556452934276479,0.17556452934276479
102.243,0.17370085320104112,0.17370085320104112
102.244,0.12445939214401736,0.12445939214401736
102.245,0.030683384023565408,0.030683384023565408
102.246,0.08988843364568144,-0.08988843364568144
102.247,0.20849554240404067,-0.20849554240404067
102.248,0.29353449251228014,-0.29353449251228014
102.249,0.3204886447544987,-0.3204886447544987
102.25,0.2802685998491943,-0.2802685998491943
102.251,0.18299611613138944,-0.18299611613138944
102.252,0.0557038928972724,-0.0557038928972724
102.253,0.06554643053938913,0.06554643053938913
102.254,0.1467023720831826,0.1467023720831826
102.255,0.1663464992160899,0.1663464992160899
102.256,0.12239283217641317,0.12239283217641317
102.257,0.032584846245710564,0.032584846245710564
102.258,0.07143860667702573,-0.07143860667702573
102.259,0.15460585040489083,-0.15460585040489083
102.26,0.18998390614983784,-0.18998390614983784
102.261,0.1676583071153347,-0.1676583071153347
102.262,0.09800218350475431,-0.09800218350475431
102.263,0.008261562037580217,-0.008261562037580217
102.264,0.06642584745480362,0.06642584745480362
102.265,0.09465438861269537,0.09465438861269537
102.266,0.05925910014556135,0.05925910014556135
102.267,0.036652517661391104,-0.036652517661391104
102.268,0.1700363969417854,-0.1700363969417854
102.269,0.3044625410271681,-0.3044625410271681
102.27,0.4007846184096826,-0.4007846184096826
102.271,0.4286076236569272,-0.4286076236569272
102.272,0.37508618215365586,-0.37508618215365586
102.273,0.24851703911451173,-0.24851703911451173
102.274,0.07585378300227763,-0.07585378300227763
102.275,0.10488641389727626,0.10488641389727626
102.276,0.254912094520253,0.254912094520253
102.277,0.34460014272499095,0.34460014272499095
102.278,0.3603585504592741,0.3603585504592741
102.279,0.3067552746647608,0.3067552746647608
102.28,0.20371893731944923,0.20371893731944923
102.281,0.07999372709951968,0.07999372709951968
102.282,0.035062940025973766,-0.035062940025973766
102.283,0.1190172010735745,-0.1190172010735745
102.284,0.1613250388501818,-0.1613250388501818
102.285,0.1646912149644143,-0.1646912149644143
102.286,0.14280818057281408,-0.14280818057281408
102.287,0.11535878335740535,-0.11535878335740535
102.288,0.10173955096353549,-0.10173955096353549
102.289,0.11513539797756367,-0.11513539797756367
102.29,0.15838325874010795,-0.15838325874010795
102.291,0.22259779119092094,-0.22259779119092094
102.292,0.2889129214325328,-0.2889129214325328
102.293,0.33302579866214377,-0.33302579866214377
102.294,0.33160847596703713,-0.33160847596703713
102.295,0.26916857468051636,-0.26916857468051636
102.296,0.14369104439127833,-0.14369104439127833
102.297,0.03052609194958822,0.03052609194958822
102.298,0.22395856528533864,0.22395856528533864
102.299,0.39714199411239326,0.39714199411239326
102.3,0.5093608911500147,0.5093608911500147
102.301,0.528888798030849,0.528888798030849
102.302,0.44220697816313415,0.44220697816313415
102.303,0.2595310195367464,0.2595310195367464
102.304,0.01464910107735684,0.01464910107735684
102.305,0.241551336353783,-0.241551336353783
102.306,0.45273802987103473,-0.45273802987103473
102.307,0.5712007494044238,-0.5712007494044238
102.308,0.5705721289937595,-0.5705721289937595
102.309,0.45349490061185826,-0.45349490061185826
102.31,0.2517179378694596,-0.2517179378694596
102.311,0.018168313152109872,-0.018168313152109872
102.312,0.18709133750463613,0.18709133750463613
102.313,0.3131784560443349,0.3131784560443349
102.314,0.33228009146682447,0.33228009146682447
102.315,0.246975030436134,0.246975030436134
102.316,0.08871955358217298,0.08871955358217298
102.317,0.09212211634941903,-0.09212211634941903
102.318,0.24171216619811553,-0.24171216619811553
102.319,0.318919646502938,-0.318919646502938
102.32,0.30726417277152174,-0.30726417277152174
102.321,0.21895956479838463,-0.21895956479838463
102.322,0.08989800280866844,-0.08989800280866844
102.323,0.032696142160289376,0.032696142160289376
102.324,0.10588158806310477,0.10588158806310477
102.325,0.10481669483730927,0.10481669483730927
102.326,0.030362744546376552,0.030362744546376552
102.327,0.09184597188242571,-0.09184597188242571
102.328,0.22035194243578593,-0.22035194243578593
102.329,0.3117099389747625,-0.3117099389747625
102.33,0.3345415476899728,-0.3345415476899728
102.331,0.27919897746684275,-0.27919897746684275
102.332,0.16002999750943891,-0.16002999750943891
102.333,0.009809061876587255,-0.009809061876587255
102.334,0.13145520957164658,0.13145520957164658
102.335,0.22932010812642312,0.22932010812642312
102.336,0.26493796492856303,0.26493796492856303
102.337,0.23910559497262462,0.23910559497262462
102.338,0.16937488505880194,0.16937488505880194
102.339,0.08176793144709049,0.08176793144709049
102.34,0.0004936922361120644,0.0004936922361120644
102.341,0.060385315899717185,-0.060385315899717185
102.342,0.10030914998073648,-0.10030914998073648
102.343,0.1295978425860762,-0.1295978425860762
102.344,0.1622078444179168,-0.1622078444179168
102.345,0.20703043571981083,-0.20703043571981083
102.346,0.2614673807349267,-0.2614673807349267
102.347,0.31013988296489725,-0.31013988296489725
102.348,0.32957979635061974,-0.32957979635061974
102.349,0.29736662100256583,-0.29736662100256583
102.35,0.20231128977546364,-0.20231128977546364
102.351,0.051668397209340244,-0.051668397209340244
102.352,0.12774800991064583,0.12774800991064583
102.353,0.29555182433843985,0.29555182433843985
102.354,0.4092890237419222,0.4092890237419222
102.355,0.43774796756077494,0.43774796756077494
102.356,0.3715060750413943,0.3715060750413943
102.357,0.22690303479397134,0.22690303479397134
102.358,0.04178413723086605,0.04178413723086605
102.359,0.1358303984466256,-0.1358303984466256
102.36,0.2625109422917459,-0.2625109422917459
102.361,0.31271518203780113,-0.31271518203780113
102.362,0.28613780564997493,-0.28613780564997493
102.363,0.20662782312200645,-0.20662782312200645
102.364,0.11306903831384318,-0.11306903831384318
102.365,0.045386345446783216,-0.045386345446783216
102.366,0.0305230819475254,-0.0305230819475254
102.367,0.07323658378434272,-0.07323658378434272
102.368,0.15487248555263233,-0.15487248555263233
102.369,0.24048905066184134,-0.24048905066184134
102.37,0.29178568416597306,-0.29178568416597306
102.371,0.28126551134785194,-0.28126551134785194
102.372,0.20263771548949006,-0.20263771548949006
102.373,0.07378637132840216,-0.07378637132840216
102.374,0.06876783177340795,0.06876783177340795
102.375,0.18202053770371762,0.18202053770371762
102.376,0.23106193725318191,0.23106193725318191
102.377,0.20105788572634187,0.20105788572634187
102.378,0.10252059495659616,0.10252059495659616
102.379,0.031924595743018314,-0.031924595743018314
102.38,0.15815688846196663,-0.15815688846196663
102.381,0.23494879184920525,-0.23494879184920525
102.382,0.23728879767740274,-0.23728879767740274
102.383,0.1642429008604489,-0.1642429008604489
102.384,0.038880102312771725,-0.038880102312771725
102.385,0.09950799944711264,0.09950799944711264
102.386,0.20811878198057454,0.20811878198057454
102.387,0.25398344007321305,0.25398344007321305
102.388,0.22362564955824338,0.22362564955824338
102.389,0.1261392410957871,0.1261392410957871
102.39,0.010891227604172493,-0.010891227604172493
102.391,0.15082650288801602,-0.15082650288801602
102.392,0.25934525561379407,-0.25934525561379407
102.393,0.3139789749957522,-0.3139789749957522
102.394,0.30898240263454524,-0.30898240263454524
102.395,0.25453880097501835,-0.25453880097501835
102.396,0.1712967117618064,-0.1712967117618064
102.397,0.0826837199486753,-0.0826837199486753
102.398,0.007873125266720349,-0.007873125266720349
102.399,0.04237091953752925,0.04237091953752925
102.4,0.06613117048354922,0.06613117048354922
102.401,0.0677461002115638,0.0677461002115638
102.402,0.05393786388461952,0.05393786388461952
102.403,0.03062010195784093,0.03062010195784093
102.404,0.00169587991075959,0.00169587991075959
102.405,0.03001703846307313,-0.03001703846307313
102.406,0.060746723894966714,-0.060746723894966714
102.407,0.08423335652278074,-0.08423335652278074
102.408,0.09210572553457896,-0.09210572553457896
102.409,0.07661606426069023,-0.07661606426069023
102.41,0.034896385393086815,-0.034896385393086815
102.411,0.027136589422816382,0.027136589422816382
102.412,0.09338388120114272,0.09338388120114272
102.413,0.14014612726704367,0.14014612726704367
102.414,0.14268954834430647,0.14268954834430647
102.415,0.0840821383733894,0.0840821383733894
102.416,0.03669482636134913,-0.03669482636134913
102.417,0.20061948094580218,-0.20061948094580218
102.418,0.37076414655168866,-0.37076414655168866
102.419,0.5009792485350988,-0.5009792485350988
102.42,0.5490621942439577,-0.5490621942439577
102.421,0.4904793652634293,-0.4904793652634293
102.422,0.3280607598800088,-0.3280607598800088
102.423,0.09400256459648215,-0.09400256459648215
102.424,0.1572050679821766,0.1572050679821766
102.425,0.36336316315784845,0.36336316315784845
102.426,0.47247813148995066,0.47247813148995066
102.427,0.4584517330649134,0.4584517330649134
102.428,0.32941865484886046,0.32941865484886046
102.429,0.12576874082516576,0.12576874082516576
102.43,0.09186119967625783,-0.09186119967625783
102.431,0.26106501814099126,-0.26106501814099126
102.432,0.33684982070452973,-0.33684982070452973
102.433,0.30539799465203576,-0.30539799465203576
102.434,0.1879311817544661,-0.1879311817544661
102.435,0.03334914746312123,-0.03334914746312123
102.436,0.09805129517760935,0.09805129517760935
102.437,0.15455488498872927,0.15455488498872927
102.438,0.11025027620789851,0.11025027620789851
102.439,0.026086401429312622,-0.026086401429312622
102.44,0.21333594511804044,-0.21333594511804044
102.441,0.3908664651609256,-0.3908664651609256
102.442,0.4977311335170399,-0.4977311335170399
102.443,0.492093666146488,-0.492093666146488
102.444,0.36472121493914433,-0.36472121493914433
102.445,0.142343580384244,-0.142343580384244
102.446,0.1200518356422613,0.1200518356422613
102.447,0.3554219927219948,0.3554219927219948
102.448,0.5042065676026106,0.5042065676026106
102.449,0.531159892807876,0.531159892807876
102.45,0.4344867528836742,0.4344867528836742
102.451,0.24486928673202324,0.24486928673202324
102.452,0.015184717566385508,0.015184717566385508
102.453,0.19549208485134828,-0.19549208485134828
102.454,0.3384965132313308,-0.3384965132313308
102.455,0.3878631205117622,-0.3878631205117622
102.456,0.34505949523118806,-0.34505949523118806
102.457,0.2354923233540519,-0.2354923233540519
102.458,0.09866132091719038,-0.09866132091719038
102.459,0.02444099692779833,0.02444099692779833
102.46,0.1026638507592077,0.1026638507592077
102.461,0.12163081267377618,0.12163081267377618
102.462,0.08489694035042228,0.08489694035042228
102.463,0.009922671220318868,0.009922671220318868
102.464,0.07904596304725542,-0.07904596304725542
102.465,0.15850885786353952,-0.15850885786353952
102.466,0.21135861913196496,-0.21135861913196496
102.467,0.22943105149722132,-0.22943105149722132
102.468,0.21303995453628644,-0.21303995453628644
102.469,0.16857331063287728,-0.16857331063287728
102.47,0.10560382117921219,-0.10560382117921219
102.471,0.03468004894418164,-0.03468004894418164
102.472,0.033756283096884276,0.033756283096884276
102.473,0.0896539559341829,0.0896539559341829
102.474,0.12362267656715464,0.12362267656715464
102.475,0.1279233032140623,0.1279233032140623
102.476,0.09839336758076,0.09839336758076
102.477,0.03680315333700124,0.03680315333700124
102.478,0.047425505992734984,-0.047425505992734984
102.479,0.1373111423381279,-0.1373111423381279
102.48,0.21092794277470484,-0.21092794277470484
102.481,0.24636589861468416,-0.24636589861468416
102.482,0.22786938177479965,-0.22786938177479965
102.483,0.15130507067335774,-0.15130507067335774
102.484,0.02704238367542955,-0.02704238367542955
102.485,0.12103482675245392,0.12103482675245392
102.486,0.26050569105967547,0.26050569105967547
102.487,0.3582006114071583,0.3582006114071583
102.488,0.38864357824009943,0.38864357824009943
102.489,0.3406917560258089,0.3406917560258089
102.49,0.22041879198390557,0.22041879198390557
102.491,0.04943521054529354,0.04943521054529354
102.492,0.14075821375355557,-0.14075821375355557
102.493,0.3166069928505242,-0.3166069928505242
102.494,0.4501859122890718,-0.4501859122890718
102.495,0.5246032667602045,-0.5246032667602045
102.496,0.5358931918462092,-0.5358931918462092
102.497,0.4913846770780509,-0.4913846770780509
102.498,0.40564206777214873,-0.40564206777214873
102.499,0.29568267675447135,-0.29568267675447135
102.5,0.17711553545580594,-0.17711553545580594
102.501,0.06219469490777885,-0.06219469490777885
102.502,0.04015821515036122,0.04015821515036122
102.503,0.1231404767289277,0.1231404767289277
102.504,0.18084001095589675,0.18084001095589675
102.505,0.20799425874576105,0.20799425874576105
102.506,0.2010966307170905,0.2010966307170905
102.507,0.16040135713691694,0.16040135713691694
102.508,0.09176788416905879,0.09176788416905879
102.509,0.007160019740231283,0.007160019740231283
102.51,0.07694694816665171,-0.07694694816665171
102.511,0.14315705532823741,-0.14315705532823741
102.512,0.17774654166851134,-0.17774654166851134
102.513,0.17468716903145842,-0.17468716903145842
102.514,0.13755125946886337,-0.13755125946886337
102.515,0.0784118044051384,-0.0784118044051384
102.516,0.013931378885172263,-0.013931378885172263
102.517,0.04007441844243664,0.04007441844243664
102.518,0.073648499850969,0.073648499850969
102.519,0.08538717517049488,0.08538717517049488
102.52,0.08173637777988185,0.08173637777988185
102.521,0.07309798418313229,0.07309798418313229
102.522,0.068248715042863,0.068248715042863
102.523,0.0693587795302919,0.0693587795302919
102.524,0.06982526420419477,0.06982526420419477
102.525,0.05616879087091964,0.05616879087091964
102.526,0.013689053456339861,0.013689053456339861
102.527,0.06600655049952764,-0.06600655049952764
102.528,0.17848523186572673,-0.17848523186572673
102.529,0.30384464820539636,-0.30384464820539636
102.53,0.40967890031902054,-0.40967890031902054
102.531,0.4594837448742263,-0.4594837448742263
102.532,0.4242792550086144,-0.4242792550086144
102.533,0.2937740585339492,-0.2937740585339492
102.534,0.08311610371048594,-0.08311610371048594
102.535,0.16763225666679138,0.16763225666679138
102.536,0.40196995506238875,0.40196995506238875
102.537,0.5614586273961226,0.5614586273961226
102.538,0.6021782157996611,0.6021782157996611
102.539,0.5081309736906978,0.5081309736906978
102.54,0.2972486339258602,0.2972486339258602
102.541,0.0177715838776229,0.0177715838776229
102.542,0.2643002755344419,-0.2643002755344419
102.543,0.48317058904375043,-0.48317058904375043
102.544,0.5913331648001074,-0.5913331648001074
102.545,0.5723568444829883,-0.5723568444829883
102.546,0.44452337552726695,-0.44452337552726695
102.547,0.25428080547841714,-0.25428080547841714
102.548,0.06161712445751044,-0.06161712445751044
102.549,0.07807110283731622,0.07807110283731622
102.55,0.1300306878071582,0.1300306878071582
102.551,0.08930102310340216,0.08930102310340216
102.552,0.019597525024716123,-0.019597525024716123
102.553,0.15197532505683753,-0.15197532505683753
102.554,0.2580341602275632,-0.2580341602275632
102.555,0.29875083260563295,-0.29875083260563295
102.556,0.25760166796169237,-0.25760166796169237
102.557,0.14467281142660804,-0.14467281142660804
102.558,0.00773778628147892,0.00773778628147892
102.559,0.1561911291287783,0.1561911291287783
102.56,0.2600036208767531,0.2600036208767531
102.561,0.29344437631788844,0.29344437631788844
102.562,0.2525170040739957,0.2525170040739957
102.563,0.15456313052306814,0.15456313052306814
102.564,0.03132505860063928,0.03132505860063928
102.565,0.081856008055057,-0.081856008055057
102.566,0.15699433898209014,-0.15699433898209014
102.567,0.1810957355137588,-0.1810957355137588
102.568,0.15835468276104148,-0.15835468276104148
102.569,0.10672742771178911,-0.10672742771178911
102.57,0.05053310543361145,-0.05053310543361145
102.571,0.011872570509923297,-0.011872570509923297
102.572,0.003770301366130102,-0.003770301366130102
102.573,0.027085862845467434,-0.027085862845467434
102.574,0.07178158798191814,-0.07178158798191814
102.575,0.12161999477951502,-0.12161999477951502
102.576,0.16031757774814415,-0.16031757774814415
102.577,0.17691484077092112,-0.17691484077092112
102.578,0.16865119506651083,-0.16865119506651083
102.579,0.14069399183077247,-0.14069399183077247
102.58,0.10323747491730906,-0.10323747491730906
102.581,0.0673369417198777,-0.0673369417198777
102.582,0.04110749364306887,-0.04110749364306887
102.583,0.027564937625799923,-0.027564937625799923
102.584,0.024615978419798346,-0.024615978419798346
102.585,0.02684778087618278,-0.02684778087618278
102.586,0.028154073399235702,-0.028154073399235702
102.587,0.024071085825818517,-0.024071085825818517
102.588,0.012993340051578928,-0.012993340051578928
102.589,0.003973309287806481,0.003973309287806481
102.59,0.02415603849999437,0.02415603849999437
102.591,0.044717932780919734,0.044717932780919734
102.592,0.06357907850698763,0.06357907850698763
102.593,0.0794573902307869,0.0794573902307869
102.594,0.0911407721749724,0.0911407721749724
102.595,0.09653902094211264,0.09653902094211264
102.596,0.09222374888475282,0.09222374888475282
102.597,0.07396814874315938,0.07396814874315938
102.598,0.03832408697450207,0.03832408697450207
102.599,0.015274120955282355,-0.015274120955282355
102.6,0.08276671359973542,-0.08276671359973542
102.601,0.1549955992627463,-0.1549955992627463
102.602,0.2190348369440046,-0.2190348369440046
102.603,0.261204799236868,-0.261204799236868
102.604,0.2709634954198047,-0.2709634954198047
102.605,0.24442026812418727,-0.24442026812418727
102.606,0.18620256837065918,-0.18620256837065918
102.607,0.10886393257926341,-0.10886393257926341
102.608,0.029810690334147183,-0.029810690334147183
102.609,0.03342500299622575,0.03342500299622575
102.61,0.06813238948207179,0.06813238948207179
102.611,0.07002056034163462,0.07002056034163462
102.612,0.04429583221732902,0.04429583221732902
102.613,0.0038477353462855746,0.0038477353462855746
102.614,0.03489161542058217,-0.03489161542058217
102.615,0.05710185734481399,-0.05710185734481399
102.616,0.054121768419210126,-0.054121768419210126
102.617,0.025999064337671074,-0.025999064337671074
102.618,0.01867097478104318,0.01867097478104318
102.619,0.06544993427098156,0.06544993427098156
102.62,0.09835336287173768,0.09835336287173768
102.621,0.10436331665851428,0.10436331665851428
102.622,0.07682724171889621,0.07682724171889621
102.623,0.016884602341505905,0.016884602341505905
102.624,0.06724040189548997,-0.06724040189548997
102.625,0.16257803915592695,-0.16257803915592695
102.626,0.2544763622639006,-0.2544763622639006
102.627,0.3294421238179712,-0.3294421238179712
102.628,0.37710338710295543,-0.37710338710295543
102.629,0.3910994842114275,-0.3910994842114275
102.63,0.3691292353607091,-0.3691292353607091
102.631,0.3126080807796635,-0.3126080807796635
102.632,0.22633450889293627,-0.22633450889293627
102.633,0.11830664304508542,-0.11830664304508542
102.634,0.0004856956119922984,0.0004856956119922984
102.635,0.11666518707536433,0.11666518707536433
102.636,0.2158013014718938,0.2158013014718938
102.637,0.28453112908760536,0.28453112908760536
102.638,0.31311936420289754,0.31311936420289754
102.639,0.2977643070102556,0.2977643070102556
102.64,0.2418460529278028,0.2418460529278028
102.641,0.15552705471162143,0.15552705471162143
102.642,0.05360979086986206,0.05360979086986206
102.643,0.04783884303480246,-0.04783884303480246
102.644,0.13510613027017848,-0.13510613027017848
102.645,0.19955443356354652,-0.19955443356354652
102.646,0.23857375059777042,-0.23857375059777042
102.647,0.2545139841167491,-0.2545139841167491
102.648,0.25209540633673033,-0.25209540633673033
102.649,0.23539209279900908,-0.23539209279900908
102.65,0.20567959949684333,-0.20567959949684333
102.651,0.16112962509525852,-0.16112962509525852
102.652,0.09860737271868303,-0.09860737271868303
102.653,0.01693940586352982,-0.01693940586352982
102.654,0.07968922691905322,0.07968922691905322
102.655,0.1797844301862661,0.1797844301862661
102.656,0.26524118191901347,0.26524118191901347
102.657,0.3150006973805002,0.3150006973805002
102.658,0.310862489472022,0.310862489472022
102.659,0.24371218547731255,0.24371218547731255
102.66,0.1180356363495767,0.1180356363495767
102.661,0.04706611155532525,-0.04706611155532525
102.662,0.22113446849616625,-0.22113446849616625
102.663,0.36929009543915425,-0.36929009543915425
102.664,0.4609921599602933,-0.4609921599602933
102.665,0.47805037815253304,-0.47805037815253304
102.666,0.41943102632525997,-0.41943102632525997
102.667,0.30132940171711076,-0.30132940171711076
102.668,0.15244394370866576,-0.15244394370866576
102.669,0.005900037968147975,-0.005900037968147975
102.67,0.1096751613203093,0.1096751613203093
102.671,0.17719168946033448,0.17719168946033448
102.672,0.19418202713893606,0.19418202713893606
102.673,0.17120694749145327,0.17120694749145327
102.674,0.1264120668392188,0.1264120668392188
102.675,0.07830250896607271,0.07830250896607271
102.676,0.03930310717382435,0.03930310717382435
102.677,0.012275835575362715,0.012275835575362715
102.678,0.008969253156499768,-0.008969253156499768
102.679,0.035595303596374306,-0.035595303596374306
102.68,0.07778488666434091,-0.07778488666434091
102.681,0.1392321412433054,-0.1392321412433054
102.682,0.21418200455060865,-0.21418200455060865
102.683,0.28814670849086643,-0.28814670849086643
102.684,0.3420710589826834,-0.3420710589826834
102.685,0.35846729737013305,-0.35846729737013305
102.686,0.32734463677673586,-0.32734463677673586
102.687,0.24985591151419984,-0.24985591151419984
102.688,0.1384208877313765,-0.1384208877313765
102.689,0.013343001463247628,-0.013343001463247628
102.69,0.10285067243802115,0.10285067243802115
102.691,0.19138385154105997,0.19138385154105997
102.692,0.2415543591099374,0.2415543591099374
102.693,0.2521412260039395,0.2521412260039395
102.694,0.22974975180203128,0.22974975180203128
102.695,0.18505513912805127,0.18505513912805127
102.696,0.12858538690630072,0.12858538690630072
102.697,0.06769799317156466,0.06769799317156466
102.698,0.005774237207462951,0.005774237207462951
102.699,0.056350466216741224,-0.056350466216741224
102.7,0.11767042080472356,-0.11767042080472356
102.701,0.17449954799268919,-0.17449954799268919
102.702,0.21955582407570717,-0.21955582407570717
102.703,0.24332150479167358,-0.24332150479167358
102.704,0.2373342566779516,-0.2373342566779516
102.705,0.19813824736780183,-0.19813824736780183
102.706,0.13018724300192352,-0.13018724300192352
102.707,0.04624784845618646,-0.04624784845618646
102.708,0.0352667456603033,0.0352667456603033
102.709,0.09541407193458085,0.09541407193458085
102.71,0.12063524174229134,0.12063524174229134
102.711,0.1073417624707842,0.1073417624707842
102.712,0.06337792187606239,0.06337792187606239
102.713,0.005596434174317322,0.005596434174317322
102.714,0.045820294142670526,-0.045820294142670526
102.715,0.07441666028686589,-0.07441666028686589
102.716,0.073404738199072,-0.073404738199072
102.717,0.048270718052809025,-0.048270718052809025
102.718,0.014936787165345633,-0.014936787165345633
102.719,0.0060587911242324655,0.0060587911242324655
102.72,0.0025789202235652064,-0.0025789202235652064
102.721,0.047784976844444715,-0.047784976844444715
102.722,0.12240992298589903,-0.12240992298589903
102.723,0.20643804234810803,-0.20643804234810803
102.724,0.2729952273371361,-0.2729952273371361
102.725,0.2972728948422414,-0.2972728948422414
102.726,0.26537286123338455,-0.26537286123338455
102.727,0.17997453181792034,-0.17997453181792034
102.728,0.06070832316160302,-0.06070832316160302
102.729,0.06112750470548267,0.06112750470548267
102.73,0.15194040108755336,0.15194040108755336
102.731,0.18630522876520805,0.18630522876520805
102.732,0.15507637890323833,0.15507637890323833
102.733,0.06844290279449972,0.06844290279449972
102.734,0.047123148592902786,-0.047123148592902786
102.735,0.1570523325259734,-0.1570523325259734
102.736,0.2293276235943703,-0.2293276235943703
102.737,0.24413619214128168,-0.24413619214128168
102.738,0.19943778983314986,-0.19943778983314986
102.739,0.11077076530910712,-0.11077076530910712
102.74,0.0055593908877249465,-0.0055593908877249465
102.741,0.08600651134526438,0.08600651134526438
102.742,0.14039066390974808,0.14039066390974808
102.743,0.14733365553187894,0.14733365553187894
102.744,0.1116701888826317,0.1116701888826317
102.745,0.05005755946858792,0.05005755946858792
102.746,0.015915978080302318,-0.015915978080302318
102.747,0.06760958553011487,-0.06760958553011487
102.748,0.09536970932687516,-0.09536970932687516
102.749,0.10071836227120146,-0.10071836227120146
102.75,0.09416749975764127,-0.09416749975764127
102.751,0.08974988133505646,-0.08974988133505646
102.752,0.09850875840324191,-0.09850875840324191
102.753,0.12348063981364743,-0.12348063981364743
102.754,0.15805989096007333,-0.15805989096007333
102.755,0.18831472347932654,-0.18831472347932654
102.756,0.1983316021791406,-0.1983316021791406
102.757,0.17654883220216355,-0.17654883220216355
102.758,0.12069823827607695,-0.12069823827607695
102.759,0.039512298992877004,-0.039512298992877004
102.76,0.04944463109914854,0.04944463109914854
102.761,0.1250517759002061,0.1250517759002061
102.762,0.1691431160195851,0.1691431160195851
102.763,0.17198276827952275,0.17198276827952275
102.764,0.13485997532423255,0.13485997532423255
102.765,0.0690348238685583,0.0690348238685583
102.766,0.00841993199528246,-0.00841993199528246
102.767,0.08026789156888758,-0.08026789156888758
102.768,0.13419470277681056,-0.13419470277681056
102.769,0.16559986341035615,-0.16559986341035615
102.77,0.17730483300695832,-0.17730483300695832
102.771,0.17657512336851566,-0.17657512336851566
102.772,0.17083837724848694,-0.17083837724848694
102.773,0.16390172590497876,-0.16390172590497876
102.774,0.15419121774871236,-0.15419121774871236
102.775,0.13568189138933062,-0.13568189138933062
102.776,0.10109885751925751,-0.10109885751925751
102.777,0.04606619552566327,-0.04606619552566327
102.778,0.027499804158472863,0.027499804158472863
102.779,0.11017984646303458,0.11017984646303458
102.78,0.18663275362115916,0.18663275362115916
102.781,0.23953633614134429,0.23953633614134429
102.782,0.2545825817848941,0.2545825817848941
102.783,0.22483669803208328,0.22483669803208328
102.784,0.15300209292342237,0.15300209292342237
102.785,0.05087970792069996,0.05087970792069996
102.786,0.06372021067006417,-0.06372021067006417
102.787,0.171524291431306,-0.171524291431306
102.788,0.2563110615314629,-0.2563110615314629
102.789,0.3080563784754814,-0.3080563784754814
102.79,0.32397710233233057,-0.32397710233233057
102.791,0.30754173167922905,-0.30754173167922905
102.792,0.26619399093808815,-0.26619399093808815
102.793,0.20884090154544688,-0.20884090154544688
102.794,0.1440077203526955,-0.1440077203526955
102.795,0.0790659628402266,-0.0790659628402266
102.796,0.02034325627359157,-0.02034325627359157
102.797,0.02649930155408531,0.02649930155408531
102.798,0.05649808650677657,0.05649808650677657
102.799,0.06618324193927405,0.06618324193927405
102.8,0.05495633099553032,0.05495633099553032
102.801,0.02636881385831069,0.02636881385831069
102.802,0.011572165863954709,-0.011572165863954709
102.803,0.04769945687702293,-0.04769945687702293
102.804,0.07058832791451453,-0.07058832791451453
102.805,0.07230919378206246,-0.07230919378206246
102.806,0.05170542237504028,-0.05170542237504028
102.807,0.015781076330757315,-0.015781076330757315
102.808,0.021714738856423832,0.021714738856423832
102.809,0.044452182264571594,0.044452182264571594
102.81,0.03928056136922864,0.03928056136922864
102.811,0.0016317814859370117,0.0016317814859370117
102.812,0.06152576857456438,-0.06152576857456438
102.813,0.1326229479282498,-0.1326229479282498
102.814,0.18846919034551912,-0.18846919034551912
102.815,0.20793410432003412,-0.20793410432003412
102.816,0.17983177234058967,-0.17983177234058967
102.817,0.10815715163638917,-0.10815715163638917
102.818,0.01248924127596962,-0.01248924127596962
102.819,0.07709487768267187,0.07709487768267187
102.82,0.12934217877364662,0.12934217877364662
102.821,0.12250356955838404,0.12250356955838404
102.822,0.05276062330813591,0.05276062330813591
102.823,0.06272098476830379,-0.06272098476830379
102.824,0.18960487230767387,-0.18960487230767387
102.825,0.28629422587526443,-0.28629422587526443
102.826,0.3170242021747526,-0.3170242021747526
102.827,0.2639521185405945,-0.2639521185405945
102.828,0.13415580319596443,-0.13415580319596443
102.829,0.04105445646669659,0.04105445646669659
102.83,0.21465908484934326,0.21465908484934326
102.831,0.3378371477435236,0.3378371477435236
102.832,0.3749365943224945,0.3749365943224945
102.833,0.3146990278547628,0.3146990278547628
102.834,0.1740367351078016,0.1740367351078016
102.835,0.00697807264690109,-0.00697807264690109
102.836,0.17740258335562864,-0.17740258335562864
102.837,0.2910948417773803,-0.2910948417773803
102.838,0.3207515429213482,-0.3207515429213482
102.839,0.2658293592502248,-0.2658293592502248
102.84,0.15188003728357446,-0.15188003728357446
102.841,0.021648871095734656,-0.021648871095734656
102.842,0.0790344799989362,0.0790344799989362
102.843,0.11590005305808782,0.11590005305808782
102.844,0.07667423060329326,0.07667423060329326
102.845,0.025928733903553214,-0.025928733903553214
102.846,0.15935367684445179,-0.15935367684445179
102.847,0.2824783489638487,-0.2824783489638487
102.848,0.35905404430974397,-0.35905404430974397
102.849,0.3688000952709658,-0.3688000952709658
102.85,0.312627623703326,-0.312627623703326
102.851,0.21060967993079915,-0.21060967993079915
102.852,0.09383548310909573,-0.09383548310909573
102.853,0.006696407396677984,0.006696407396677984
102.854,0.07015656835620976,0.07015656835620976
102.855,0.09153660468090408,0.09153660468090408
102.856,0.08122736092736127,0.08122736092736127
102.857,0.059121366522866925,0.059121366522866925
102.858,0.04575849063741044,0.04575849063741044
102.859,0.05395770901991748,0.05395770901991748
102.86,0.08401311708855808,0.08401311708855808
102.861,0.12406253393375621,0.12406253393375621
102.862,0.15524064405997162,0.15524064405997162
102.863,0.1594570668562607,0.1594570668562607
102.864,0.12673817718356428,0.12673817718356428
102.865,0.059344919261044904,0.059344919261044904
102.866,0.028811536752379574,-0.028811536752379574
102.867,0.11710904777416453,-0.11710904777416453
102.868,0.1855201076838282,-0.1855201076838282
102.869,0.2214525023188959,-0.2214525023188959
102.87,0.22355006076498563,-0.22355006076498563
102.871,0.20111327279674673,-0.20111327279674673
102.872,0.16952259798556346,-0.16952259798556346
102.873,0.14358979085687928,-0.14358979085687928
102.874,0.13153266679268116,-0.13153266679268116
102.875,0.13197635730659818,-0.13197635730659818
102.876,0.13514989928898336,-0.13514989928898336
102.877,0.1277548291939461,-0.1277548291939461
102.878,0.09949362140753415,-0.09949362140753415
102.879,0.048545413350810196,-0.048545413350810196
102.88,0.016352157501457798,0.016352157501457798
102.881,0.07824305791864461,0.07824305791864461
102.882,0.1179860930765162,0.1179860930765162
102.883,0.12173119250604425,0.12173119250604425
102.884,0.08690526931567932,0.08690526931567932
102.885,0.02422082589195984,0.02422082589195984
102.886,0.04533953555699344,-0.04533953555699344
102.887,0.09769960158987212,-0.09769960158987212
102.888,0.11450392910403462,-0.11450392910403462
102.889,0.0902842731711555,-0.0902842731711555
102.89,0.03515352365001001,-0.03515352365001001
102.891,0.02823899856510903,0.02823899856510903
102.892,0.07264805202948121,0.07264805202948121
102.893,0.07633968439528371,0.07633968439528371
102.894,0.0316897163490637,0.0316897163490637
102.895,0.051016855358919866,-0.051016855358919866
102.896,0.1462498427907425,-0.1462498427907425
102.897,0.22171239397419062,-0.22171239397419062
102.898,0.24981203112096262,-0.24981203112096262
102.899,0.21807299997840246,-0.21807299997840246
102.9,0.13463878221098213,-0.13463878221098213
102.901,0.02662229922631454,-0.02662229922631454
102.902,0.06845492596543057,0.06845492596543057
102.903,0.11540175549275022,0.11540175549275022
102.904,0.09393812222151854,0.09393812222151854
102.905,0.006667767058346152,0.006667767058346152
102.906,0.12054467136143487,-0.12054467136143487
102.907,0.24621805095702498,-0.24621805095702498
102.908,0.32656240899092226,-0.32656240899092226
102.909,0.3300612970790525,-0.3300612970790525
102.91,0.248392198881914,-0.248392198881914
102.911,0.09990255369077394,-0.09990255369077394
102.912,0.07566026953623495,0.07566026953623495
102.913,0.2295048492407663,0.2295048492407663
102.914,0.3191580083512895,0.3191580083512895
102.915,0.32172074827363306,0.32172074827363306
102.916,0.2406226674013625,0.2406226674013625
102.917,0.10370407431364881,0.10370407431364881
102.918,0.04658458001772947,-0.04658458001772947
102.919,0.1674080918247003,-0.1674080918247003
102.92,0.22928802847179786,-0.22928802847179786
102.921,0.2247154602483563,-0.2247154602483563
102.922,0.1688629729901443,-0.1688629729901443
102.923,0.0924364425097074,-0.0924364425097074
102.924,0.029461949548161614,-0.029461949548161614
102.925,0.004529438752543968,-0.004529438752543968
102.926,0.02411026889903123,-0.02411026889903123
102.927,0.07501010612152259,-0.07501010612152259
102.928,0.1303785174581813,-0.1303785174581813
102.929,0.16092385981655444,-0.16092385981655444
102.93,0.14707410204108107,-0.14707410204108107
102.931,0.08746878533644098,-0.08746878533644098
102.932,0.0004967045449556506,-0.0004967045449556506
102.933,0.08186363328212853,0.08186363328212853
102.934,0.1257977634021512,0.1257977634021512
102.935,0.10877602814709708,0.10877602814709708
102.936,0.02918791378442731,0.02918791378442731
102.937,0.09124268733174046,-0.09124268733174046
102.938,0.2134971016888384,-0.2134971016888384
102.939,0.29398465155826303,-0.29398465155826303
102.94,0.29971737830086187,-0.29971737830086187
102.941,0.22067537965406747,-0.22067537965406747
102.942,0.07489314563650784,-0.07489314563650784
102.943,0.09582783407067685,0.09582783407067685
102.944,0.23851001223984003,0.23851001223984003
102.945,0.30594704097215497,0.30594704097215497
102.946,0.272463736453874,0.272463736453874
102.947,0.14319517057004805,0.14319517057004805
102.948,0.04637020445011497,-0.04637020445011497
102.949,0.24067667428780537,-0.24067667428780537
