Czas,AbsSum,Sum
100.523,0.07617412662669387,-0.07617412662669387
100.524,0.007601562135153839,-0.007601562135153839
100.525,0.05338992820680821,0.05338992820680821
100.526,0.09359149288432778,0.09359149288432778
100.527,0.10538748916540452,0.10538748916540452
100.528,0.08834312256995225,0.08834312256995225
100.529,0.04867506018701273,0.04867506018701273
100.53,0.003070912480612975,-0.003070912480612975
100.531,0.05529041186107908,-0.05529041186107908
100.532,0.09847553123721076,-0.09847553123721076
100.533,0.1273261064326613,-0.1273261064326613
100.534,0.1413101247709535,-0.1413101247709535
100.535,0.14371396128795233,-0.14371396128795233
100.536,0.13970508909253876,-0.13970508909253876
100.537,0.13418914776805346,-0.13418914776805346
100.538,0.1302103914208158,-0.1302103914208158
100.539,0.1283568334269618,-0.1283568334269618
100.54,0.12721306548415867,-0.12721306548415867
100.541,0.12451619006565207,-0.12451619006565207
100.542,0.11845170328361887,-0.11845170328361887
100.543,0.10854246570635029,-0.10854246570635029
100.544,0.09580906178235338,-0.09580906178235338
100.545,0.08221105946733243,-0.08221105946733243
100.546,0.06967946764794841,-0.06967946764794841
100.547,0.059204600001069196,-0.059204600001069196
100.548,0.050397744188611426,-0.050397744188611426
100.549,0.04172761738117248,-0.04172761738117248
100.55,0.031338138933118875,-0.031338138933118875
100.551,0.018103985001531542,-0.018103985001531542
100.552,0.0024743701156959563,-0.0024743701156959563
100.553,0.013266999253033651,0.013266999253033651
100.554,0.025471174684275955,0.025471174684275955
100.555,0.03018431743422556,0.03018431743422556
100.556,0.024433050679303348,0.024433050679303348
100.557,0.007283487510536535,0.007283487510536535
100.558,0.019691194303294468,-0.019691194303294468
100.559,0.05268153204123183,-0.05268153204123183
100.56,0.08653693090991688,-0.08653693090991688
100.561,0.11596949608958262,-0.11596949608958262
100.562,0.1366811903123183,-0.1366811903123183
100.563,0.1461070228009469,-0.1461070228009469
100.564,0.14364740702017498,-0.14364740702017498
100.565,0.1304610936062267,-0.1304610936062267
100.566,0.10902037770115647,-0.10902037770115647
100.567,0.08264321231939664,-0.08264321231939664
100.568,0.05512070377069389,-0.05512070377069389
100.569,0.030414487429129666,-0.030414487429129666
100.57,0.012291972189182987,-0.012291972189182987
100.571,0.0037666521152192045,-0.0037666521152192045
100.572,0.006331666311472306,-0.006331666311472306
100.573,0.019168426754744172,-0.019168426754744172
100.574,0.0386808735505495,-0.0386808735505495
100.575,0.05874515344576536,-0.05874515344576536
100.576,0.07191239188177911,-0.07191239188177911
100.577,0.0714764780879018,-0.0714764780879018
100.578,0.0539228719823327,-0.0539228719823327
100.579,0.02096660249974258,-0.02096660249974258
100.58,0.01967850463191767,0.01967850463191767
100.581,0.055398937069123244,0.055398937069123244
100.582,0.0716999548421442,0.0716999548421442
100.583,0.05651225792051817,0.05651225792051817
100.584,0.0045753352857804686,0.0045753352857804686
100.585,0.07955883708034217,-0.07955883708034217
100.586,0.18112499231192858,-0.18112499231192858
100.587,0.27787387581826795,-0.27787387581826795
100.588,0.34548588673196745,-0.34548588673196745
100.589,0.36428159971426755,-0.36428159971426755
100.59,0.3252626927884107,-0.3252626927884107
100.591,0.23353771981410076,-0.23353771981410076
100.592,0.10785740480867845,-0.10785740480867845
100.593,0.023868693885135572,0.023868693885135572
100.594,0.1319294610946964,0.1319294610946964
100.595,0.19292043230101985,0.19292043230101985
100.596,0.19614313005878148,0.19614313005878148
100.597,0.14628883920904845,0.14628883920904845
100.598,0.06152975321499721,0.06152975321499721
100.599,0.03240331173652,-0.03240331173652
100.6,0.11027143396264649,-0.11027143396264649
100.601,0.1549101518006908,-0.1549101518006908
100.602,0.16188946927852654,-0.16188946927852654
100.603,0.13976492929728168,-0.13976492929728168
100.604,0.10591789580935751,-0.10591789580935751
100.605,0.07948725894839237,-0.07948725894839237
100.606,0.07390184135236622,-0.07390184135236622
100.607,0.09167517749033105,-0.09167517749033105
100.608,0.12335200854068085,-0.12335200854068085
100.609,0.1510483487747425,-0.1510483487747425
100.61,0.15539480751302492,-0.15539480751302492
100.611,0.12344247004251496,-0.12344247004251496
100.612,0.054668923129282065,-0.054668923129282065
100.613,0.03720240658503915,0.03720240658503915
100.614,0.12745844522762928,0.12745844522762928
100.615,0.18786211549888088,0.18786211549888088
100.616,0.19595026150374828,0.19595026150374828
100.617,0.14304995992397296,0.14304995992397296
100.618,0.03821205090557678,0.03821205090557678
100.619,0.09345758691733419,-0.09345758691733419
100.62,0.21775279833279226,-0.21775279833279226
100.621,0.301514592017304,-0.301514592017304
100.622,0.3227625909755213,-0.3227625909755213
100.623,0.2775360059038606,-0.2775360059038606
100.624,0.18119069192801418,-0.18119069192801418
100.625,0.06367775742954629,-0.06367775742954629
100.626,0.03972059730530786,0.03972059730530786
100.627,0.09924787568682247,0.09924787568682247
100.628,0.09966325938451304,0.09966325938451304
100.629,0.04452807554544336,0.04452807554544336
100.63,0.04550385272706914,-0.04550385272706914
100.631,0.1397350748952516,-0.1397350748952516
100.632,0.20744660190048025,-0.20744660190048025
100.633,0.2276169476777279,-0.2276169476777279
100.634,0.19523597833105,-0.19523597833105
100.635,0.12229152765779017,-0.12229152765779017
100.636,0.03328312550672974,-0.03328312550672974
100.637,0.043107812868436346,0.043107812868436346
100.638,0.08337065869716165,0.08337065869716165
100.639,0.07648625364945971,0.07648625364945971
100.64,0.026930006929694716,0.026930006929694716
100.641,0.04744194088881426,-0.04744194088881426
100.642,0.12173260075023451,-0.12173260075023451
100.643,0.1723462274097345,-0.1723462274097345
100.644,0.18455453166880187,-0.18455453166880187
100.645,0.15688085068340862,-0.15688085068340862
100.646,0.10103073011060759,-0.10103073011060759
100.647,0.03758863982282157,-0.03758863982282157
100.648,0.010953967966481848,0.010953967966481848
100.649,0.0275022103252911,0.0275022103252911
100.65,0.005674027572197593,0.005674027572197593
100.651,0.04843555597916438,-0.04843555597916438
100.652,0.11840589540375879,-0.11840589540375879
100.653,0.18268774564150503,-0.18268774564150503
100.654,0.2211024973950949,-0.2211024973950949
100.655,0.22063403796955527,-0.22063403796955527
100.656,0.17887485684997917,-0.17887485684997917
100.657,0.10432085287375725,-0.10432085287375725
100.658,0.013698772657708913,-0.013698772657708913
100.659,0.07266498923090325,0.07266498923090325
100.66,0.13599637993833724,0.13599637993833724
100.661,0.16335143674387864,0.16335143674387864
100.662,0.1500564301069307,0.1500564301069307
100.663,0.09997522569489914,0.09997522569489914
100.664,0.023872427789616513,0.023872427789616513
100.665,0.06345089143745919,-0.06345089143745919
100.666,0.146431974322626,-0.146431974322626
100.667,0.21171224693333734,-0.21171224693333734
100.668,0.2503102979831404,-0.2503102979831404
100.669,0.25877673125681777,-0.25877673125681777
100.67,0.23930695861418672,-0.23930695861418672
100.671,0.19890940880461871,-0.19890940880461871
100.672,0.14779654446766644,-0.14779654446766644
100.673,0.09723219818692563,-0.09723219818692563
100.674,0.057160198949597785,-0.057160198949597785
100.675,0.03404226208140726,-0.03404226208140726
100.676,0.02939256211076202,-0.02939256211076202
100.677,0.039443428479457365,-0.039443428479457365
100.678,0.05616911962581095,-0.05616911962581095
100.679,0.06955114414323249,-0.06955114414323249
100.68,0.07057727143917114,-0.07057727143917114
100.681,0.054161633352940775,-0.054161633352940775
100.682,0.021086491295232324,-0.021086491295232324
100.683,0.021730875360335578,0.021730875360335578
100.684,0.06287750499823863,0.06287750499823863
100.685,0.08962462672117266,0.08962462672117266
100.686,0.09174964593761104,0.09174964593761104
100.687,0.06482738385105602,0.06482738385105602
100.688,0.011919763685448892,0.011919763685448892
100.689,0.056936944765424324,-0.056936944765424324
100.69,0.12735235375045273,-0.12735235375045273
100.691,0.18452450971210754,-0.18452450971210754
100.692,0.21727622743059127,-0.21727622743059127
100.693,0.2209224869691635,-0.2209224869691635
100.694,0.19810192744170463,-0.19810192744170463
100.695,0.15739743110143145,-0.15739743110143145
100.696,0.11031532934768373,-0.11031532934768373
100.697,0.0677235308640377,-0.0677235308640377
100.698,0.03697514502535859,-0.03697514502535859
100.699,0.020623449653247583,-0.020623449653247583
100.7,0.01699056017502565,-0.01699056017502565
100.701,0.02213261619944118,-0.02213261619944118
100.702,0.03222598081020289,-0.03222598081020289
100.703,0.04528379443627073,-0.04528379443627073
100.704,0.06144722177844164,-0.06144722177844164
100.705,0.08175086887855532,-0.08175086887855532
100.706,0.10597600889562087,-0.10597600889562087
100.707,0.13068455477270124,-0.13068455477270124
100.708,0.14855919327528488,-0.14855919327528488
100.709,0.14971806130140042,-0.14971806130140042
100.71,0.12487761101999073,-0.12487761101999073
100.711,0.06940197307932361,-0.06940197307932361
100.712,0.013264355741260614,0.013264355741260614
100.713,0.11028737777544717,0.11028737777544717
100.714,0.20117733089207257,0.20117733089207257
100.715,0.26247535956620727,0.26247535956620727
100.716,0.2742146551495954,0.2742146551495954
100.717,0.22620710442908898,0.22620710442908898
100.718,0.12206154034909633,0.12206154034909633
100.719,0.020580672859428217,-0.020580672859428217
100.72,0.17395982235128404,-0.17395982235128404
100.721,0.3072833663693618,-0.3072833663693618
100.722,0.39491864197543847,-0.39491864197543847
100.723,0.4231896910753662,-0.4231896910753662
100.724,0.39365832828829883,-0.39365832828829883
100.725,0.32186925510920583,-0.32186925510920583
100.726,0.23199758613963584,-0.23199758613963584
100.727,0.14916440858376223,-0.14916440858376223
100.728,0.0919283953182457,-0.0919283953182457
100.729,0.06736171497698407,-0.06736171497698407
100.73,0.07020830020623325,-0.07020830020623325
100.731,0.08621479307373814,-0.08621479307373814
100.732,0.0983057140288418,-0.0983057140288418
100.733,0.09333513173435326,-0.09333513173435326
100.734,0.0670096801058726,-0.0670096801058726
100.735,0.02528278245374349,-0.02528278245374349
100.736,0.018187902702672787,0.018187902702672787
100.737,0.04750914720688604,0.04750914720688604
100.738,0.05089376922398858,0.05089376922398858
100.739,0.025522353334613168,0.025522353334613168
100.74,0.02088332927110581,-0.02088332927110581
100.741,0.07239370788262045,-0.07239370788262045
100.742,0.11032134226369927,-0.11032134226369927
100.743,0.11987124655267545,-0.11987124655267545
100.744,0.0956308801457102,-0.0956308801457102
100.745,0.04393034490628056,-0.04393034490628056
100.746,0.01881164769264876,0.01881164769264876
100.747,0.07124730313208416,0.07124730313208416
100.748,0.09404486639212584,0.09404486639212584
100.749,0.07629064749771719,0.07629064749771719
100.75,0.01921621625481751,0.01921621625481751
100.751,0.06395975758999983,-0.06395975758999983
100.752,0.15197224643715213,-0.15197224643715213
100.753,0.2218855275613495,-0.2218855275613495
100.754,0.25580341997721057,-0.25580341997721057
100.755,0.24579253857104832,-0.24579253857104832
100.756,0.19558383887156505,-0.19558383887156505
100.757,0.1187441362842413,-0.1187441362842413
100.758,0.034166272524279395,-0.034166272524279395
100.759,0.03948434622562602,0.03948434622562602
100.76,0.08855458120008208,0.08855458120008208
100.761,0.10706135768953162,0.10706135768953162
100.762,0.0967347316948639,0.0967347316948639
100.763,0.06489877887331885,0.06489877887331885
100.764,0.021305321173298974,0.021305321173298974
100.765,0.024797435915655752,-0.024797435915655752
100.766,0.0664205126084838,-0.0664205126084838
100.767,0.09913711798547242,-0.09913711798547242
100.768,0.12034148728771865,-0.12034148728771865
100.769,0.12828725651009865,-0.12828725651009865
100.77,0.12170962424779341,-0.12170962424779341
100.771,0.10040913419811548,-0.10040913419811548
100.772,0.06654681401887486,-0.06654681401887486
100.773,0.025867092727212326,-0.025867092727212326
100.774,0.012110743326212425,0.012110743326212425
100.775,0.035593699296824655,0.035593699296824655
100.776,0.03368462176628184,0.03368462176628184
100.777,0.0003871150036154347,0.0003871150036154347
100.778,0.06197750529168489,-0.06197750529168489
100.779,0.1414519616329497,-0.1414519616329497
100.78,0.21821259687773686,-0.21821259687773686
100.781,0.2694143333201048,-0.2694143333201048
100.782,0.2759493643950469,-0.2759493643950469
100.783,0.2290839548759842,-0.2290839548759842
100.784,0.13469745391329369,-0.13469745391329369
100.785,0.013395183491911822,-0.013395183491911822
100.786,0.10402002103043073,0.10402002103043073
100.787,0.184726725867272,0.184726725867272
100.788,0.2034279322142949,0.2034279322142949
100.789,0.15034917191688524,0.15034917191688524
100.79,0.03508713744827108,0.03508713744827108
100.791,0.1151161025479206,-0.1151161025479206
100.792,0.26239730546337003,-0.26239730546337003
100.793,0.36864052386606627,-0.36864052386606627
100.794,0.4061343823440219,-0.4061343823440219
100.795,0.3653136637477278,-0.3653136637477278
100.796,0.25724978222817174,-0.25724978222817174
100.797,0.11017114313737053,-0.11017114313737053
100.798,0.03886174826131117,0.03886174826131117
100.799,0.15452649079081104,0.15452649079081104
100.8,0.21282136794032147,0.21282136794032147
100.801,0.20682934075563475,0.20682934075563475
100.802,0.14711993849670457,0.14711993849670457
100.803,0.05698069188077559,0.05698069188077559
100.804,0.035722740572860734,-0.035722740572860734
100.805,0.1072969859566767,-0.1072969859566767
100.806,0.14479478163953363,-0.14479478163953363
100.807,0.14850383724741612,-0.14850383724741612
100.808,0.1298962920168898,-0.1298962920168898
100.809,0.106104467918675,-0.106104467918675
100.81,0.09306496059847325,-0.09306496059847325
100.811,0.09976728180292371,-0.09976728180292371
100.812,0.1254968418168454,-0.1254968418168454
100.813,0.16080522571735356,-0.16080522571735356
100.814,0.19160153876292263,-0.19160153876292263
100.815,0.2047075319542211,-0.2047075319542211
100.816,0.19280493470937432,-0.19280493470937432
100.817,0.1570371963898035,-0.1570371963898035
100.818,0.10645504042982834,-0.10645504042982834
100.819,0.054660675292790506,-0.054660675292790506
100.82,0.014986405066413022,-0.014986405066413022
100.821,0.003999125261616054,0.003999125261616054
100.822,0.0010685399394823047,0.0010685399394823047
100.823,0.017826743017259727,-0.017826743017259727
100.824,0.04225641911545108,-0.04225641911545108
100.825,0.06143720762347671,-0.06143720762347671
100.826,0.0682056470080259,-0.0682056470080259
100.827,0.06138497304168122,-0.06138497304168122
100.828,0.04574687962883328,-0.04574687962883328
100.829,0.029694257370709742,-0.029694257370709742
100.83,0.02164101160272558,-0.02164101160272558
100.831,0.026529031321023355,-0.026529031321023355
100.832,0.04383724746999251,-0.04383724746999251
100.833,0.0678440542389489,-0.0678440542389489
100.834,0.09002816698790361,-0.09002816698790361
100.835,0.10266134618908307,-0.10266134618908307
100.836,0.1021682969446076,-0.1021682969446076
100.837,0.09088407897921835,-0.09088407897921835
100.838,0.07641377465712074,-0.07641377465712074
100.839,0.06869089951987417,-0.06869089951987417
100.84,0.07572128241629039,-0.07572128241629039
100.841,0.09956462820480161,-0.09956462820480161
100.842,0.1341326586206638,-0.1341326586206638
100.843,0.16584151030609928,-0.16584151030609928
100.844,0.17721492090364233,-0.17721492090364233
100.845,0.1525035040319046,-0.1525035040319046
100.846,0.08361248086413242,-0.08361248086413242
100.847,0.02561400930369362,0.02561400930369362
100.848,0.15831787252815066,0.15831787252815066
100.849,0.28741343883233794,0.28741343883233794
100.85,0.38172153028739064,0.38172153028739064
100.851,0.41388088870415274,0.41388088870415274
100.852,0.367852208184684,0.367852208184684
100.853,0.2438572057392494,0.2438572057392494
100.854,0.05926735139354222,0.05926735139354222
100.855,0.1549197324744449,-0.1549197324744449
100.856,0.361134860610954,-0.361134860610954
100.857,0.5239457032484818,-0.5239457032484818
100.858,0.6180860901993903,-0.6180860901993903
100.859,0.6336879693054922,-0.6336879693054922
100.86,0.577414131597699,-0.577414131597699
100.861,0.469362466144322,-0.469362466144322
100.862,0.33679474651948227,-0.33679474651948227
100.863,0.2065906982031257,-0.2065906982031257
100.864,0.09860158720326229,-0.09860158720326229
100.865,0.02171065471786504,-0.02171065471786504
100.866,0.026475199100365776,0.026475199100365776
100.867,0.05650180849683073,0.05650180849683073
100.868,0.08173415474889323,0.08173415474889323
100.869,0.11265073138232484,0.11265073138232484
100.87,0.15263550845416352,0.15263550845416352
100.871,0.1965873210732345,0.1965873210732345
100.872,0.23271618214354728,0.23271618214354728
100.873,0.2468482188274228,0.2468482188274228
100.874,0.227746940831131,0.227746940831131
100.875,0.17163497314647946,0.17163497314647946
100.876,0.08436856450494012,0.08436856450494012
100.877,0.019509748632211332,-0.019509748632211332
100.878,0.12058616505050779,-0.12058616505050779
100.879,0.2000533773014186,-0.2000533773014186
100.88,0.24508523141991967,-0.24508523141991967
100.881,0.25236012374801997,-0.25236012374801997
100.882,0.228582628814195,-0.228582628814195
100.883,0.18784028825605992,-0.18784028825605992
100.884,0.14668626754799097,-0.14668626754799097
100.885,0.11860621707242669,-0.11860621707242669
100.886,0.10974466929356741,-0.10974466929356741
100.887,0.11734756848422001,-0.11734756848422001
100.888,0.13145149215841223,-0.13145149215841223
100.889,0.1392218872553055,-0.1392218872553055
100.89,0.1303958104134706,-0.1303958104134706
100.891,0.10185273203545098,-0.10185273203545098
100.892,0.059586983450795605,-0.059586983450795605
100.893,0.01722425489667967,-0.01722425489667967
100.894,0.008568115299180112,0.008568115299180112
100.895,0.004290424880298849,0.004290424880298849
100.896,0.03471268412386719,-0.03471268412386719
100.897,0.10120089099402985,-0.10120089099402985
100.898,0.17690881831055116,-0.17690881831055116
100.899,0.23734562698080053,-0.23734562698080053
100.9,0.25917255045402054,-0.25917255045402054
100.901,0.22784689526805468,-0.22784689526805468
100.902,0.14300561326919725,-0.14300561326919725
100.903,0.019695090964582107,-0.019695090964582107
100.904,0.11514801824030951,0.11514801824030951
100.905,0.2300161545837569,0.2300161545837569
100.906,0.29772842331078064,0.29772842331078064
100.907,0.30312071477117164,0.30312071477117164
100.908,0.24709608317571652,0.24709608317571652
100.909,0.14577201536030038,0.14577201536030038
100.91,0.02506274899912264,0.02506274899912264
100.911,0.0874692971024077,-0.0874692971024077
100.912,0.17077898227823074,-0.17077898227823074
100.913,0.2158478097727674,-0.2158478097727674
100.914,0.22681639921954,-0.22681639921954
100.915,0.2175566393644841,-0.2175566393644841
100.916,0.2050898118777682,-0.2050898118777682
100.917,0.2023431422629044,-0.2023431422629044
100.918,0.2129358422480856,-0.2129358422480856
100.919,0.22992210805815072,-0.22992210805815072
100.92,0.2389578183629275,-0.2389578183629275
100.921,0.2247153963502162,-0.2247153963502162
100.922,0.17813422374309495,-0.17813422374309495
100.923,0.10171290531100785,-0.10171290531100785
100.924,0.01067735727504604,-0.01067735727504604
100.925,0.0707088230352988,0.0707088230352988
100.926,0.11668174007247245,0.11668174007247245
100.927,0.10891093760588944,0.10891093760588944
100.928,0.04375617274736365,0.04375617274736365
100.929,0.06479053304374371,-0.06479053304374371
100.93,0.18775098500283627,-0.18775098500283627
100.931,0.28882956153913575,-0.28882956153913575
100.932,0.3348494750207708,-0.3348494750207708
100.933,0.30573812759798136,-0.30573812759798136
100.934,0.2009361238623758,-0.2009361238623758
100.935,0.0402223409721264,-0.0402223409721264
100.936,0.1412899179589493,0.1412899179589493
100.937,0.30241760341344137,0.30241760341344137
100.938,0.4066025120320893,0.4066025120320893
100.939,0.43089180542324534,0.43089180542324534
100.94,0.3707622364643808,0.3707622364643808
100.941,0.23978004766977157,0.23978004766977157
100.942,0.0647352233418812,0.0647352233418812
100.943,0.12181796101049835,-0.12181796101049835
100.944,0.2891523214623931,-0.2891523214623931
100.945,0.4139774864159397,-0.4139774864159397
100.946,0.4829724792196004,-0.4829724792196004
100.947,0.4923954775269421,-0.4923954775269421
100.948,0.4459131509260048,-0.4459131509260048
100.949,0.3521603223740266,-0.3521603223740266
100.95,0.22320003038204905,-0.22320003038204905
100.951,0.07421010700091069,-0.07421010700091069
100.952,0.07621425132226922,0.07621425132226922
100.953,0.2063371531041862,0.2063371531041862
100.954,0.29327231405213117,0.29327231405213117
100.955,0.317098621054936,0.317098621054936
100.956,0.26640542214701,0.26640542214701
100.957,0.14354967565840204,0.14354967565840204
100.958,0.03255362843003129,-0.03255362843003129
100.959,0.22789755318827298,-0.22789755318827298
100.96,0.39969008882018897,-0.39969008882018897
100.961,0.5064304138975906,-0.5064304138975906
100.962,0.5191605116108017,-0.5191605116108017
100.963,0.43050030385346316,-0.43050030385346316
100.964,0.25837703537740797,-0.25837703537740797
100.965,0.042764845306067056,-0.042764845306067056
100.966,0.16413983194994386,0.16413983194994386
100.967,0.31174651682226795,0.31174651682226795
100.968,0.3649142402348271,0.3649142402348271
100.969,0.31362784755371176,0.31362784755371176
100.97,0.17548871059602544,0.17548871059602544
100.971,0.00981329140710141,-0.00981329140710141
100.972,0.1923718622616185,-0.1923718622616185
100.973,0.326602951969847,-0.326602951969847
100.974,0.3839481528243005,-0.3839481528243005
100.975,0.359879286275928,-0.359879286275928
100.976,0.2732328672269345,-0.2732328672269345
100.977,0.1584147672569769,-0.1584147672569769
100.978,0.05330210468995511,-0.05330210468995511
100.979,0.013032618493571846,0.013032618493571846
100.98,0.02876101115866181,0.02876101115866181
100.981,0.0013409939726731768,0.0013409939726731768
100.982,0.04712986829990384,-0.04712986829990384
100.983,0.0892539372247747,-0.0892539372247747
100.984,0.1028525919047989,-0.1028525919047989
100.985,0.07890759183648421,-0.07890759183648421
100.986,0.024243993165140698,-0.024243993165140698
100.987,0.04174705756183639,0.04174705756183639
100.988,0.094891803694374,0.094891803694374
100.989,0.11550825323667802,0.11550825323667802
100.99,0.09572814649454298,0.09572814649454298
100.991,0.04224949727681593,0.04224949727681593
100.992,0.026349859926593777,-0.026349859926593777
100.993,0.08659602395530663,-0.08659602395530663
100.994,0.11872075869197185,-0.11872075869197185
100.995,0.11368624061997223,-0.11368624061997223
100.996,0.07610751241534863,-0.07610751241534863
100.997,0.02212805007862617,-0.02212805007862617
100.998,0.026807776084693202,0.026807776084693202
100.999,0.051850665861656875,0.051850665861656875
101.0,0.043327792812856813,0.043327792812856813
101.001,0.00360672051524924,0.00360672051524924
101.002,0.0546903887032566,-0.0546903887032566
101.003,0.11426082098842105,-0.11426082098842105
101.004,0.16018789154285096,-0.16018789154285096
101.005,0.18567014314790298,-0.18567014314790298
101.006,0.19414611365566348,-0.19414611365566348
101.007,0.19698809539746065,-0.19698809539746065
101.008,0.20770376250000566,-0.20770376250000566
101.009,0.23499722500346332,-0.23499722500346332
101.01,0.2775533884588305,-0.2775533884588305
101.011,0.322811428337616,-0.322811428337616
101.012,0.3504943167969935,-0.3504943167969935
101.013,0.33981639652304696,-0.33981639652304696
101.014,0.2777956787712913,-0.2777956787712913
101.015,0.16552962059804188,-0.16552962059804188
101.016,0.019894510370901175,-0.019894510370901175
101.017,0.13029059871311288,0.13029059871311288
101.018,0.2525930668502987,0.2525930668502987
101.019,0.3210525742169015,0.3210525742169015
101.02,0.324532814601042,0.324532814601042
101.021,0.2703357566599349,0.2703357566599349
101.022,0.18166226633678795,0.18166226633678795
101.023,0.08964460981580302,0.08964460981580302
101.024,0.022616942211049595,0.022616942211049595
101.025,0.0036689211320992676,-0.0036689211320992676
101.026,0.008577128745992812,0.008577128745992812
101.027,0.04019425777269059,0.04019425777269059
101.028,0.06225331114939725,0.06225331114939725
101.029,0.04702130554977768,0.04702130554977768
101.03,0.02106292702193524,-0.02106292702193524
101.031,0.1382710553675388,-0.1382710553675388
101.032,0.2809598000728566,-0.2809598000728566
101.033,0.4119124793120378,-0.4119124793120378
101.034,0.49176557453669645,-0.49176557453669645
101.035,0.49188072622505197,-0.49188072622505197
101.036,0.4044574915604765,-0.4044574915604765
101.037,0.24650059654873613,-0.24650059654873613
101.038,0.05618585669159315,-0.05618585669159315
101.039,0.11742485682192405,0.11742485682192405
101.04,0.2282702040260136,0.2282702040260136
101.041,0.2466042130541397,0.2466042130541397
101.042,0.1677547212275674,0.1677547212275674
101.043,0.013750266737053929,0.013750266737053929
101.044,0.17260387725876514,-0.17260387725876514
101.045,0.33940559928722147,-0.33940559928722147
101.046,0.4396960828111204,-0.4396960828111204
101.047,0.44392238921739924,-0.44392238921739924
101.048,0.3474963432559284,-0.3474963432559284
101.049,0.17163146953104047,-0.17163146953104047
101.05,0.0424565654192568,0.0424565654192568
101.051,0.24416888808113035,0.24416888808113035
101.052,0.3860425202171247,0.3860425202171247
101.053,0.43500322925376866,0.43500322925376866
101.054,0.3797530220535339,0.3797530220535339
101.055,0.23282242853356183,0.23282242853356183
101.056,0.02715329677366496,0.02715329677366496
101.057,0.19171979605270661,-0.19171979605270661
101.058,0.37598835914049555,-0.37598835914049555
101.059,0.48612404773691076,-0.48612404773691076
101.06,0.4994911870950359,-0.4994911870950359
101.061,0.41529547339502326,-0.41529547339502326
101.062,0.25486111184971627,-0.25486111184971627
101.063,0.05710120852647249,-0.05710120852647249
101.064,0.1300253666068507,0.1300253666068507
101.065,0.2604160086107934,0.2604160086107934
101.066,0.30079308227671664,0.30079308227671664
101.067,0.23920942082187202,0.23920942082187202
101.068,0.0888689272914105,0.0888689272914105
101.069,0.11405945566646136,-0.11405945566646136
101.07,0.3185786805220261,-0.3185786805220261
101.071,0.47133140257724415,-0.47133140257724415
101.072,0.5304448602750407,-0.5304448602750407
101.073,0.4771270661417123,-0.4771270661417123
101.074,0.32167840923760005,-0.32167840923760005
101.075,0.10187613079768021,-0.10187613079768021
101.076,0.12628764665327386,0.12628764665327386
101.077,0.3033235020274163,0.3033235020274163
101.078,0.38249503313808253,0.38249503313808253
101.079,0.3430041791092655,0.3430041791092655
101.08,0.19618770073037894,0.19618770073037894
101.081,0.017295222199746996,-0.017295222199746996
101.082,0.23869328367185827,-0.23869328367185827
101.083,0.4076842805277855,-0.4076842805277855
101.084,0.4793991752775184,-0.4793991752775184
101.085,0.4369289893380446,-0.4369289893380446
101.086,0.2956070081522252,-0.2956070081522252
101.087,0.09783638888002577,-0.09783638888002577
101.088,0.09988881536518601,0.09988881536518601
101.089,0.24375146095043276,0.24375146095043276
101.09,0.29804421844497875,0.29804421844497875
101.091,0.2546526724972391,0.2546526724972391
101.092,0.13392402008758086,0.13392402008758086
101.093,0.022994006782949494,-0.022994006782949494
101.094,0.1676095891450864,-0.1676095891450864
101.095,0.2589078793040117,-0.2589078793040117
101.096,0.27488800345397535,-0.27488800345397535
101.097,0.2174525487973059,-0.2174525487973059
101.098,0.10959898816108915,-0.10959898816108915
101.099,0.013601484419045073,0.013601484419045073
101.1,0.11684602471429506,0.11684602471429506
101.101,0.17520402514726885,0.17520402514726885
101.102,0.18015836944443375,0.18015836944443375
101.103,0.1395714595801052,0.1395714595801052
101.104,0.07226864670349675,0.07226864670349675
101.105,0.00026077980471861384,-0.00026077980471861384
101.106,0.061750614869709564,-0.061750614869709564
101.107,0.10578473991591264,-0.10578473991591264
101.108,0.13577455852911102,-0.13577455852911102
101.109,0.16078131564711662,-0.16078131564711662
101.11,0.1892676955138386,-0.1892676955138386
101.111,0.22357414963146727,-0.22357414963146727
101.112,0.25750943917374625,-0.25750943917374625
101.113,0.2781101492149657,-0.2781101492149657
101.114,0.2708955064704094,-0.2708955064704094
101.115,0.2264965641545491,-0.2264965641545491
101.116,0.14593135907367172,-0.14593135907367172
101.117,0.0422630781065928,-0.0422630781065928
101.118,0.06226122116272936,0.06226122116272936
101.119,0.14275745883981306,0.14275745883981306
101.12,0.1796543313583947,0.1796543313583947
101.121,0.16515912187607373,0.16515912187607373
101.122,0.10583261238395414,0.10583261238395414
101.123,0.020262200569917566,0.020262200569917566
101.124,0.06738073650374732,-0.06738073650374732
101.125,0.13558548587637664,-0.13558548587637664
101.126,0.1725514673875902,-0.1725514673875902
101.127,0.17947040635189493,-0.17947040635189493
101.128,0.16885535974694943,-0.16885535974694943
101.129,0.1585714751606797,-0.1585714751606797
101.13,0.16383829206662548,-0.16383829206662548
101.131,0.1902600768347762,-0.1902600768347762
101.132,0.23059825410836843,-0.23059825410836843
101.133,0.2666425273254497,-0.2666425273254497
101.134,0.27565444396213645,-0.27565444396213645
101.135,0.2391362821383638,-0.2391362821383638
101.136,0.1507527976975156,-0.1507527976975156
101.137,0.02045088378416915,-0.02045088378416915
101.138,0.12688464585236758,0.12688464585236758
101.139,0.25799067548086474,0.25799067548086474
101.14,0.34090873502709296,0.34090873502709296
101.141,0.354583095109233,0.354583095109233
101.142,0.2951756890002333,0.2951756890002333
101.143,0.17702823401556889,0.17702823401556889
101.144,0.028041420198001044,0.028041420198001044
101.145,0.1188673602643815,-0.1188673602643815
101.146,0.23529187190768563,-0.23529187190768563
101.147,0.30469570817151503,-0.30469570817151503
101.148,0.32533571224483027,-0.32533571224483027
101.149,0.30813353611555605,-0.30813353611555605
101.15,0.27067571434609117,-0.27067571434609117
101.151,0.2298155281987082,-0.2298155281987082
101.152,0.19568724206024024,-0.19568724206024024
101.153,0.1692350111377685,-0.1692350111377685
101.154,0.14390223171522465,-0.14390223171522465
101.155,0.11048946535463167,-0.11048946535463167
101.156,0.0629915355435764,-0.0629915355435764
101.157,0.0029095612600588128,-0.0029095612600588128
101.158,0.059797508371082886,0.059797508371082886
101.159,0.10957886640252945,0.10957886640252945
101.16,0.13088546931448963,0.13088546931448963
101.161,0.11428710414973953,0.11428710414973953
101.162,0.06065891321170036,0.06065891321170036
101.163,0.018302679359255003,-0.018302679359255003
101.164,0.10356847229976618,-0.10356847229976618
101.165,0.17504409449811908,-0.17504409449811908
101.166,0.21828204446268273,-0.21828204446268273
101.167,0.22908055436160235,-0.22908055436160235
101.168,0.21417729447249223,-0.21417729447249223
101.169,0.18772470530121277,-0.18772470530121277
101.17,0.1648719095737391,-0.1648719095737391
101.171,0.15494929259444679,-0.15494929259444679
101.172,0.1569929584829376,-0.1569929584829376
101.173,0.1595362593534867,-0.1595362593534867
101.174,0.14500850011349953,-0.14500850011349953
101.175,0.09729236049708867,-0.09729236049708867
101.176,0.009670815592994986,-0.009670815592994986
101.177,0.10994271368058839,0.10994271368058839
101.178,0.23878349299394963,0.23878349299394963
101.179,0.344604623511342,0.344604623511342
101.18,0.39519829828815767,0.39519829828815767
101.181,0.3690284757980671,0.3690284757980671
101.182,0.26334276233105225,0.26334276233105225
101.183,0.09680118541823868,0.09680118541823868
101.184,0.09460199847548367,-0.09460199847548367
101.185,0.2673168707413267,-0.2673168707413267
101.186,0.3827511766042154,-0.3827511766042154
101.187,0.41854953891048285,-0.41854953891048285
101.188,0.3749863753169177,-0.3749863753169177
101.189,0.27437010485897484,-0.27437010485897484
101.19,0.15362725905962382,-0.15362725905962382
101.191,0.0524649826946868,-0.0524649826946868
101.192,0.0009479346851783976,-0.0009479346851783976
101.193,0.010488673696827266,-0.010488673696827266
101.194,0.07109039129402883,-0.07109039129402883
101.195,0.15559584651383973,-0.15559584651383973
101.196,0.2293927600995499,-0.2293927600995499
101.197,0.26227408410418473,-0.26227408410418473
101.198,0.23852382774004033,-0.23852382774004033
101.199,0.16197968700265997,-0.16197968700265997
101.2,0.05455449442050242,-0.05455449442050242
101.201,0.05112317858984183,0.05112317858984183
101.202,0.12239767177661487,0.12239767177661487
101.203,0.1370632224309256,0.1370632224309256
101.204,0.09029284546487504,0.09029284546487504
101.205,0.004036939143096663,-0.004036939143096663
101.206,0.1177969355903955,-0.1177969355903955
101.207,0.2171652810234248,-0.2171652810234248
101.208,0.2724414048063757,-0.2724414048063757
101.209,0.26607011667458147,-0.26607011667458147
101.21,0.196637934543625,-0.196637934543625
101.211,0.07806325547082371,-0.07806325547082371
101.212,0.06522442349475166,0.06522442349475166
101.213,0.20517256580193677,0.20517256580193677
101.214,0.3167449777516387,0.3167449777516387
101.215,0.3824517536958141,0.3824517536958141
101.216,0.3939444449887992,0.3939444449887992
101.217,0.35102914991328427,0.35102914991328427
101.218,0.25931474892675643,0.25931474892675643
101.219,0.127960398442994,0.127960398442994
101.22,0.0314294051355799,-0.0314294051355799
101.221,0.20457189991688074,-0.20457189991688074
101.222,0.3736529472038649,-0.3736529472038649
101.223,0.5171221319171061,-0.5171221319171061
101.224,0.6113365158270592,-0.6113365158270592
101.225,0.6345558033005102,-0.6345558033005102
101.226,0.572713493713917,-0.572713493713917
101.227,0.42535064338621775,-0.42535064338621775
101.228,0.20953801080569223,-0.20953801080569223
101.229,0.04018426359207772,0.04018426359207772
101.23,0.2768314734236228,0.2768314734236228
101.231,0.45043969697960184,0.45043969697960184
101.232,0.5199027922595225,0.5199027922595225
101.233,0.4640594709140302,0.4640594709140302
101.234,0.2887509502782055,0.2887509502782055
101.235,0.027435934131846862,0.027435934131846862
101.236,0.26536050851558823,-0.26536050851558823
101.237,0.5264535482737717,-0.5264535482737717
101.238,0.6991850441401534,-0.6991850441401534
101.239,0.7473731044292888,-0.7473731044292888
101.24,0.6642094837618457,-0.6642094837618457
101.241,0.4736097840648622,-0.4736097840648622
101.242,0.2235946119636152,-0.2235946119636152
101.243,0.02649463533036256,0.02649463533036256
101.244,0.221418022930145,0.221418022930145
101.245,0.32385731463018885,0.32385731463018885
101.246,0.3229015845867469,0.3229015845867469
101.247,0.23503934718995256,0.23503934718995256
101.248,0.09766863296752892,0.09766863296752892
101.249,0.04273982594599912,-0.04273982594599912
101.25,0.14423637209178242,-0.14423637209178242
101.251,0.18078301424259124,-0.18078301424259124
101.252,0.14828155631074358,-0.14828155631074358
101.253,0.06378750944561662,-0.06378750944561662
101.254,0.0414591948142744,0.0414591948142744
101.255,0.13273241068677377,0.13273241068677377
101.256,0.18277377629087477,0.18277377629087477
101.257,0.1796057967018554,0.1796057967018554
101.258,0.12893012550962069,0.12893012550962069
101.259,0.05063626160497359,0.05063626160497359
101.26,0.029153428351975874,-0.029153428351975874
101.261,0.08767427709404452,-0.08767427709404452
101.262,0.11345247002545977,-0.11345247002545977
101.263,0.10990051783300725,-0.10990051783300725
101.264,0.09338274919719303,-0.09338274919719303
101.265,0.08643906370940002,-0.08643906370940002
101.266,0.10851673507271442,-0.10851673507271442
101.267,0.16745600279223116,-0.16745600279223116
101.268,0.25479988801759546,-0.25479988801759546
101.269,0.3467896094852789,-0.3467896094852789
101.27,0.41103915330607066,-0.41103915330607066
101.271,0.4169543518134271,-0.4169543518134271
101.272,0.3466063272001223,-0.3466063272001223
101.273,0.20244951416516777,-0.20244951416516777
101.274,0.0091289532441724,-0.0091289532441724
101.275,0.19159032586193292,0.19159032586193292
101.276,0.35156871524173927,0.35156871524173927
101.277,0.42964831457614205,0.42964831457614205
101.278,0.40361538535821406,0.40361538535821406
101.279,0.2770719072081427,0.2770719072081427
101.28,0.07900731299557351,0.07900731299557351
101.281,0.14392162754584215,-0.14392162754584215
101.282,0.340146104896917,-0.340146104896917
101.283,0.46715825182263526,-0.46715825182263526
101.284,0.502518899503523,-0.502518899503523
101.285,0.44867274276675106,-0.44867274276675106
101.286,0.3303167716749399,-0.3303167716749399
101.287,0.1854210171882602,-0.1854210171882602
101.288,0.05296873658251566,-0.05296873658251566
101.289,0.038573825921778715,0.038573825921778715
101.29,0.07843093739885387,0.07843093739885387
101.291,0.07427520154284095,0.07427520154284095
101.292,0.04672713796764927,0.04672713796764927
101.293,0.019864674661040915,0.019864674661040915
101.294,0.01130050559050022,0.01130050559050022
101.295,0.025421334869807355,0.025421334869807355
101.296,0.05216438123870937,0.05216438123870937
101.297,0.07166583464457199,0.07166583464457199
101.298,0.06297168758004346,0.06297168758004346
101.299,0.01350947734996133,0.01350947734996133
101.3,0.07429002794740658,-0.07429002794740658
101.301,0.1818423610558283,-0.1818423610558283
101.302,0.27940274134416654,-0.27940274134416654
101.303,0.33565131585171937,-0.33565131585171937
101.304,0.32860527281993235,-0.32860527281993235
101.305,0.2540079483052007,-0.2540079483052007
101.306,0.12811405165472844,-0.12811405165472844
101.307,0.016335931650773183,0.016335931650773183
101.308,0.1398217627567815,0.1398217627567815
101.309,0.20831127382309278,0.20831127382309278
101.31,0.20403158964670665,0.20403158964670665
101.311,0.1311331014560726,0.1311331014560726
101.312,0.014327467778262326,0.014327467778262326
101.313,0.10906187640251053,-0.10906187640251053
101.314,0.20098913837636745,-0.20098913837636745
101.315,0.23457005323083313,-0.23457005323083313
101.316,0.20207245351689895,-0.20207245351689895
101.317,0.11650831083624458,-0.11650831083624458
101.318,0.006535376772307311,-0.006535376772307311
101.319,0.09336076038606,0.09336076038606
101.32,0.15391181101185225,0.15391181101185225
101.321,0.15958470981895245,0.15958470981895245
101.322,0.11187887303019273,0.11187887303019273
101.323,0.026682466224995594,0.026682466224995594
101.324,0.07288020140474427,-0.07288020140474427
101.325,0.16513301190231988,-0.16513301190231988
101.326,0.2367024328731343,-0.2367024328731343
101.327,0.28507397536067547,-0.28507397536067547
101.328,0.31619488497283244,-0.31619488497283244
101.329,0.3384948503142441,-0.3384948503142441
101.33,0.35615521166411135,-0.35615521166411135
101.331,0.36477561579487616,-0.36477561579487616
101.332,0.351625117495429,-0.351625117495429
101.333,0.3007732590210135,-0.3007732590210135
101.334,0.20129453290332378,-0.20129453290332378
101.335,0.0552500102406549,-0.0552500102406549
101.336,0.11810898952080429,0.11810898952080429
101.337,0.28432620594686786,0.28432620594686786
101.338,0.40213387012328705,0.40213387012328705
101.339,0.43600431562485675,0.43600431562485675
101.34,0.36877914589146776,0.36877914589146776
101.341,0.20983043131661727,0.20983043131661727
101.342,0.0046279556200510275,-0.0046279556200510275
101.343,0.2199869531199763,-0.2199869531199763
101.344,0.3783800333354269,-0.3783800333354269
101.345,0.43599789393709765,-0.43599789393709765
101.346,0.3770354449678084,-0.3770354449678084
101.347,0.2195410133560688,-0.2195410133560688
101.348,0.0108974652923981,-0.0108974652923981
101.349,0.18600864519713545,0.18600864519713545
101.35,0.31178346649600863,0.31178346649600863
101.351,0.3287399648905698,0.3287399648905698
101.352,0.232507918323273,0.232507918323273
101.353,0.05326762157410214,0.05326762157410214
101.354,0.15384627031849152,-0.15384627031849152
101.355,0.32612764757279844,-0.32612764757279844
101.356,0.41291049384248857,-0.41291049384248857
101.357,0.39115327341643524,-0.39115327341643524
101.358,0.2720876634869124,-0.2720876634869124
101.359,0.09695890370657911,-0.09695890370657911
101.36,0.07657449268543193,0.07657449268543193
101.361,0.1928439658340213,0.1928439658340213
101.362,0.21540854531854148,0.21540854531854148
101.363,0.1377053198038185,0.1377053198038185
101.364,0.01601397275340355,-0.01601397275340355
101.365,0.19935140848891775,-0.19935140848891775
101.366,0.35885006423869326,-0.35885006423869326
101.367,0.4504055289392658,-0.4504055289392658
101.368,0.4517532651698887,-0.4517532651698887
101.369,0.36735664306959814,-0.36735664306959814
101.37,0.22471384734474387,-0.22471384734474387
101.371,0.0639562603179904,-0.0639562603179904
101.372,0.07534225425368923,0.07534225425368923
101.373,0.16563149109386988,0.16563149109386988
101.374,0.19758417542405105,0.19758417542405105
101.375,0.17958938210864184,0.17958938210864184
101.376,0.13153295331032222,0.13153295331032222
101.377,0.07574486772307454,0.07574486772307454
101.378,0.02870476698739366,0.02870476698739366
101.379,0.0035437968250108254,-0.0035437968250108254
101.38,0.024991909911189714,-0.024991909911189714
101.381,0.04502345393330298,-0.04502345393330298
101.382,0.07188474376221288,-0.07188474376221288
101.383,0.10722079710613464,-0.10722079710613464
101.384,0.14405184403512172,-0.14405184403512172
101.385,0.1690660812315833,-0.1690660812315833
101.386,0.16829671555456294,-0.16829671555456294
101.387,0.1338395838654559,-0.1338395838654559
101.388,0.06879230487950783,-0.06879230487950783
101.389,0.01176809008316293,0.01176809008316293
101.39,0.08445406281784074,0.08445406281784074
101.391,0.12478127195570976,0.12478127195570976
101.392,0.11542829315999303,0.11542829315999303
101.393,0.05256509863430603,0.05256509863430603
101.394,0.052103184163384,-0.052103184163384
101.395,0.1744313512556066,-0.1744313512556066
101.396,0.2850968671588232,-0.2850968671588232
101.397,0.3585750675697228,-0.3585750675697228
101.398,0.3807672349030963,-0.3807672349030963
101.399,0.35271095004360786,-0.35271095004360786
101.4,0.28919907573700365,-0.28919907573700365
101.401,0.21292676497687002,-0.21292676497687002
101.402,0.146327438210903,-0.146327438210903
101.403,0.10400269468986956,-0.10400269468986956
101.404,0.08834925677884609,-0.08834925677884609
101.405,0.08977173817545803,-0.08977173817545803
101.406,0.09120198603567697,-0.09120198603567697
101.407,0.07513415627271014,-0.07513415627271014
101.408,0.0305661103618714,-0.0305661103618714
101.409,0.04261781401274223,0.04261781401274223
101.41,0.1332674792112638,0.1332674792112638
101.411,0.22254258899838208,0.22254258899838208
101.412,0.2899891878802334,0.2899891878802334
101.413,0.31985337280708426,0.31985337280708426
101.414,0.30542531587118327,0.30542531587118327
101.415,0.2500691445089973,0.2500691445089973
101.416,0.16490387813550922,0.16490387813550922
101.417,0.0643442848828415,0.0643442848828415
101.418,0.038581952851380774,-0.038581952851380774
101.419,0.13530306242289403,-0.13530306242289403
101.42,0.22212502569046655,-0.22212502569046655
101.421,0.2981631577191709,-0.2981631577191709
101.422,0.3620287676674435,-0.3620287676674435
101.423,0.40906292823426016,-0.40906292823426016
101.424,0.43068962753131934,-0.43068962753131934
101.425,0.4165540392782746,-0.4165540392782746
101.426,0.3588729688894623,-0.3588729688894623
101.427,0.2573484426800404,-0.2573484426800404
101.428,0.12252685345134673,-0.12252685345134673
101.429,0.024153005556793783,0.024153005556793783
101.43,0.154281421675996,0.154281421675996
101.431,0.23957151933432774,0.23957151933432774
101.432,0.2600477905275189,0.2600477905275189
101.433,0.21063761882605592,0.21063761882605592
101.434,0.10379076054760783,0.10379076054760783
101.435,0.033065170593994164,-0.033065170593994164
101.436,0.16475592676109696,-0.16475592676109696
101.437,0.25821268932792507,-0.25821268932792507
101.438,0.29192654638868254,-0.29192654638868254
101.439,0.26201750316734207,-0.26201750316734207
101.44,0.1829573626346055,-0.1829573626346055
101.441,0.08268089549828428,-0.08268089549828428
101.442,0.006377667762852202,0.006377667762852202
101.443,0.05747590628278387,0.05747590628278387
101.444,0.057753252611630446,0.057753252611630446
101.445,0.011859246635587795,0.011859246635587795
101.446,0.06005032958925838,-0.06005032958925838
101.447,0.12920643587509772,-0.12920643587509772
101.448,0.16772651427659746,-0.16772651427659746
101.449,0.1576671276748871,-0.1576671276748871
101.45,0.09680088000153009,-0.09680088000153009
101.451,0.0005933998650176076,0.0005933998650176076
101.452,0.10802017811918141,0.10802017811918141
101.453,0.19465003739032127,0.19465003739032127
101.454,0.23427120032973647,0.23427120032973647
101.455,0.2125904384444226,0.2125904384444226
101.456,0.13082593507663365,0.13082593507663365
101.457,0.004789022911695806,0.004789022911695806
101.458,0.1399393643515815,-0.1399393643515815
101.459,0.2750248044476392,-0.2750248044476392
101.46,0.3763945855147728,-0.3763945855147728
101.461,0.42929887346590534,-0.42929887346590534
101.462,0.4302791404268672,-0.4302791404268672
101.463,0.3859736584811275,-0.3859736584811275
101.464,0.3096413601106486,-0.3096413601106486
101.465,0.21682631136707087,-0.21682631136707087
101.466,0.12159062478795979,-0.12159062478795979
101.467,0.03428310067817486,-0.03428310067817486
101.468,0.038896149885235154,0.038896149885235154
101.469,0.09494995071359402,0.09494995071359402
101.47,0.13258128597103358,0.13258128597103358
101.471,0.15098943023855127,0.15098943023855127
101.472,0.14951307520002066,0.14951307520002066
101.473,0.12817957984252804,0.12817957984252804
101.474,0.08875927402035955,0.08875927402035955
101.475,0.03567198597506338,0.03567198597506338
101.476,0.023864494378292966,-0.023864494378292966
101.477,0.08074963382518052,-0.08074963382518052
101.478,0.12584753275104754,-0.12584753275104754
101.479,0.1522382155105817,-0.1522382155105817
101.48,0.15713859166772348,-0.15713859166772348
101.481,0.14281832269077288,-0.14281832269077288
101.482,0.11613757511910716,-0.11613757511910716
101.483,0.0867700613973158,-0.0867700613973158
101.484,0.06459572275458048,-0.06459572275458048
101.485,0.057013542112770765,-0.057013542112770765
101.486,0.06695343599304426,-0.06695343599304426
101.487,0.09215412097608078,-0.09215412097608078
101.488,0.12589418750839887,-0.12589418750839887
101.489,0.15893716242240274,-0.15893716242240274
101.49,0.18210674436556473,-0.18210674436556473
101.491,0.18874344577968705,-0.18874344577968705
101.492,0.17634955876104608,-0.17634955876104608
101.493,0.14698241477313134,-0.14698241477313134
101.494,0.10632944217423046,-0.10632944217423046
101.495,0.06178554213665244,-0.06178554213665244
101.496,0.020145671451055946,-0.020145671451055946
101.497,0.014358761788913155,0.014358761788913155
101.498,0.04104781010654168,0.04104781010654168
101.499,0.06246257222891294,0.06246257222891294
101.5,0.08278260095471346,0.08278260095471346
101.501,0.1054744929297533,0.1054744929297533
101.502,0.13095700515160447,0.13095700515160447
101.503,0.15515087220478985,0.15515087220478985
101.504,0.16959320054035354,0.16959320054035354
101.505,0.16336016778765616,0.16336016778765616
101.506,0.12646156021259802,0.12646156021259802
101.507,0.05381208197956844,0.05381208197956844
101.508,0.05146733326371311,-0.05146733326371311
101.509,0.17666167345844686,-0.17666167345844686
101.51,0.3008169868827135,-0.3008169868827135
101.511,0.3989146268687709,-0.3989146268687709
101.512,0.44804308086159605,-0.44804308086159605
101.513,0.4339775832358397,-0.4339775832358397
101.514,0.35621055028320603,-0.35621055028320603
101.515,0.22968750212246336,-0.22968750212246336
101.516,0.08230336807083727,-0.08230336807083727
101.517,0.051581691907207405,0.051581691907207405
101.518,0.1400819053332385,0.1400819053332385
101.519,0.16273269715189742,0.16273269715189742
101.52,0.11675358066723063,0.11675358066723063
101.521,0.018523275338306888,0.018523275338306888
101.522,0.10052794072757743,-0.10052794072757743
101.523,0.20272984437340602,-0.20272984437340602
101.524,0.25527967658741213,-0.25527967658741213
101.525,0.24035801779034716,-0.24035801779034716
101.526,0.16107023680781496,-0.16107023680781496
101.527,0.041154942527965366,-0.041154942527965366
101.528,0.0817500440037291,0.0817500440037291
101.529,0.1674716878585738,0.1674716878585738
101.53,0.1859309194338945,0.1859309194338945
101.531,0.12711593396189547,0.12711593396189547
101.532,0.005147761286977692,0.005147761286977692
101.533,0.1450777493373604,-0.1450777493373604
101.534,0.27789801069446574,-0.27789801069446574
101.535,0.35064049124638075,-0.35064049124638075
101.536,0.33695016432736247,-0.33695016432736247
101.537,0.23552092991492868,-0.23552092991492868
101.538,0.07139651398034264,-0.07139651398034264
101.539,0.1107345341467445,0.1107345341467445
101.54,0.259341470273847,0.259341470273847
101.541,0.3311231232856904,0.3311231232856904
101.542,0.3037815119832239,0.3037815119832239
101.543,0.18261688334066428,0.18261688334066428
101.544,0.0010361812809239757,-0.0010361812809239757
101.545,0.1990011192928648,-0.1990011192928648
101.546,0.3602251855710745,-0.3602251855710745
101.547,0.44525743278500174,-0.44525743278500174
101.548,0.4369192516404624,-0.4369192516404624
101.549,0.3441284545555797,-0.3441284545555797
101.55,0.1980198209110986,-0.1980198209110986
101.551,0.04187294460019497,-0.04187294460019497
101.552,0.08184114660193997,0.08184114660193997
101.553,0.14329424619733144,0.14329424619733144
101.554,0.1326033146345309,0.1326033146345309
101.555,0.060797631216020775,0.060797631216020775
101.556,0.04529330905757123,-0.04529330905757123
101.557,0.1521523351770886,-0.1521523351770886
101.558,0.22958878473652644,-0.22958878473652644
101.559,0.258603334983307,-0.258603334983307
101.56,0.23506054243282948,-0.23506054243282948
101.561,0.16867505857303222,-0.16867505857303222
101.562,0.07834045274709944,-0.07834045274709944
101.563,0.014181389681965584,0.014181389681965584
101.564,0.09001338708133444,0.09001338708133444
101.565,0.136757571565421,0.136757571565421
101.566,0.1493891969543364,0.1493891969543364
101.567,0.12898372610205833,0.12898372610205833
101.568,0.08048768982781174,0.08048768982781174
101.569,0.010806931523531071,0.010806931523531071
101.57,0.0720215209392997,-0.0720215209392997
101.571,0.15860824994908584,-0.15860824994908584
101.572,0.23768421371853676,-0.23768421371853676
101.573,0.29629707476469036,-0.29629707476469036
101.574,0.3214835863586042,-0.3214835863586042
101.575,0.30343840609924577,-0.30343840609924577
101.576,0.23932726969692775,-0.23932726969692775
101.577,0.13627369669712797,-0.13627369669712797
101.578,0.011994640689672709,-0.011994640689672709
101.579,0.10783278710631206,0.10783278710631206
101.58,0.19529587031309692,0.19529587031309692
101.581,0.22768602318832842,0.22768602318832842
101.582,0.19443669488872217,0.19443669488872217
101.583,0.10121885334569769,0.10121885334569769
101.584,0.030438167974457975,-0.030438167974457975
101.585,0.16828089654913203,-0.16828089654913203
101.586,0.27794423792129763,-0.27794423792129763
101.587,0.3325412743095022,-0.3325412743095022
101.588,0.32028505090380976,-0.32028505090380976
101.589,0.24772280993634,-0.24772280993634
101.59,0.13751473436108808,-0.13751473436108808
101.591,0.021429193171086047,-0.021429193171086047
101.592,0.06922890799691372,0.06922890799691372
101.593,0.11271807429132719,0.11271807429132719
101.594,0.10263546925502331,0.10263546925502331
101.595,0.0486475971641438,0.0486475971641438
101.596,0.027849715582894174,-0.027849715582894174
101.597,0.10149407312059855,-0.10149407312059855
101.598,0.15141080829847753,-0.15141080829847753
101.599,0.1674981662028764,-0.1674981662028764
101.6,0.15253559887897283,-0.15253559887897283
101.601,0.11962919634989366,-0.11962919634989366
101.602,0.08615625130982196,-0.08615625130982196
101.603,0.0665659269608021,-0.0665659269608021
101.604,0.06672355392072171,-0.06672355392072171
101.605,0.08185164427175506,-0.08185164427175506
101.606,0.09876327170268451,-0.09876327170268451
101.607,0.10149773200555057,-0.10149773200555057
101.608,0.07822341497485286,-0.07822341497485286
101.609,0.02680933508472616,-0.02680933508472616
101.61,0.0430574740859635,0.0430574740859635
101.611,0.112094193995526,0.112094193995526
101.612,0.1573166968137345,0.1573166968137345
101.613,0.1596233161664029,0.1596233161664029
101.614,0.11046957399922497,0.11046957399922497
101.615,0.01533084937769491,0.01533084937769491
101.616,0.10725628753247851,-0.10725628753247851
101.617,0.23078174087026315,-0.23078174087026315
101.618,0.3283034852734821,-0.3283034852734821
101.619,0.37997974495647224,-0.37997974495647224
101.62,0.37819333750808304,-0.37819333750808304
101.621,0.32874404200863516,-0.32874404200863516
101.622,0.24794462804629036,-0.24794462804629036
101.623,0.15681820720139783,-0.15681820720139783
101.624,0.074489784937259,-0.074489784937259
101.625,0.013002378255776992,-0.013002378255776992
101.626,0.024848373657102574,0.024848373657102574
101.627,0.044222124402566676,0.044222124402566676
101.628,0.05429063127371325,0.05429063127371325
101.629,0.06334177686439935,0.06334177686439935
101.63,0.07486579786752223,0.07486579786752223
101.631,0.08608262529772626,0.08608262529772626
101.632,0.08937958381931721,0.08937958381931721
101.633,0.07600206083944827,0.07600206083944827
101.634,0.04048999334064285,0.04048999334064285
101.635,0.0159179268294527,-0.0159179268294527
101.636,0.08429741906205279,-0.08429741906205279
101.637,0.1499534847970928,-0.1499534847970928
101.638,0.19664819459478944,-0.19664819459478944
101.639,0.2116973820517385,-0.2116973820517385
101.64,0.19015960003063692,-0.19015960003063692
101.641,0.13664338728887748,-0.13664338728887748
101.642,0.06408212094636379,-0.06408212094636379
101.643,0.010127137022581723,0.010127137022581723
101.644,0.06932331214765375,0.06932331214765375
101.645,0.1023789582854786,0.1023789582854786
101.646,0.10651676495268858,0.10651676495268858
101.647,0.08726596160628008,0.08726596160628008
101.648,0.055668398744934455,0.055668398744934455
101.649,0.023777945858078464,0.023777945858078464
101.65,5.891420360826238e-05,5.891420360826238e-05
101.651,0.013703757020057439,-0.013703757020057439
101.652,0.022909371422564773,-0.022909371422564773
101.653,0.03788294395651848,-0.03788294395651848
101.654,0.06961999290557486,-0.06961999290557486
101.655,0.12498370012930893,-0.12498370012930893
101.656,0.20300408714220786,-0.20300408714220786
101.657,0.29359100290637763,-0.29359100290637763
101.658,0.37921370685315303,-0.37921370685315303
101.659,0.4391665027082966,-0.4391665027082966
101.66,0.45522546678389997,-0.45522546678389997
101.661,0.4170525073786687,-0.4170525073786687
101.662,0.32574705203594556,-0.32574705203594556
101.663,0.19445860110345015,-0.19445860110345015
101.664,0.0457955714601429,-0.0457955714601429
101.665,0.09334380296557221,0.09334380296557221
101.666,0.1981835064752362,0.1981835064752362
101.667,0.25204961628922296,0.25204961628922296
101.668,0.2503523421125571,0.2503523421125571
101.669,0.20152258041290594,0.20152258041290594
101.67,0.12463866596811535,0.12463866596811535
101.671,0.04432438105302938,0.04432438105302938
101.672,0.015803902498715106,-0.015803902498715106
101.673,0.039483290812333594,-0.039483290812333594
101.674,0.022313388519240918,-0.022313388519240918
101.675,0.026772827303705338,0.026772827303705338
101.676,0.08754446764367874,0.08754446764367874
101.677,0.1336152170440208,0.1336152170440208
101.678,0.13949606245612722,0.13949606245612722
101.679,0.08782989236623928,0.08782989236623928
101.68,0.02504410657326117,-0.02504410657326117
101.681,0.186712924199685,-0.186712924199685
101.682,0.37028031223283664,-0.37028031223283664
101.683,0.5397352737064716,-0.5397352737064716
101.684,0.657936914197436,-0.657936914197436
101.685,0.695335388698693,-0.695335388698693
101.686,0.6372849211945881,-0.6372849211945881
101.687,0.4880886665844535,-0.4880886665844535
101.688,0.2706950796064558,-0.2706950796064558
101.689,0.0220503763407085,-0.0220503763407085
101.69,0.2147832339042155,0.2147832339042155
101.691,0.39981006630450566,0.39981006630450566
101.692,0.5043390991712995,0.5043390991712995
101.693,0.5163226599323982,0.5163226599323982
101.694,0.4416496889237338,0.4416496889237338
101.695,0.3013418406177111,0.3013418406177111
101.696,0.12566336140247358,0.12566336140247358
101.697,0.053116643979280065,-0.053116643979280065
101.698,0.20737521515421165,-0.20737521515421165
101.699,0.318631829232196,-0.318631829232196
101.7,0.37910689614373516,-0.37910689614373516
101.701,0.39049483469154755,-0.39049483469154755
101.702,0.3608874324965423,-0.3608874324965423
101.703,0.301176919643908,-0.301176919643908
101.704,0.22217679883920016,-0.22217679883920016
101.705,0.1331957093456243,-0.1331957093456243
101.706,0.04209727165072419,-0.04209727165072419
101.707,0.04375162420382561,0.04375162420382561
101.708,0.11656730970668328,0.11656730970668328
101.709,0.1681032002903995,0.1681032002903995
101.71,0.19084509909677405,0.19084509909677405
101.711,0.18018438788668933,0.18018438788668933
101.712,0.13674734501481933,0.13674734501481933
101.713,0.0678119667592576,0.0678119667592576
101.714,0.013073858576272523,-0.013073858576272523
101.715,0.08858974324076663,-0.08858974324076663
101.716,0.14180847196252988,-0.14180847196252988
101.717,0.1608984279888125,-0.1608984279888125
101.718,0.14288733643962348,-0.14288733643962348
101.719,0.09515915285810117,-0.09515915285810117
101.72,0.03397751978774155,-0.03397751978774155
101.721,0.01975961548940286,0.01975961548940286
101.722,0.04642277695661323,0.04642277695661323
101.723,0.033502099570003274,0.033502099570003274
101.724,0.02037839231432259,-0.02037839231432259
101.725,0.10457808021127901,-0.10457808021127901
101.726,0.1990661771541241,-0.1990661771541241
101.727,0.2798731054909348,-0.2798731054909348
101.728,0.32580956827175,-0.32580956827175
101.729,0.3244881771977396,-0.3244881771977396
101.73,0.27587061272151703,-0.27587061272151703
101.731,0.1922911857871331,-0.1922911857871331
101.732,0.09495142801781209,-0.09495142801781209
101.733,0.007920703514263328,-0.007920703514263328
101.734,0.04859886059946228,0.04859886059946228
101.735,0.06379016349003774,0.06379016349003774
101.736,0.03895032146889976,0.03895032146889976
101.737,0.013307544967305796,-0.013307544967305796
101.738,0.07309003440695372,-0.07309003440695372
101.739,0.11928512309623729,-0.11928512309623729
101.74,0.13588425204716503,-0.13588425204716503
101.741,0.11675809143941884,-0.11675809143941884
101.742,0.06754462182323462,-0.06754462182323462
101.743,0.00413344694174822,-0.00413344694174822
101.744,0.05182298005093511,0.05182298005093511
101.745,0.07913177439097518,0.07913177439097518
101.746,0.06331557759809225,0.06331557759809225
101.747,0.001198555065943463,0.001198555065943463
101.748,0.09744009890132777,-0.09744009890132777
101.749,0.2116461818412525,-0.2116461818412525
101.75,0.3141208894093982,-0.3141208894093982
101.751,0.37793243623649775,-0.37793243623649775
101.752,0.38344331346392646,-0.38344331346392646
101.753,0.32370050727395205,-0.32370050727395205
101.754,0.2068809997479214,-0.2068809997479214
101.755,0.055083690841576716,-0.055083690841576716
101.756,0.10035098169848311,0.10035098169848311
101.757,0.22594290127587757,0.22594290127587757
101.758,0.2939102267492639,0.2939102267492639
101.759,0.28882487649150246,0.28882487649150246
101.76,0.21141017033264742,0.21141017033264742
101.761,0.07848323716837968,0.07848323716837968
101.762,0.08099876414559393,-0.08099876414559393
101.763,0.23283345459629556,-0.23283345459629556
101.764,0.34568132605815916,-0.34568132605815916
101.765,0.39832706424342923,-0.39832706424342923
101.766,0.3842480461736535,-0.3842480461736535
101.767,0.31236157851878055,-0.31236157851878055
101.768,0.20385548653970775,-0.20385548653970775
101.769,0.08606862702280005,-0.08606862702280005
101.77,0.014825358547652767,0.014825358547652767
101.771,0.08029678168075716,0.08029678168075716
101.772,0.10337535176392731,0.10337535176392731
101.773,0.0890806088188365,0.0890806088188365
101.774,0.05149859966763426,0.05149859966763426
101.775,0.00861324739696534,0.00861324739696534
101.776,0.02339797214455963,-0.02339797214455963
101.777,0.03464799558235088,-0.03464799558235088
101.778,0.023554195490119834,-0.023554195490119834
101.779,0.003989779395631388,0.003989779395631388
101.78,0.037709568676444816,0.037709568676444816
101.781,0.06703975241958826,0.06703975241958826
101.782,0.08471055275586159,0.08471055275586159
101.783,0.08864264565633628,0.08864264565633628
101.784,0.08167027197717247,0.08167027197717247
101.785,0.0694524196303492,0.0694524196303492
101.786,0.057589773580268844,0.057589773580268844
101.787,0.04920153405410077,0.04920153405410077
101.788,0.0439516927127972,0.0439516927127972
101.789,0.038859957447095805,0.038859957447095805
101.79,0.030449242979640356,0.030449242979640356
101.791,0.017183206714257437,0.017183206714257437
101.792,0.0009808659384888951,0.0009808659384888951
101.793,0.013055676770740376,-0.013055676770740376
101.794,0.018818168840629368,-0.018818168840629368
101.795,0.012530486799430252,-0.012530486799430252
101.796,0.004126271294365047,0.004126271294365047
101.797,0.022600701596939388,0.022600701596939388
101.798,0.02878773722437189,0.02878773722437189
101.799,0.007135537789747071,0.007135537789747071
101.8,0.053506876206689036,-0.053506876206689036
101.801,0.15420460564699012,-0.15420460564699012
101.802,0.28256724655249377,-0.28256724655249377
101.803,0.4133374809853736,-0.4133374809853736
101.804,0.5134196756546806,-0.5134196756546806
101.805,0.550368264748359,-0.550368264748359
101.806,0.5020755058995451,-0.5020755058995451
101.807,0.36475348797692564,-0.36475348797692564
101.808,0.1565611097723284,-0.1565611097723284
101.809,0.08464117328800191,0.08464117328800191
101.81,0.30923632277503565,0.30923632277503565
101.811,0.467592709296206,0.467592709296206
101.812,0.5224793631641829,0.5224793631641829
101.813,0.4587196653716574,0.4587196653716574
101.814,0.2873649232625901,0.2873649232625901
101.815,0.043204534142577744,0.043204534142577744
101.816,0.22368470991480605,-0.22368470991480605
101.817,0.4599881556624169,-0.4599881556624169
101.818,0.6215056282062628,-0.6215056282062628
101.819,0.6825643453808246,-0.6825643453808246
101.82,0.6402389329244665,-0.6402389329244665
101.821,0.512707209701578,-0.512707209701578
101.822,0.33273582990486383,-0.33273582990486383
101.823,0.13853090587768846,-0.13853090587768846
101.824,0.03533688919514222,0.03533688919514222
101.825,0.16459187969850264,0.16459187969850264
101.826,0.23817171893916522,0.23817171893916522
101.827,0.2573543528277862,0.2573543528277862
101.828,0.23214759819040132,0.23214759819040132
101.829,0.17659658227632402,0.17659658227632402
101.83,0.10463527904202907,0.10463527904202907
101.831,0.02754997808475701,0.02754997808475701
101.832,0.04669322680876742,-0.04669322680876742
101.833,0.11274781794805888,-0.11274781794805888
101.834,0.16671069713141884,-0.16671069713141884
101.835,0.20533205284073874,-0.20533205284073874
101.836,0.22606985800940915,-0.22606985800940915
101.837,0.22789082158385943,-0.22789082158385943
101.838,0.21226528852426807,-0.21226528852426807
101.839,0.18364652919168267,-0.18364652919168267
101.84,0.1489237770852211,-0.1489237770852211
101.841,0.11579849920979779,-0.11579849920979779
101.842,0.09055071942392101,-0.09055071942392101
101.843,0.07600974775779401,-0.07600974775779401
101.844,0.07056445699770009,-0.07056445699770009
101.845,0.06871870462861995,-0.06871870462861995
101.846,0.06313673737865277,-0.06313673737865277
101.847,0.047546055505809814,-0.047546055505809814
101.848,0.01949701220906752,-0.01949701220906752
101.849,0.01803187161886255,0.01803187161886255
101.85,0.05683225674592962,0.05683225674592962
101.851,0.08550991271383945,0.08550991271383945
101.852,0.09278090827944574,0.09278090827944574
101.853,0.07099130006964272,0.07099130006964272
101.854,0.01874822000287013,0.01874822000287013
101.855,0.05815844512918844,-0.05815844512918844
101.856,0.14781056807800574,-0.14781056807800574
101.857,0.23484305411862672,-0.23484305411862672
101.858,0.3039360199280148,-0.3039360199280148
101.859,0.34313086948063876,-0.34313086948063876
101.86,0.34613719843293167,-0.34613719843293167
101.861,0.31318817289420975,-0.31318817289420975
101.862,0.25046581486240727,-0.25046581486240727
101.863,0.16848448483170042,-0.16848448483170042
101.864,0.07998110415397108,-0.07998110415397108
101.865,0.0021976320062362387,0.0021976320062362387
101.866,0.06691756598804943,0.06691756598804943
101.867,0.10620318793951222,0.10620318793951222
101.868,0.11632866510304063,0.11632866510304063
101.869,0.09853786884926152,0.09853786884926152
101.87,0.05924253693140025,0.05924253693140025
101.871,0.00942712193273354,0.00942712193273354
101.872,0.03699500775400888,-0.03699500775400888
101.873,0.06590940827038516,-0.06590940827038516
101.874,0.06645707746691032,-0.06645707746691032
101.875,0.034438016782522785,-0.034438016782522785
101.876,0.02538966381810681,0.02538966381810681
101.877,0.09910990168098999,0.09910990168098999
101.878,0.1660915915888661,0.1660915915888661
101.879,0.2038541040056543,0.2038541040056543
101.88,0.19428393091525953,0.19428393091525953
101.881,0.1294916059640785,0.1294916059640785
101.882,0.015439174367206876,0.015439174367206876
101.883,0.12807951890197977,-0.12807951890197977
101.884,0.2715348047090773,-0.2715348047090773
101.885,0.38301235850103865,-0.38301235850103865
101.886,0.4368843561761371,-0.4368843561761371
101.887,0.4212766669052347,-0.4212766669052347
101.888,0.3419876094292573,-0.3419876094292573
101.889,0.22146137056202964,-0.22146137056202964
101.89,0.09287486096914899,-0.09287486096914899
101.891,0.009085988509744514,0.009085988509744514
101.892,0.05809655817414505,0.05809655817414505
101.893,0.043758762801615836,0.043758762801615836
101.894,0.025457232310367672,-0.025457232310367672
101.895,0.12483640017755726,-0.12483640017755726
101.896,0.22085372986584895,-0.22085372986584895
101.897,0.28118958201088007,-0.28118958201088007
101.898,0.2843064245569238,-0.2843064245569238
101.899,0.22571981009542075,-0.22571981009542075
101.9,0.11913562545894718,-0.11913562545894718
101.901,0.0077857311082647485,0.0077857311082647485
101.902,0.12164873460500414,0.12164873460500414
101.903,0.1929787409557302,0.1929787409557302
101.904,0.2044290264209776,0.2044290264209776
101.905,0.15520819732795332,0.15520819732795332
101.906,0.06063339556429548,0.06063339556429548
101.907,0.05278673428113634,-0.05278673428113634
101.908,0.15505349040374394,-0.15505349040374394
101.909,0.22079373713509343,-0.22079373713509343
101.91,0.23549749113691743,-0.23549749113691743
101.911,0.198336434135853,-0.198336434135853
101.912,0.1211520683178795,-0.1211520683178795
101.913,0.0243245899341199,-0.0243245899341199
101.914,0.0689936051972091,0.0689936051972091
101.915,0.13856267928487354,0.13856267928487354
101.916,0.17124013393027315,0.17124013393027315
101.917,0.16290022284936723,0.16290022284936723
101.918,0.11806443079399398,0.11806443079399398
101.919,0.047802459999946256,0.047802459999946256
101.92,0.03325885263803374,-0.03325885263803374
101.921,0.11001757291365521,-0.11001757291365521
101.922,0.16951315488716512,-0.16951315488716512
101.923,0.20281628213305858,-0.20281628213305858
101.924,0.2061436290675993,-0.2061436290675993
101.925,0.18122388737333384,-0.18122388737333384
101.926,0.13491381340530295,-0.13491381340530295
101.927,0.07802718317274715,-0.07802718317274715
101.928,0.023389317293010192,-0.023389317293010192
101.929,0.016697667313091635,0.016697667313091635
101.93,0.03314566618239234,0.03314566618239234
101.931,0.022286308572207814,0.022286308572207814
101.932,0.013086096544110304,-0.013086096544110304
101.933,0.06429729465685152,-0.06429729465685152
101.934,0.11901987739933906,-0.11901987739933906
101.935,0.1646196843434392,-0.1646196843434392
101.936,0.19165619911992415,-0.19165619911992415
101.937,0.19642275476365822,-0.19642275476365822
101.938,0.18165517953802834,-0.18165517953802834
101.939,0.155125035773773,-0.155125035773773
101.94,0.12657584615702244,-0.12657584615702244
101.941,0.10408632862926925,-0.10408632862926925
101.942,0.09120240318209272,-0.09120240318209272
101.943,0.08594099603187555,-0.08594099603187555
101.944,0.08208957696270014,-0.08208957696270014
101.945,0.07233985179656044,-0.07233985179656044
101.946,0.052035292298381775,-0.052035292298381775
101.947,0.021988519632670567,-0.021988519632670567
101.948,0.010904374261343941,0.010904374261343941
101.949,0.035722841606466105,0.035722841606466105
101.95,0.04166803249627993,0.04166803249627993
101.951,0.02279867778203304,0.02279867778203304
101.952,0.01853377752379215,-0.01853377752379215
101.953,0.07111741586055276,-0.07111741586055276
101.954,0.11777124085152046,-0.11777124085152046
101.955,0.14098651096580406,-0.14098651096580406
101.956,0.12945905202423136,-0.12945905202423136
101.957,0.08311230206817743,-0.08311230206817743
101.958,0.014538101296746375,-0.014538101296746375
101.959,0.05407283470648405,0.05407283470648405
101.96,0.09784125584071068,0.09784125584071068
101.961,0.0977943386133393,0.0977943386133393
101.962,0.048177067959947584,0.048177067959947584
101.963,0.040272466179497535,-0.040272466179497535
101.964,0.14259634068359195,-0.14259634068359195
101.965,0.2270683561727712,-0.2270683561727712
101.966,0.26557077153723807,-0.26557077153723807
101.967,0.2434436632314242,-0.2434436632314242
101.968,0.16531473286047504,-0.16531473286047504
101.969,0.054621662485537015,-0.054621662485537015
101.97,0.05337283996582198,0.05337283996582198
101.971,0.12299854877481686,0.12299854877481686
101.972,0.13029154157306455,0.13029154157306455
101.973,0.0716394385027097,0.0716394385027097
101.974,0.03419316631204361,-0.03419316631204361
101.975,0.15164761321207887,-0.15164761321207887
101.976,0.2399515232105568,-0.2399515232105568
101.977,0.2669440357328918,-0.2669440357328918
101.978,0.22047603864464516,-0.22047603864464516
101.979,0.11338552908021937,-0.11338552908021937
101.98,0.01987574374053991,0.01987574374053991
101.981,0.13408475067712566,0.13408475067712566
101.982,0.18809958494264234,0.18809958494264234
101.983,0.1588046277916182,0.1588046277916182
101.984,0.04942379014568843,0.04942379014568843
101.985,0.11071247101632653,-0.11071247101632653
101.986,0.27502569997578674,-0.27502569997578674
101.987,0.3943503206845048,-0.3943503206845048
101.988,0.43259657403051066,-0.43259657403051066
101.989,0.37824852498467443,-0.37824852498467443
101.99,0.24790946521218082,-0.24790946521218082
101.991,0.08076770575534331,-0.08076770575534331
101.992,0.07410945613586395,0.07410945613586395
101.993,0.17337360916375832,0.17337360916375832
101.994,0.19270215698547655,0.19270215698547655
101.995,0.1334953208105487,0.1334953208105487
101.996,0.02096037243301585,0.02096037243301585
101.997,0.10546496030942398,-0.10546496030942398
101.998,0.20583136604476948,-0.20583136604476948
101.999,0.25272240619000197,-0.25272240619000197
102.0,0.23920566179786373,-0.23920566179786373
102.001,0.179194844365137,-0.179194844365137
102.002,0.10047315859479111,-0.10047315859479111
102.003,0.03321553856305737,-0.03321553856305737
102.004,0.0016353450418831184,0.0016353450418831184
102.005,0.00014283107287738073,-0.00014283107287738073
102.006,0.025370443501648965,-0.025370443501648965
102.007,0.04970924739542815,-0.04970924739542815
102.008,0.048383548231196616,-0.048383548231196616
102.009,0.007276517978180519,-0.007276517978180519
102.01,0.0698560322640196,0.0698560322640196
102.011,0.16091595730687147,0.16091595730687147
102.012,0.23215525216476673,0.23215525216476673
102.013,0.24983345958354852,0.24983345958354852
102.014,0.19278943218385391,0.19278943218385391
102.015,0.06144665629511614,0.06144665629511614
102.016,0.1200792040978147,-0.1200792040978147
102.017,0.30977248287567816,-0.30977248287567816
102.018,0.45971321312940405,-0.45971321312940405
102.019,0.5304483507317871,-0.5304483507317871
102.02,0.5030765037783596,-0.5030765037783596
102.021,0.38512426047526405,-0.38512426047526405
102.022,0.2083388105660835,-0.2083388105660835
102.023,0.019165072155261753,-0.019165072155261753
102.024,0.1349823546582023,0.1349823546582023
102.025,0.21927585635757807,0.21927585635757807
102.026,0.22068230352536955,0.22068230352536955
102.027,0.15019027731290469,0.15019027731290469
102.028,0.03775502539756337,0.03775502539756337
102.029,0.07803319745436821,-0.07803319745436821
102.03,0.1620237525937862,-0.1620237525937862
102.031,0.1924978086691691,-0.1924978086691691
102.032,0.16621232268439612,-0.16621232268439612
102.033,0.09743455995583583,-0.09743455995583583
102.034,0.011892431230677625,-0.011892431230677625
102.035,0.061939995810593285,0.061939995810593285
102.036,0.10125281212014436,0.10125281212014436
102.037,0.09452103468740813,0.09452103468740813
102.038,0.043090441941159074,0.043090441941159074
102.039,0.041034901429448545,-0.041034901429448545
102.04,0.13978989967323796,-0.13978989967323796
102.041,0.23412328903340363,-0.23412328903340363
102.042,0.30791725096013045,-0.30791725096013045
102.043,0.34994666008661734,-0.34994666008661734
102.044,0.35404846449154315,-0.35404846449154315
102.045,0.3183730871503063,-0.3183730871503063
102.046,0.24474843400193946,-0.24474843400193946
102.047,0.1387880619808204,-0.1387880619808204
102.048,0.01064988454155713,-0.01064988454155713
102.049,0.12432840589084515,0.12432840589084515
102.05,0.24617748196349165,0.24617748196349165
102.051,0.3328054142571819,0.3328054142571819
102.052,0.36446883796590646,0.36446883796590646
102.053,0.3292420817154884,0.3292420817154884
102.054,0.22777785157652297,0.22777785157652297
102.055,0.07548870112676309,0.07548870112676309
102.056,0.09916014498190551,-0.09916014498190551
102.057,0.2604003953722688,-0.2604003953722688
102.058,0.37373265052610394,-0.37373265052610394
102.059,0.4149986844931891,-0.4149986844931891
102.06,0.37722657239166235,-0.37722657239166235
102.061,0.273009840956011,-0.273009840956011
102.062,0.13145243489877967,-0.13145243489877967
102.063,0.009629600220366852,0.009629600220366852
102.064,0.11405496858776187,0.11405496858776187
102.065,0.15713569530822968,0.15713569530822968
102.066,0.1321226426846136,0.1321226426846136
102.067,0.051354229602704526,0.051354229602704526
102.068,0.05814067926205291,-0.05814067926205291
102.069,0.16313733954394283,-0.16313733954394283
102.07,0.23414452424023757,-0.23414452424023757
102.071,0.2537527242368819,-0.2537527242368819
102.072,0.22098021549930968,-0.22098021549930968
102.073,0.1505169956708522,-0.1505169956708522
102.074,0.06736551091263965,-0.06736551091263965
102.075,0.0012618783196645111,0.0012618783196645111
102.076,0.0342170261679291,0.0342170261679291
102.077,0.022406569866460613,0.022406569866460613
102.078,0.02910761184993227,-0.02910761184993227
102.079,0.10324313114143613,-0.10324313114143613
102.08,0.17635807548679705,-0.17635807548679705
102.081,0.225259233458186,-0.225259233458186
102.082,0.23370886867519247,-0.23370886867519247
102.083,0.19671798353037162,-0.19671798353037162
102.084,0.1216781546013953,-0.1216781546013953
102.085,0.026296320178362587,-0.026296320178362587
102.086,0.06591689444924498,0.06591689444924498
102.087,0.13137733606435997,0.13137733606435997
102.088,0.1520318751494134,0.1520318751494134
102.089,0.11967625604787457,0.11967625604787457
102.09,0.038184795751221356,0.038184795751221356
102.091,0.07673225759847724,-0.07673225759847724
102.092,0.20022489406398414,-0.20022489406398414
102.093,0.30306333584438705,-0.30306333584438705
102.094,0.35772482847893805,-0.35772482847893805
102.095,0.3447542613297442,-0.3447542613297442
102.096,0.2581164223734278,-0.2581164223734278
102.097,0.10821646733743961,-0.10821646733743961
102.098,0.0784800161900443,0.0784800161900443
102.099,0.2636926522356393,0.2636926522356393
102.1,0.4050106652849963,0.4050106652849963
102.101,0.46559953098631524,0.46559953098631524
102.102,0.42371546458926423,0.42371546458926423
102.103,0.27950640623751477,0.27950640623751477
102.104,0.05696099813457689,0.05696099813457689
102.105,0.20005694845280342,-0.20005694845280342
102.106,0.43721094983006004,-0.43721094983006004
102.107,0.6024680260637674,-0.6024680260637674
102.108,0.6590431038828726,-0.6590431038828726
102.109,0.5950092289014877,-0.5950092289014877
102.11,0.42678823018980316,-0.42678823018980316
102.111,0.19532523126396195,-0.19532523126396195
102.112,0.04422060665845695,0.04422060665845695
102.113,0.2365658736435794,0.2365658736435794
102.114,0.34033631078661997,0.34033631078661997
102.115,0.33818040777459313,0.33818040777459313
102.116,0.24021347435960783,0.24021347435960783
102.117,0.07997187117609017,0.07997187117609017
102.118,0.09578219347194705,-0.09578219347194705
102.119,0.24033207061219908,-0.24033207061219908
102.12,0.3194984061637124,-0.3194984061637124
102.121,0.3198809537150369,-0.3198809537150369
102.122,0.25078155257806467,-0.25078155257806467
102.123,0.13968947742724291,-0.13968947742724291
102.124,0.023086711781503566,-0.023086711781503566
102.125,0.06443873851138804,0.06443873851138804
102.126,0.09953706287684172,0.09953706287684172
102.127,0.07540816195105404,0.07540816195105404
102.128,0.002015240208405711,0.002015240208405711
102.129,0.09826339457552669,-0.09826339457552669
102.13,0.19774975531876227,-0.19774975531876227
102.131,0.2709987704613178,-0.2709987704613178
102.132,0.3006383606355675,-0.3006383606355675
102.133,0.2802613439126601,-0.2802613439126601
102.134,0.21421286803623296,-0.21421286803623296
102.135,0.11505503125661332,-0.11505503125661332
102.136,2.8608509689220796e-05,2.8608509689220796e-05
102.137,0.11268988805025759,0.11268988805025759
102.138,0.20601427407079886,0.20601427407079886
102.139,0.2661590450381033,0.2661590450381033
102.14,0.2833927306769968,0.2833927306769968
102.141,0.25301184780392516,0.25301184780392516
102.142,0.1763633303153147,0.1763633303153147
102.143,0.0617516641390814,0.0617516641390814
102.144,0.07538256035066315,-0.07538256035066315
102.145,0.21372181695758463,-0.21372181695758463
102.146,0.32916685918292465,-0.32916685918292465
102.147,0.3995239502530069,-0.3995239502530069
102.148,0.4098053811662965,-0.4098053811662965
102.149,0.35664919101481285,-0.35664919101481285
102.15,0.25032553209687014,-0.25032553209687014
102.151,0.11332755757386614,-0.11332755757386614
102.152,0.024480457114583132,0.024480457114583132
102.153,0.13307482795958459,0.13307482795958459
102.154,0.18990319433930192,0.18990319433930192
102.155,0.18571286381813978,0.18571286381813978
102.156,0.12678994820111789,0.12678994820111789
102.157,0.03286340137592236,0.03286340137592236
102.158,0.06875087747204145,-0.06875087747204145
102.159,0.15102365797220219,-0.15102365797220219
102.16,0.19473944747155048,-0.19473944747155048
102.161,0.1934456921009523,-0.1934456921009523
102.162,0.15443505208613073,-0.15443505208613073
102.163,0.09563794534856906,-0.09563794534856906
102.164,0.039568466155064264,-0.039568466155064264
102.165,0.006317761256831145,-0.006317761256831145
102.166,0.007762973179480492,-0.007762973179480492
102.167,0.044633393426294465,-0.044633393426294465
102.168,0.10706273944779987,-0.10706273944779987
102.169,0.17812473378742433,-0.17812473378742433
102.17,0.2389829778303012,-0.2389829778303012
102.171,0.27395149327984514,-0.27395149327984514
102.172,0.27402015311243133,-0.27402015311243133
102.173,0.23809761355501013,-0.23809761355501013
102.174,0.1720690073646931,-0.1720690073646931
102.175,0.08643873655498846,-0.08643873655498846
102.176,0.006390933694947032,0.006390933694947032
102.177,0.09431559234876308,0.09431559234876308
102.178,0.1667818652164037,0.1667818652164037
102.179,0.21522516557068183,0.21522516557068183
102.18,0.23318646339514792,0.23318646339514792
102.181,0.21664298598600795,0.21664298598600795
102.182,0.16480730119343323,0.16480730119343323
102.183,0.08120185774323452,0.08120185774323452
102.184,0.02556690770758341,-0.02556690770758341
102.185,0.14202385932348038,-0.14202385932348038
102.186,0.2514747810036597,-0.2514747810036597
102.187,0.337008074260293,-0.337008074260293
102.188,0.38516567559850656,-0.38516567559850656
102.189,0.3891874123174607,-0.3891874123174607
102.19,0.35071046249322946,-0.35071046249322946
102.191,0.2792273688621738,-0.2792273688621738
102.192,0.18934481215164922,-0.18934481215164922
102.193,0.09667320647709898,-0.09667320647709898
102.194,0.013706480644722241,-0.013706480644722241
102.195,0.052902986697667576,0.052902986697667576
102.196,0.10275460261237668,0.10275460261237668
102.197,0.1397317563031284,0.1397317563031284
102.198,0.16850582936468506,0.16850582936468506
102.199,0.19097819529885318,0.19097819529885318
102.2,0.2041909145444285,0.2041909145444285
102.201,0.200697739787004,0.200697739787004
102.202,0.17142595062375232,0.17142595062375232
102.203,0.1100319585194669,0.1100319585194669
102.204,0.017059018028014128,0.017059018028014128
102.205,0.09786576626897892,-0.09786576626897892
102.206,0.2169417201076187,-0.2169417201076187
102.207,0.3182532372500667,-0.3182532372500667
102.208,0.38181940036627426,-0.38181940036627426
102.209,0.3956379774707163,-0.3956379774707163
102.21,0.3595852324583838,-0.3595852324583838
102.211,0.2856787657779274,-0.2856787657779274
102.212,0.19444189555746205,-0.19444189555746205
102.213,0.10849388159225348,-0.10849388159225348
102.214,0.04552340123075094,-0.04552340123075094
102.215,0.013086810800936988,-0.013086810800936988
102.216,0.007074771584053341,-0.007074771584053341
102.217,0.014400129258965055,-0.014400129258965055
102.218,0.01892920620369365,-0.01892920620369365
102.219,0.008464786863755625,-0.008464786863755625
102.22,0.019849905966883075,0.019849905966883075
102.221,0.05781455969603333,0.05781455969603333
102.222,0.08892952611528004,0.08892952611528004
102.223,0.09475719449851883,0.09475719449851883
102.224,0.0626223177306946,0.0626223177306946
102.225,0.008221009259266832,-0.008221009259266832
102.226,0.10439937869024862,-0.10439937869024862
102.227,0.20130718081537347,-0.20130718081537347
102.228,0.2703708253354792,-0.2703708253354792
102.229,0.2883711583475643,-0.2883711583475643
102.23,0.2456570360082071,-0.2456570360082071
102.231,0.15033310879301165,-0.15033310879301165
102.232,0.026794437340116106,-0.026794437340116106
102.233,0.09112189325691222,0.09112189325691222
102.234,0.17024874663604384,0.17024874663604384
102.235,0.18819414274955482,0.18819414274955482
102.236,0.14012861766930107,0.14012861766930107
102.237,0.040037817672520015,0.040037817672520015
102.238,0.08392200266481209,-0.08392200266481209
102.239,0.19835591265682684,-0.19835591265682684
102.24,0.27483504134717585,-0.27483504134717585
102.241,0.29800490688711,-0.29800490688711
102.242,0.26903521401752595,-0.26903521401752595
102.243,0.20351904995820613,-0.20351904995820613
102.244,0.12486241494756789,-0.12486241494756789
102.245,0.05571563670384472,-0.05571563670384472
102.246,0.010561164113740196,-0.010561164113740196
102.247,0.007991331594751516,0.007991331594751516
102.248,0.008113673128608667,0.008113673128608667
102.249,0.0035951046767752626,0.0035951046767752626
102.25,0.006824382449807986,0.006824382449807986
102.251,0.02277319203268169,0.02277319203268169
102.252,0.04639064163268669,0.04639064163268669
102.253,0.06446796088224871,0.06446796088224871
102.254,0.061284700533416725,0.061284700533416725
102.255,0.025854789174224235,0.025854789174224235
102.256,0.042090040286882235,-0.042090040286882235
102.257,0.1298518971346717,-0.1298518971346717
102.258,0.21439878145747637,-0.21439878145747637
102.259,0.2692358017724936,-0.2692358017724936
102.26,0.2732762637645876,-0.2732762637645876
102.261,0.21864731331953646,-0.21864731331953646
102.262,0.11461923386786843,-0.11461923386786843
102.263,0.013895254522705791,0.013895254522705791
102.264,0.13300048539044806,0.13300048539044806
102.265,0.2096089304793478,0.2096089304793478
102.266,0.22126030395321616,0.22126030395321616
102.267,0.16283766679058043,0.16283766679058043
102.268,0.04807165185672235,0.04807165185672235
102.269,0.09456711187192002,-0.09456711187192002
102.27,0.23018398366204318,-0.23018398366204318
102.271,0.3272937177791094,-0.3272937177791094
102.272,0.36612291641551054,-0.36612291641551054
102.273,0.34298653000599644,-0.34298653000599644
102.274,0.26973808511588315,-0.26973808511588315
102.275,0.16891811229688558,-0.16891811229688558
102.276,0.06651727020520182,-0.06651727020520182
102.277,0.015183902490193413,0.015183902490193413
102.278,0.06256385935416042,0.06256385935416042
102.279,0.07227205284692828,0.07227205284692828
102.28,0.04965018676055544,0.04965018676055544
102.281,0.005160789660270115,0.005160789660270115
102.282,0.049508993394382306,-0.049508993394382306
102.283,0.10422750499324085,-0.10422750499324085
102.284,0.15140356815055922,-0.15140356815055922
102.285,0.18543348931161718,-0.18543348931161718
102.286,0.20156992355753922,-0.20156992355753922
102.287,0.19535191363345383,-0.19535191363345383
102.288,0.16333331815904062,-0.16333331815904062
102.289,0.10505584002627832,-0.10505584002627832
102.29,0.02539499164686765,-0.02539499164686765
102.291,0.06405569620888829,0.06405569620888829
102.292,0.14576252585934268,0.14576252585934268
102.293,0.19966184699342904,0.19966184699342904
102.294,0.2086029594780492,0.2086029594780492
102.295,0.16423170167604484,0.16423170167604484
102.296,0.0712281197036373,0.0712281197036373
102.297,0.05192971147060177,-0.05192971147060177
102.298,0.17651083827191139,-0.17651083827191139
102.299,0.2707969315366129,-0.2707969315366129
102.3,0.30911379595664346,-0.30911379595664346
102.301,0.2798690813578564,-0.2798690813578564
102.302,0.1899221061286337,-0.1899221061286337
102.303,0.06361914782221179,-0.06361914782221179
102.304,0.06353755010597162,0.06353755010597162
102.305,0.1548839343047177,0.1548839343047177
102.306,0.1832966592032801,0.1832966592032801
102.307,0.1393179063894796,0.1393179063894796
102.308,0.03414223572849928,0.03414223572849928
102.309,0.10352849524255092,-0.10352849524255092
102.31,0.23585006804542152,-0.23585006804542152
102.311,0.3268808244865756,-0.3268808244865756
102.312,0.35294480433230746,-0.35294480433230746
102.313,0.30919632602054037,-0.30919632602054037
102.314,0.21049056789312692,-0.21049056789312692
102.315,0.08645487575269573,-0.08645487575269573
102.316,0.027569417991008205,0.027569417991008205
102.317,0.10084869329113544,0.10084869329113544
102.318,0.11571774243569188,0.11571774243569188
102.319,0.07177695534333672,0.07177695534333672
102.32,0.015148747228557968,-0.015148747228557968
102.321,0.11861899873473758,-0.11861899873473758
102.322,0.20975478285374705,-0.20975478285374705
102.323,0.2653666291641451,-0.2653666291641451
102.324,0.27365939048589416,-0.27365939048589416
102.325,0.2360947946590014,-0.2360947946590014
102.326,0.1653007000559259,-0.1653007000559259
102.327,0.08012827449434201,-0.08012827449434201
102.328,0.00030242333099783636,0.00030242333099783636
102.329,0.0616507402761588,0.0616507402761588
102.33,0.09711891981887555,0.09711891981887555
102.331,0.10746382720505343,0.10746382720505343
102.332,0.09873349546902688,0.09873349546902688
102.333,0.0788666530809119,0.0788666530809119
102.334,0.05448934757173718,0.05448934757173718
102.335,0.028967674651098507,0.028967674651098507
102.336,0.002183793905503384,0.002183793905503384
102.337,0.028163852116913413,-0.028163852116913413
102.338,0.06443998109066973,-0.06443998109066973
102.339,0.1070300954759612,-0.1070300954759612
102.34,0.15313800422681667,-0.15313800422681667
102.341,0.19681223115900137,-0.19681223115900137
102.342,0.2301430719136215,-0.2301430719136215
102.343,0.245210111345178,-0.245210111345178
102.344,0.23618482966837762,-0.23618482966837762
102.345,0.2010219578008412,-0.2010219578008412
102.346,0.1423505703914948,-0.1423505703914948
102.347,0.06740964978256514,-0.06740964978256514
102.348,0.012920123048310028,0.012920123048310028
102.349,0.08579890542083723,0.08579890542083723
102.35,0.1385622806079716,0.1385622806079716
102.351,0.16100442625358635,0.16100442625358635
102.352,0.14746617508567916,0.14746617508567916
102.353,0.09834361105575207,0.09834361105575207
102.354,0.020626841982121835,0.020626841982121835
102.355,0.07283818814340404,-0.07283818814340404
102.356,0.1654597034129247,-0.1654597034129247
102.357,0.2401448923655355,-0.2401448923655355
102.358,0.28306610680732003,-0.28306610680732003
102.359,0.2870412309580396,-0.2870412309580396
102.36,0.25354559194600423,-0.25354559194600423
102.361,0.19260313133603169,-0.19260313133603169
102.362,0.12033053494813617,-0.12033053494813617
102.363,0.05460478205678698,-0.05460478205678698
102.364,0.009979119674185855,-0.009979119674185855
102.365,0.006650201092739616,0.006650201092739616
102.366,0.0018039244157092016,-0.0018039244157092016
102.367,0.023521033080796006,-0.023521033080796006
102.368,0.041688018369186675,-0.041688018369186675
102.369,0.040389389707804146,-0.040389389707804146
102.37,0.010682582062450208,-0.010682582062450208
102.371,0.04515987664826704,0.04515987664826704
102.372,0.11283734795857847,0.11283734795857847
102.373,0.16924538842219672,0.16924538842219672
102.374,0.1890744563683897,0.1890744563683897
102.375,0.15296431237548358,0.15296431237548358
102.376,0.05474261494905375,0.05474261494905375
102.377,0.09462765351738167,-0.09462765351738167
102.378,0.2679078753910258,-0.2679078753910258
102.379,0.4273772435148514,-0.4273772435148514
102.38,0.5341827227091236,-0.5341827227091236
102.381,0.5587184354979555,-0.5587184354979555
102.382,0.48908341329411387,-0.48908341329411387
102.383,0.33512151264719237,-0.33512151264719237
102.384,0.1267617400623301,-0.1267617400623301
102.385,0.09300613646708888,0.09300613646708888
102.386,0.2786516581353726,0.2786516581353726
102.387,0.39325886733283366,0.39325886733283366
102.388,0.4172993420469522,0.4172993420469522
102.389,0.35271928292106725,0.35271928292106725
102.39,0.22139267136936236,0.22139267136936236
102.391,0.05857578068017477,0.05857578068017477
102.392,0.09666013046981903,-0.09666013046981903
102.393,0.21131966826632032,-0.21131966826632032
102.394,0.2660746317148136,-0.2660746317148136
102.395,0.25873598872033443,-0.25873598872033443
102.396,0.2030389249517488,-0.2030389249517488
102.397,0.12348295599884174,-0.12348295599884174
102.398,0.047957608087243586,-0.047957608087243586
102.399,0.00029944857093566757,-0.00029944857093566757
102.4,0.0052926667961961105,0.0052926667961961105
102.401,0.033220460628385906,-0.033220460628385906
102.402,0.10650209551740264,-0.10650209551740264
102.403,0.1972736049105639,-0.1972736049105639
102.404,0.2851546063862356,-0.2851546063862356
102.405,0.3515067888595633,-0.3515067888595633
102.406,0.3831275064928943,-0.3831275064928943
102.407,0.3741534409898727,-0.3741534409898727
102.408,0.32611727499389653,-0.32611727499389653
102.409,0.24656866135611033,-0.24656866135611033
102.41,0.14691198346678425,-0.14691198346678425
102.411,0.04010871555149831,-0.04010871555149831
102.412,0.06129399615099773,0.06129399615099773
102.413,0.14660424691499463,0.14660424691499463
102.414,0.20791056626505156,0.20791056626505156
102.415,0.24061734812478486,0.24061734812478486
102.416,0.2437082050713517,0.2437082050713517
102.417,0.2197679125574592,0.2197679125574592
102.418,0.17469633149517816,0.17469633149517816
102.419,0.11700481627132486,0.11700481627132486
102.42,0.056631620899923796,0.056631620899923796
102.421,0.0033400034746631224,0.0033400034746631224
102.422,0.03507382414935323,-0.03507382414935323
102.423,0.054399829536393884,-0.054399829536393884
102.424,0.0550476190755701,-0.0550476190755701
102.425,0.042150877303863465,-0.042150877303863465
102.426,0.0245837228476814,-0.0245837228476814
102.427,0.012988636010632937,-0.012988636010632937
102.428,0.017183505379607555,-0.017183505379607555
102.429,0.04351997116359074,-0.04351997116359074
102.43,0.09284578610065819,-0.09284578610065819
102.431,0.15964668737605303,-0.15964668737605303
102.432,0.2327111298554343,-0.2327111298554343
102.433,0.2973154270591042,-0.2973154270591042
102.434,0.33854102288857457,-0.33854102288857457
102.435,0.3450023348512149,-0.3450023348512149
102.436,0.31207477711007026,-0.31207477711007026
102.437,0.2437365484720606,-0.2437365484720606
102.438,0.15239772796304618,-0.15239772796304618
102.439,0.05654980569677148,-0.05654980569677148
102.44,0.023368830004075525,0.023368830004075525
102.441,0.06997167357249312,0.06997167357249312
102.442,0.0735333740987294,0.0735333740987294
102.443,0.034932183486646506,0.034932183486646506
102.444,0.03401799664291261,-0.03401799664291261
102.445,0.11315111828112889,-0.11315111828112889
102.446,0.17896095416618174,-0.17896095416618174
102.447,0.2108248943579959,-0.2108248943579959
102.448,0.19677948750065166,-0.19677948750065166
102.449,0.13719143677540946,-0.13719143677540946
102.45,0.04515956956991707,-0.04515956956991707
102.451,0.05664269477584649,0.05664269477584649
102.452,0.14195267425727764,0.14195267425727764
102.453,0.1881297299819471,0.1881297299819471
102.454,0.18254952037781313,0.18254952037781313
102.455,0.126289130322903,0.126289130322903
102.456,0.033942917278065865,0.033942917278065865
102.457,0.0704727072669118,-0.0704727072669118
102.458,0.16039009679702587,-0.16039009679702587
102.459,0.21432895674313324,-0.21432895674313324
102.46,0.22201255940477616,-0.22201255940477616
102.461,0.18709014849382322,-0.18709014849382322
102.462,0.12560660695134995,-0.12560660695134995
102.463,0.06066650398839124,-0.06066650398839124
102.464,0.01493494777757609,-0.01493494777757609
102.465,0.00332058046172079,-0.00332058046172079
102.466,0.028161345992256837,-0.028161345992256837
102.467,0.0784728503598987,-0.0784728503598987
102.468,0.13354932241264006,-0.13354932241264006
102.469,0.16982351086604963,-0.16982351086604963
102.47,0.1688336816783892,-0.1688336816783892
102.471,0.12375601150366955,-0.12375601150366955
102.472,0.042373327398977034,-0.042373327398977034
102.473,0.05455420975618197,0.05455420975618197
102.474,0.13911385467401516,0.13911385467401516
102.475,0.18453033743977065,0.18453033743977065
102.476,0.1733935420633257,0.1733935420633257
102.477,0.10328301491691061,0.10328301491691061
102.478,0.011972849579434675,-0.011972849579434675
102.479,0.14583696077129782,-0.14583696077129782
102.48,0.266373669361767,-0.266373669361767
102.481,0.3451554989785812,-0.3451554989785812
102.482,0.3651198223078588,-0.3651198223078588
102.483,0.32506563604262595,-0.32506563604262595
102.484,0.2395139947648346,-0.2395139947648346
102.485,0.1340590818453321,-0.1340590818453321
102.486,0.03767618148924878,-0.03767618148924878
102.487,0.025677029750174052,0.025677029750174052
102.488,0.04368023413514055,0.04368023413514055
102.489,0.01860297429832336,0.01860297429832336
102.49,0.034155858536248584,-0.034155858536248584
102.491,0.0913590365907474,-0.0913590365907474
102.492,0.12935872558823802,-0.12935872558823802
102.493,0.13139566876982367,-0.13139566876982367
102.494,0.09262192393445812,-0.09262192393445812
102.495,0.021443726935309604,-0.021443726935309604
102.496,0.06309192480066517,0.06309192480066517
102.497,0.13698010289740892,0.13698010289740892
102.498,0.17826480184904625,0.17826480184904625
102.499,0.17330670822077265,0.17330670822077265
102.5,0.12053965670199163,0.12053965670199163
102.501,0.03073176461997007,0.03073176461997007
102.502,0.07619595393616307,-0.07619595393616307
102.503,0.17676304296916556,-0.17676304296916556
102.504,0.2502622811031252,-0.2502622811031252
102.505,0.2840196000857955,-0.2840196000857955
102.506,0.27615151031242546,-0.27615151031242546
102.507,0.23516428223065,-0.23516428223065
102.508,0.1766702636744688,-0.1766702636744688
102.509,0.11831494695537781,-0.11831494695537781
102.51,0.07448436989916041,-0.07448436989916041
102.511,0.05236964222857532,-0.05236964222857532
102.512,0.050512554272227894,-0.050512554272227894
102.513,0.060182235674864804,-0.060182235674864804
102.514,0.06906643673568147,-0.06906643673568147
102.515,0.06605632344832468,-0.06605632344832468
102.516,0.04556866106956503,-0.04556866106956503
102.517,0.009986198255026668,-0.009986198255026668
102.518,0.030628511331053376,0.030628511331053376
102.519,0.06154319767610983,0.06154319767610983
102.52,0.06821718689109257,0.06821718689109257
102.521,0.04151399621354801,0.04151399621354801
102.522,0.018417335895934306,-0.018417335895934306
102.523,0.10093804225265346,-0.10093804225265346
102.524,0.18696389743631625,-0.18696389743631625
102.525,0.25383766936615737,-0.25383766936615737
102.526,0.28169969803722794,-0.28169969803722794
102.527,0.2594872382369513,-0.2594872382369513
102.528,0.18871132727119855,-0.18871132727119855
102.529,0.08375632716201808,-0.08375632716201808
102.53,0.031539012373451136,0.031539012373451136
102.531,0.13013017648565905,0.13013017648565905
102.532,0.18906208621275278,0.18906208621275278
102.533,0.1956610191439423,0.1956610191439423
102.534,0.15076891008245297,0.15076891008245297
102.535,0.06805012226283647,0.06805012226283647
102.536,0.030392255132549617,-0.030392255132549617
102.537,0.12070390210581305,-0.12070390210581305
102.538,0.18416423954624606,-0.18416423954624606
102.539,0.21211491343713995,-0.21211491343713995
102.54,0.20742883333690398,-0.20742883333690398
102.541,0.18216222057409182,-0.18216222057409182
102.542,0.1522984712999308,-0.1522984712999308
102.543,0.13145824820811525,-0.13145824820811525
102.544,0.12578645801370358,-0.12578645801370358
102.545,0.13181191550094462,-0.13181191550094462
102.546,0.13804108916636737,-0.13804108916636737
102.547,0.1297390182575383,-0.1297390182575383
102.548,0.09521420352046606,-0.09521420352046606
102.549,0.03135494771176128,-0.03135494771176128
102.55,0.05363099606900379,0.05363099606900379
102.551,0.14140013240044147,0.14140013240044147
102.552,0.20837377624642306,0.20837377624642306
102.553,0.23285695605440604,0.23285695605440604
102.554,0.20207226248527754,0.20207226248527754
102.555,0.11677150784073387,0.11677150784073387
102.556,0.008152973884217984,-0.008152973884217984
102.557,0.1473355866056828,-0.1473355866056828
102.558,0.27176068547921806,-0.27176068547921806
102.559,0.3565945443279058,-0.3565945443279058
102.56,0.3875785324776967,-0.3875785324776967
102.561,0.36405709256991636,-0.36405709256991636
102.562,0.29786896848574596,-0.29786896848574596
102.563,0.20871220925178713,-0.20871220925178713
102.564,0.11772136639420894,-0.11772136639420894
102.565,0.041483306368359174,-0.041483306368359174
102.566,0.011587348148849763,0.011587348148849763
102.567,0.04155910830041587,0.04155910830041587
102.568,0.05428775163418398,0.05428775163418398
102.569,0.05710715959918988,0.05710715959918988
102.57,0.054814989620713295,0.054814989620713295
102.571,0.047623499068050634,0.047623499068050634
102.572,0.031858505167643214,0.031858505167643214
102.573,0.0030012850509333333,0.0030012850509333333
102.574,0.04035587590240142,-0.04035587590240142
102.575,0.09352291878911634,-0.09352291878911634
102.576,0.14526500131200526,-0.14526500131200526
102.577,0.18048779392586267,-0.18048779392586267
102.578,0.18536154555193807,-0.18536154555193807
102.579,0.1530889676246644,-0.1530889676246644
102.58,0.08804843803362739,-0.08804843803362739
102.581,0.0064229328037335165,-0.0064229328037335165
102.582,0.0674311208688605,0.0674311208688605
102.583,0.10809272593057773,0.10809272593057773
102.584,0.09751315389594484,0.09751315389594484
102.585,0.03194009587236457,0.03194009587236457
102.586,0.07522960735708717,-0.07522960735708717
102.587,0.1960136391482621,-0.1960136391482621
102.588,0.2954014804731395,-0.2954014804731395
102.589,0.34175372134291915,-0.34175372134291915
102.59,0.3168076461202982,-0.3168076461202982
102.591,0.2220179212933865,-0.2220179212933865
102.592,0.07902871163454928,-0.07902871163454928
102.593,0.07608161064045116,0.07608161064045116
102.594,0.2031221385848263,0.2031221385848263
102.595,0.26949875125156897,0.26949875125156897
102.596,0.2596369023538856,0.2596369023538856
102.597,0.179152199902469,0.179152199902469
102.598,0.05249190135150883,0.05249190135150883
102.599,0.0851173587897881,-0.0851173587897881
102.6,0.19874755004234101,-0.19874755004234101
102.601,0.26426185832128557,-0.26426185832128557
102.602,0.2748677300850907,-0.2748677300850907
102.603,0.24173804625733453,-0.24173804625733453
102.604,0.1887088278847362,-0.1887088278847362
102.605,0.14302424338066522,-0.14302424338066522
102.606,0.1253670167399188,-0.1253670167399188
102.607,0.1425707784533924,-0.1425707784533924
102.608,0.1854267024452888,-0.1854267024452888
102.609,0.2322222328773761,-0.2322222328773761
102.61,0.25669750706660177,-0.25669750706660177
102.611,0.2376359816767043,-0.2376359816767043
102.612,0.16680377009153757,-0.16680377009153757
102.613,0.052564355709001864,-0.052564355709001864
102.614,0.08201030907402229,0.08201030907402229
102.615,0.20585796849008586,0.20585796849008586
102.616,0.28921666984548855,0.28921666984548855
102.617,0.312440126597449,0.312440126597449
102.618,0.2715300695004781,0.2715300695004781
102.619,0.1787344845014407,0.1787344845014407
102.62,0.05821733884427016,0.05821733884427016
102.621,0.061606010464390404,-0.061606010464390404
102.622,0.15647574125258035,-0.15647574125258035
102.623,0.21274136958544798,-0.21274136958544798
102.624,0.22994982242040052,-0.22994982242040052
102.625,0.21902178326568833,-0.21902178326568833
102.626,0.19693925006022395,-0.19693925006022395
102.627,0.17994845922452873,-0.17994845922452873
102.628,0.17764154305038315,-0.17764154305038315
102.629,0.1898418660623481,-0.1898418660623481
102.63,0.2071748243246644,-0.2071748243246644
102.631,0.21493837471868205,-0.21493837471868205
102.632,0.19882472679980834,-0.19882472679980834
102.633,0.15051841390034804,-0.15051841390034804
102.634,0.0713384582419666,-0.0713384582419666
102.635,0.027192181274143135,0.027192181274143135
102.636,0.1259513285199081,0.1259513285199081
102.637,0.20312772830810988,0.20312772830810988
102.638,0.2399401479668748,0.2399401479668748
102.639,0.22554148044096833,0.22554148044096833
102.64,0.15983918651094986,0.15983918651094986
102.641,0.05363617015915345,0.05363617015915345
102.642,0.07375352568389848,-0.07375352568389848
102.643,0.19865786263468999,-0.19865786263468999
102.644,0.29789980377668845,-0.29789980377668845
102.645,0.3532834842914905,-0.3532834842914905
102.646,0.3548895829391676,-0.3548895829391676
102.647,0.3027123942516381,-0.3027123942516381
102.648,0.206520182485476,-0.206520182485476
102.649,0.08408925039517057,-0.08408925039517057
102.65,0.04186074771298531,0.04186074771298531
102.651,0.14758528124021986,0.14758528124021986
102.652,0.2125445766346865,0.2125445766346865
102.653,0.22331071256084023,0.22331071256084023
102.654,0.17646314554407105,0.17646314554407105
102.655,0.07982428678582787,0.07982428678582787
102.656,0.04841823570579562,-0.04841823570579562
102.657,0.18278941427298268,-0.18278941427298268
102.658,0.29540374962774374,-0.29540374962774374
102.659,0.3617478756670133,-0.3617478756670133
102.66,0.3661306623765074,-0.3661306623765074
102.661,0.30549941823748683,-0.30549941823748683
102.662,0.19060341935214065,-0.19060341935214065
102.663,0.04407445431658852,-0.04407445431658852
102.664,0.10425353995211584,0.10425353995211584
102.665,0.2237528444535588,0.2237528444535588
102.666,0.2896418545869761,0.2896418545869761
102.667,0.28828327163584055,0.28828327163584055
102.668,0.21990459953274955,0.21990459953274955
102.669,0.0981615250628145,0.0981615250628145
102.67,0.05324566378901174,-0.05324566378901174
102.671,0.2059885971161335,-0.2059885971161335
102.672,0.33321180171521736,-0.33321180171521736
102.673,0.4149005927025178,-0.4149005927025178
102.674,0.44138145004561913,-0.44138145004561913
102.675,0.4143479550403327,-0.4143479550403327
102.676,0.3454172350356747,-0.3454172350356747
102.677,0.25275893864272636,-0.25275893864272636
102.678,0.15668736015653728,-0.15668736015653728
102.679,0.07522175845395296,-0.07522175845395296
102.68,0.020519045508901712,-0.020519045508901712
102.681,0.003172508791679407,0.003172508791679407
102.682,0.00027308899363720496,-0.00027308899363720496
102.683,0.02043504387609818,-0.02043504387609818
102.684,0.04333888072491343,-0.04333888072491343
102.685,0.055228099524752605,-0.055228099524752605
102.686,0.046300374157047464,-0.046300374157047464
102.687,0.0135495594077637,-0.0135495594077637
102.688,0.03802326740561979,0.03802326740561979
102.689,0.09626137420463898,0.09626137420463898
102.69,0.14473664610866832,0.14473664610866832
102.691,0.1671028082942012,0.1671028082942012
102.692,0.15188228305496798,0.15188228305496798
102.693,0.09639484620486871,0.09639484620486871
102.694,0.00861504105706934,0.00861504105706934
102.695,0.09380470696761978,-0.09380470696761978
102.696,0.187367329707817,-0.187367329707817
102.697,0.24860133269600526,-0.24860133269600526
102.698,0.2604600093450602,-0.2604600093450602
102.699,0.2174432934636531,-0.2174432934636531
102.7,0.1278650031154106,-0.1278650031154106
102.701,0.012422627006091758,-0.012422627006091758
102.702,0.10072477154552484,0.10072477154552484
102.703,0.18311370593784182,0.18311370593784182
102.704,0.21339291979337305,0.21339291979337305
102.705,0.18288519127624303,0.18288519127624303
102.706,0.0976908977896418,0.0976908977896418
102.707,0.02325067413323234,-0.02325067413323234
102.708,0.15351315457146852,-0.15351315457146852
102.709,0.2663001055305235,-0.2663001055305235
102.71,0.34118662930058163,-0.34118662930058163
102.711,0.36853945167846347,-0.36853945167846347
102.712,0.35048237529040616,-0.35048237529040616
102.713,0.29842751302479575,-0.29842751302479575
102.714,0.22829321805033154,-0.22829321805033154
102.715,0.15520434998503363,-0.15520434998503363
102.716,0.08949816029188784,-0.08949816029188784
102.717,0.035248180122645634,-0.035248180122645634
102.718,0.00849564224732835,0.00849564224732835
102.719,0.04459217962677897,0.04459217962677897
102.72,0.0743438622242778,0.0743438622242778
102.721,0.09528105505715234,0.09528105505715234
102.722,0.1012424603828157,0.1012424603828157
102.723,0.08482667131908528,0.08482667131908528
102.724,0.041272258655425276,0.041272258655425276
102.725,0.027847094909165815,-0.027847094909165815
102.726,0.11278068249377704,-0.11278068249377704
102.727,0.19667675335442325,-0.19667675335442325
102.728,0.25958410677509236,-0.25958410677509236
102.729,0.28425831659967327,-0.28425831659967327
102.73,0.26187193880848936,-0.26187193880848936
102.731,0.19560289744589765,-0.19560289744589765
102.732,0.10067953974212551,-0.10067953974212551
102.733,0.000605996054640956,-0.000605996054640956
102.734,0.07941220485195677,0.07941220485195677
102.735,0.1198290351033513,0.1198290351033513
102.736,0.11255869867428325,0.11255869867428325
102.737,0.06332633263887955,0.06332633263887955
102.738,0.010219028520420337,-0.010219028520420337
102.739,0.08404075048637161,-0.08404075048637161
102.74,0.1351292839374726,-0.1351292839374726
102.741,0.14843586784836726,-0.14843586784836726
102.742,0.12116405484045822,-0.12116405484045822
102.743,0.06316278194132818,-0.06316278194132818
102.744,0.006544439376145572,0.006544439376145572
102.745,0.06582813262833342,0.06582813262833342
102.746,0.0960924909766172,0.0960924909766172
102.747,0.08740433258662161,0.08740433258662161
102.748,0.040662581322114644,0.040662581322114644
102.749,0.033574678994155005,-0.033574678994155005
102.75,0.11888165842663101,-0.11888165842663101
102.751,0.19788644088660035,-0.19788644088660035
102.752,0.25665051136771466,-0.25665051136771466
102.753,0.2872457467908095,-0.2872457467908095
102.754,0.2880739002632192,-0.2880739002632192
102.755,0.26234134212309335,-0.26234134212309335
102.756,0.2157013762705896,-0.2157013762705896
102.757,0.1542034962969806,-0.1542034962969806
102.758,0.08333678531635658,-0.08333678531635658
102.759,0.0083069260362848,-0.0083069260362848
102.76,0.0649640541995471,0.0649640541995471
102.761,0.12899809101029613,0.12899809101029613
102.762,0.17490192224783474,0.17490192224783474
102.763,0.19384285756434272,0.19384285756434272
102.764,0.1795461214081675,0.1795461214081675
102.765,0.130921114194416,0.130921114194416
102.766,0.053692256226371526,0.053692256226371526
102.767,0.039852790806129246,-0.039852790806129246
102.768,0.1332479426610932,-0.1332479426610932
102.769,0.20981662273740997,-0.20981662273740997
102.77,0.2570214325016825,-0.2570214325016825
102.771,0.269757821854709,-0.269757821854709
102.772,0.2514458248155722,-0.2514458248155722
102.773,0.21250526453752427,-0.21250526453752427
102.774,0.16670964377386732,-0.16670964377386732
102.775,0.12666575907872202,-0.12666575907872202
102.776,0.0999759611093527,-0.0999759611093527
102.777,0.08738613742183565,-0.08738613742183565
102.778,0.08349403859061955,-0.08349403859061955
102.779,0.07965794771796597,-0.07965794771796597
102.78,0.06795215178855396,-0.06795215178855396
102.781,0.04465790054832652,-0.04465790054832652
102.782,0.011986746889164901,-0.011986746889164901
102.783,0.02257632624007866,0.02257632624007866
102.784,0.04901504398086409,0.04901504398086409
102.785,0.05853479960376329,0.05853479960376329
102.786,0.04689326381859815,0.04689326381859815
102.787,0.0160662329455723,0.0160662329455723
102.788,0.026336678922942447,-0.026336678922942447
102.789,0.06962965705770818,-0.06962965705770818
102.79,0.10357318912023461,-0.10357318912023461
102.791,0.12153141335421258,-0.12153141335421258
102.792,0.1221367633474657,-0.1221367633474657
102.793,0.10896692644441874,-0.10896692644441874
102.794,0.08853898152850193,-0.08853898152850193
102.795,0.06756755253470281,-0.06756755253470281
102.796,0.050661563993653735,-0.050661563993653735
102.797,0.03936383471721261,-0.03936383471721261
102.798,0.032792105670272576,-0.032792105670272576
102.799,0.029398898679881325,-0.029398898679881325
102.8,0.02885271361070585,-0.02885271361070585
102.801,0.03298428315852031,-0.03298428315852031
102.802,0.0451774217400327,-0.0451774217400327
102.803,0.06833911439476559,-0.06833911439476559
102.804,0.1023346433978577,-0.1023346433978577
102.805,0.14218004152317876,-0.14218004152317876
102.806,0.1781319319002681,-0.1781319319002681
102.807,0.19811553509307778,-0.19811553509307778
102.808,0.19193379602557803,-0.19193379602557803
102.809,0.15580326554999224,-0.15580326554999224
102.81,0.09536100094747502,-0.09536100094747502
102.811,0.02560945294217154,-0.02560945294217154
102.812,0.032733832106790706,0.032733832106790706
102.813,0.05966468478930187,0.05966468478930187
102.814,0.043081437239166354,0.043081437239166354
102.815,0.015844144945228456,-0.015844144945228456
102.816,0.10132941138388862,-0.10132941138388862
102.817,0.1866500218504359,-0.1866500218504359
102.818,0.24205544903730325,-0.24205544903730325
102.819,0.24455200264217059,-0.24455200264217059
102.82,0.18628311087788219,-0.18628311087788219
102.821,0.0784593113352563,-0.0784593113352563
102.822,0.0508704699343514,0.0508704699343514
102.823,0.1648679759691294,0.1648679759691294
102.824,0.2293761938441583,0.2293761938441583
102.825,0.22407925440561027,0.22407925440561027
102.826,0.14953191923046893,0.14953191923046893
102.827,0.02749321715239983,0.02749321715239983
102.828,0.10578744790815597,-0.10578744790815597
102.829,0.21125452702670067,-0.21125452702670067
102.83,0.25983280805959086,-0.25983280805959086
102.831,0.24195389593730687,-0.24195389593730687
102.832,0.17048304992965735,-0.17048304992965735
102.833,0.07593275931896348,-0.07593275931896348
102.834,0.004473448725295981,0.004473448725295981
102.835,0.04013096018053197,0.04013096018053197
102.836,0.01810362357810269,0.01810362357810269
102.837,0.0520675012444779,-0.0520675012444779
102.838,0.141624579489677,-0.141624579489677
102.839,0.21292353552044885,-0.21292353552044885
102.84,0.23329894737641377,-0.23329894737641377
102.841,0.18758629119272663,-0.18758629119272663
102.842,0.08477830421864996,-0.08477830421864996
102.843,0.04374920503179425,0.04374920503179425
102.844,0.15410207412617272,0.15410207412617272
102.845,0.20463536378243385,0.20463536378243385
102.846,0.1706440577846875,0.1706440577846875
102.847,0.053902566654629336,0.053902566654629336
102.848,0.11636267626602792,-0.11636267626602792
102.849,0.2916266264774865,-0.2916266264774865
102.85,0.4188251531031021,-0.4188251531031021
102.851,0.4569562014300722,-0.4569562014300722
102.852,0.39011742767551905,-0.39011742767551905
102.853,0.23275297522179517,-0.23275297522179517
102.854,0.025466035362066153,-0.025466035362066153
102.855,0.17714750788208566,0.17714750788208566
102.856,0.3226316922377652,0.3226316922377652
102.857,0.3755924520217888,0.3755924520217888
102.858,0.3268165717689404,0.3268165717689404
102.859,0.19407494514559054,0.19407494514559054
102.86,0.014912801144735255,0.014912801144735255
102.861,0.1657059494993638,-0.1657059494993638
102.862,0.308580559857741,-0.308580559857741
102.863,0.39005870998786374,-0.39005870998786374
102.864,0.40572385921197085,-0.40572385921197085
102.865,0.367608594400483,-0.367608594400483
102.866,0.2968129382479182,-0.2968129382479182
102.867,0.21479022509829182,-0.21479022509829182
102.868,0.13663514523387166,-0.13663514523387166
102.869,0.06853564768132037,-0.06853564768132037
102.87,0.009660057854827597,-0.009660057854827597
102.871,0.04308505857101963,0.04308505857101963
102.872,0.09005708770907916,0.09005708770907916
102.873,0.1261806601733686,0.1261806601733686
102.874,0.14192866353700473,0.14192866353700473
102.875,0.12762519457168398,0.12762519457168398
102.876,0.07914019542429185,0.07914019542429185
102.877,0.0022855278192082107,0.0022855278192082107
102.878,0.08639546144845689,-0.08639546144845689
102.879,0.16335969348412394,-0.16335969348412394
102.88,0.20537033676827376,-0.20537033676827376
102.881,0.1978426138885785,-0.1978426138885785
102.882,0.14103698785310448,-0.14103698785310448
102.883,0.0514851652981545,-0.0514851652981545
102.884,0.04232143066374472,0.04232143066374472
102.885,0.10883263664159215,0.10883263664159215
102.886,0.1239860874578238,0.1239860874578238
102.887,0.07968279909893217,0.07968279909893217
102.888,0.012940577326248315,-0.012940577326248315
102.889,0.12680439286068024,-0.12680439286068024
102.89,0.2277700177821611,-0.2277700177821611
102.891,0.286093624434857,-0.286093624434857
102.892,0.28643282168860895,-0.28643282168860895
102.893,0.23283882065683148,-0.23283882065683148
102.894,0.1469258276778086,-0.1469258276778086
102.895,0.05985520047184578,-0.05985520047184578
102.896,0.0010174182854723046,-0.0010174182854723046
102.897,0.012487165215195661,0.012487165215195661
102.898,0.018262082308688865,-0.018262082308688865
102.899,0.07490055490786585,-0.07490055490786585
102.9,0.129129250343622,-0.129129250343622
102.901,0.1538106908239394,-0.1538106908239394
102.902,0.13369169049129548,-0.13369169049129548
102.903,0.07173234419537566,-0.07173234419537566
102.904,0.011397377746075632,0.011397377746075632
102.905,0.08459191070296179,0.08459191070296179
102.906,0.11778486125589738,0.11778486125589738
102.907,0.09345777460578142,0.09345777460578142
102.908,0.013928655773609133,0.013928655773609133
102.909,0.09836491475314635,-0.09836491475314635
102.91,0.20786776928976103,-0.20786776928976103
102.911,0.2778352953895378,-0.2778352953895378
102.912,0.28301539498349604,-0.28301539498349604
102.913,0.218588187945696,-0.218588187945696
102.914,0.10216018292876172,-0.10216018292876172
102.915,0.031939915461516755,0.031939915461516755
102.916,0.14408802685329825,0.14408802685329825
102.917,0.20251333520195058,0.20251333520195058
102.918,0.19357409804503534,0.19357409804503534
102.919,0.12561358500705921,0.12561358500705921
102.92,0.02515560669000494,0.02515560669000494
102.921,0.07307068972649378,-0.07307068972649378
102.922,0.13861684496945326,-0.13861684496945326
102.923,0.15581715954286102,-0.15581715954286102
102.924,0.128600194301961,-0.128600194301961
102.925,0.07801331102036924,-0.07801331102036924
102.926,0.03352019448417609,-0.03352019448417609
102.927,0.021367930030303572,-0.021367930030303572
102.928,0.0543334124807584,-0.0543334124807584
102.929,0.12659691834440512,-0.12659691834440512
102.93,0.21557683440927555,-0.21557683440927555
102.931,0.29000467814999786,-0.29000467814999786
102.932,0.32125835555583904,-0.32125835555583904
102.933,0.2938202290410693,-0.2938202290410693
102.934,0.21108740418531557,-0.21108740418531557
102.935,0.09448240172303579,-0.09448240172303579
102.936,0.02375090536909341,0.02375090536909341
102.937,0.11142275211916863,0.11142275211916863
102.938,0.14703586634854338,0.14703586634854338
102.939,0.12644664553446683,0.12644664553446683
102.94,0.06332164695337172,0.06332164695337172
102.941,0.016558088012287975,-0.016558088012287975
102.942,0.08489039782447894,-0.08489039782447894
102.943,0.12076430817632733,-0.12076430817632733
102.944,0.11732769361089346,-0.11732769361089346
102.945,0.08296198302890367,-0.08296198302890367
102.946,0.036814643820727744,-0.036814643820727744
102.947,0.0006289319694280371,-0.0006289319694280371
102.948,0.009884405254592554,0.009884405254592554
102.949,0.009166271074213417,-0.009166271074213417
102.95,0.049021045229921234,-0.049021045229921234
102.951,0.09254429952837062,-0.09254429952837062
102.952,0.1217856770713559,-0.1217856770713559
102.953,0.1257545674455126,-0.1257545674455126
102.954,0.10528149524923491,-0.10528149524923491
102.955,0.07298851710770404,-0.07298851710770404
102.956,0.04830017657972008,-0.04830017657972008
102.957,0.049369852355289456,-0.049369852355289456
102.958,0.08503656557124029,-0.08503656557124029
102.959,0.14999285817407737,-0.14999285817407737
102.96,0.22520344401242165,-0.22520344401242165
102.961,0.283685146387081,-0.283685146387081
102.962,0.2997526708079832,-0.2997526708079832
102.963,0.25849292613820396,-0.25849292613820396
102.964,0.16205039776440533,-0.16205039776440533
102.965,0.030360387984491477,-0.030360387984491477
102.966,0.10411995811161256,0.10411995811161256
102.967,0.2060453444304744,0.2060453444304744
102.968,0.24802342124464483,0.24802342124464483
102.969,0.2190859531235836,0.2190859531235836
102.97,0.12802667314426275,0.12802667314426275
102.971,0.0005862481702054723,0.0005862481702054723
102.972,0.12848567810092526,-0.12848567810092526
102.973,0.22581991477607388,-0.22581991477607388
102.974,0.2689112575031878,-0.2689112575031878
102.975,0.25180155652784053,-0.25180155652784053
102.976,0.18546389865412516,-0.18546389865412516
102.977,0.09318979427447627,-0.09318979427447627
102.978,0.0028462256498138494,-0.0028462256498138494
102.979,0.06131711390351313,0.06131711390351313
102.98,0.08478378921506824,0.08478378921506824
102.981,0.06526140631792465,0.06526140631792465
102.982,0.011377071327273836,0.011377071327273836
102.983,0.061344279080296604,-0.061344279080296604
102.984,0.13545316735554747,-0.13545316735554747
102.985,0.19578698574352504,-0.19578698574352504
102.986,0.2318755364880971,-0.2318755364880971
102.987,0.23843379568499745,-0.23843379568499745
102.988,0.21461896355033794,-0.21461896355033794
102.989,0.16304474796445212,-0.16304474796445212
102.99,0.08930867695270772,-0.08930867695270772
102.991,0.00216679511335649,-0.00216679511335649
102.992,0.0861768626196715,0.0861768626196715
102.993,0.1605564996073341,0.1605564996073341
102.994,0.20483490763686052,0.20483490763686052
102.995,0.20547541886076748,0.20547541886076748
102.996,0.1559010610068008,0.1559010610068008
102.997,0.06015078812358965,0.06015078812358965
102.998,0.06581841928596921,-0.06581841928596921
102.999,0.19630085004774345,-0.19630085004774345
103.0,0.3014935898101895,-0.3014935898101895
103.001,0.35533950999487396,-0.35533950999487396
103.002,0.3432715955544451,-0.3432715955544451
103.003,0.2672971489408984,-0.2672971489408984
103.004,0.14649632390503498,-0.14649632390503498
103.005,0.012397606362240632,-0.012397606362240632
103.006,0.09961808418671092,0.09961808418671092
103.007,0.16033632360647543,0.16033632360647543
103.008,0.15501742159871945,0.15501742159871945
103.009,0.08733307717160943,0.08733307717160943
