Czas,AbsSum,Sum
39.8,0.2517002812751352,-0.2517002812751352
39.801,0.24958029207936006,-0.24958029207936006
39.802,0.22339939134725784,-0.22339939134725784
39.803,0.18227408526813926,-0.18227408526813926
39.804,0.13588977637545963,-0.13588977637545963
39.805,0.09175148101419806,-0.09175148101419806
39.806,0.053563415859654184,-0.053563415859654184
39.807,0.021188189032795735,-0.021188189032795735
39.808,0.0079447093299847,0.0079447093299847
39.809,0.03662804752164894,0.03662804752164894
39.81,0.06577826450065949,0.06577826450065949
39.811,0.09329069412361202,0.09329069412361202
39.812,0.11430900106179087,0.11430900106179087
39.813,0.1228239108754483,0.1228239108754483
39.814,0.11400805489740495,0.11400805489740495
39.815,0.08640735081473805,0.08640735081473805
39.816,0.043146466152159446,0.043146466152159446
39.817,0.008350368547257458,-0.008350368547257458
39.818,0.058098936418795266,-0.058098936418795266
39.819,0.09621806386134135,-0.09621806386134135
39.82,0.11565894350112094,-0.11565894350112094
39.821,0.11412503436954002,-0.11412503436954002
39.822,0.09458879723406621,-0.09458879723406621
39.823,0.06428617020913563,-0.06428617020913563
39.824,0.03256471604837219,-0.03256471604837219
39.825,0.008304427876382858,-0.008304427876382858
39.826,0.002288974312403491,0.002288974312403491
39.827,0.0030891953825171736,-0.0030891953825171736
39.828,0.022824978617558944,-0.022824978617558944
39.829,0.05239099410572001,-0.05239099410572001
39.83,0.08588687091286085,-0.08588687091286085
39.831,0.11753795407379963,-0.11753795407379963
39.832,0.14270832465454697,-0.14270832465454697
39.833,0.15826372373008823,-0.15826372373008823
39.834,0.16241892231663924,-0.16241892231663924
39.835,0.15439715161053913,-0.15439715161053913
39.836,0.13424343807493389,-0.13424343807493389
39.837,0.10297611022688713,-0.10297611022688713
39.838,0.0630127298937262,-0.0630127298937262
39.839,0.018587833428170275,-0.018587833428170275
39.84,0.02420361067890542,0.02420361067890542
39.841,0.058004120450885654,0.058004120450885654
39.842,0.07545188189451668,0.07545188189451668
39.843,0.070821981431749,0.070821981431749
39.844,0.04155757927845527,0.04155757927845527
39.845,0.010836614026760394,-0.010836614026760394
39.846,0.08088935232258254,-0.08088935232258254
39.847,0.16026632295409138,-0.16026632295409138
39.848,0.23954249241252312,-0.23954249241252312
39.849,0.310060107856445,-0.310060107856445
39.85,0.3652663958769472,-0.3652663958769472
39.851,0.4011429291051084,-0.4011429291051084
39.852,0.4157186802012204,-0.4157186802012204
39.853,0.4080505970004118,-0.4080505970004118
39.854,0.3772944009429625,-0.3772944009429625
39.855,0.3224620596212294,-0.3224620596212294
39.856,0.24316128114057567,-0.24316128114057567
39.857,0.14114092609282802,-0.14114092609282802
39.858,0.02200967015838584,-0.02200967015838584
39.859,0.10374892419544035,0.10374892419544035
39.86,0.2212425100082842,0.2212425100082842
39.861,0.3134462021359077,0.3134462021359077
39.862,0.36495339711336783,0.36495339711336783
39.863,0.3662189446815347,0.3662189446815347
39.864,0.316936914009891,0.316936914009891
39.865,0.22726836502385805,0.22726836502385805
39.866,0.116184284509939,0.116184284509939
39.867,0.007069605325360051,0.007069605325360051
39.868,0.07833417337415538,-0.07833417337415538
39.869,0.1259113827010958,-0.1259113827010958
39.87,0.13321073390392457,-0.13321073390392457
39.871,0.11015326090180766,-0.11015326090180766
39.872,0.07600020019277431,-0.07600020019277431
39.873,0.05334612594638899,-0.05334612594638899
39.874,0.0608925239218272,-0.0608925239218272
39.875,0.10722284446211672,-0.10722284446211672
39.876,0.18756451860233914,-0.18756451860233914
39.877,0.2846377508296938,-0.2846377508296938
39.878,0.37342552735196455,-0.37342552735196455
39.879,0.42845855836258373,-0.42845855836258373
39.88,0.43139792502124397,-0.43139792502124397
39.881,0.3765866606032213,-0.3765866606032213
39.882,0.2728711246770056,-0.2728711246770056
39.883,0.14116160866730487,-0.14116160866730487
39.884,0.008529426909741455,-0.008529426909741455
39.885,0.09930556140611779,0.09930556140611779
39.886,0.16479458684457793,0.16479458684457793
39.887,0.1826762897264993,0.1826762897264993
39.888,0.16029759209312622,0.16029759209312622
39.889,0.11427420709540703,0.11427420709540703
39.89,0.06475202223010834,0.06475202223010834
39.891,0.02919355170900051,0.02919355170900051
39.892,0.017619716279111186,0.017619716279111186
39.893,0.03062074907883927,0.03062074907883927
39.894,0.06045293906592475,0.06045293906592475
39.895,0.09451807721106165,0.09451807721106165
39.896,0.11982515112181025,0.11982515112181025
39.897,0.1268724626808242,0.1268724626808242
39.898,0.11177632655944558,0.11177632655944558
39.899,0.07622878657370791,0.07622878657370791
39.9,0.025690671333477244,0.025690671333477244
39.901,0.03318766579938481,-0.03318766579938481
39.902,0.09477576017864142,-0.09477576017864142
39.903,0.15546990989034282,-0.15546990989034282
39.904,0.21328074238245842,-0.21328074238245842
39.905,0.26644350835639397,-0.26644350835639397
39.906,0.31192543484694424,-0.31192543484694424
39.907,0.3447394594217612,-0.3447394594217612
39.908,0.3586035366454371,-0.3586035366454371
39.909,0.34786524486118486,-0.34786524486118486
39.91,0.30999936986513554,-0.30999936986513554
39.911,0.2476377599051991,-0.2476377599051991
39.912,0.16916059900346514,-0.16916059900346514
39.913,0.08735705364112933,-0.08735705364112933
39.914,0.016378744014594826,-0.016378744014594826
39.915,0.03210966958389028,0.03210966958389028
39.916,0.052299694175201195,0.052299694175201195
39.917,0.04592833986413858,0.04592833986413858
39.918,0.021622466887990965,0.021622466887990965
39.919,0.007963779503941337,-0.007963779503941337
39.92,0.030297508467531542,-0.030297508467531542
39.921,0.037007326554448494,-0.037007326554448494
39.922,0.02643834625415098,-0.02643834625415098
39.923,0.003856458003140273,-0.003856458003140273
39.924,0.020736728106504287,0.020736728106504287
39.925,0.03637176082581517,0.03637176082581517
39.926,0.03509972999954436,0.03509972999954436
39.927,0.014776442639305554,0.014776442639305554
39.928,0.020327102977207856,-0.020327102977207856
39.929,0.06125095875497444,-0.06125095875497444
39.93,0.09771135179457491,-0.09771135179457491
39.931,0.12181011895744609,-0.12181011895744609
39.932,0.1306832300254852,-0.1306832300254852
39.933,0.12710084002047306,-0.12710084002047306
39.934,0.11782246288205256,-0.11782246288205256
39.935,0.11037955095189589,-0.11037955095189589
39.936,0.10957598110304023,-0.10957598110304023
39.937,0.11512688267308113,-0.11512688267308113
39.938,0.12144048484413839,-0.12144048484413839
39.939,0.11973337287211516,-0.11973337287211516
39.94,0.1017567742487766,-0.1017567742487766
39.941,0.06374379929367358,-0.06374379929367358
39.942,0.00902464189057639,-0.00902464189057639
39.943,0.05182393182814726,0.05182393182814726
39.944,0.10356431174884473,0.10356431174884473
39.945,0.13088551797965242,0.13088551797965242
39.946,0.12348260898714836,0.12348260898714836
39.947,0.07986031342600564,0.07986031342600564
39.948,0.00846350601679502,0.00846350601679502
39.949,0.07438020800219491,-0.07438020800219491
39.95,0.14912929608494963,-0.14912929608494963
39.951,0.19881692054591582,-0.19881692054591582
39.952,0.2140571042596422,-0.2140571042596422
39.953,0.19561250480375525,-0.19561250480375525
39.954,0.15369154712835154,-0.15369154712835154
39.955,0.10425788656470225,-0.10425788656470225
39.956,0.06365067677083203,-0.06365067677083203
39.957,0.04337244273899321,-0.04337244273899321
39.958,0.04680671850723961,-0.04680671850723961
39.959,0.06891627505148024,-0.06891627505148024
39.96,0.09890042137425004,-0.09890042137425004
39.961,0.12474022998314238,-0.12474022998314238
39.962,0.13790796314570097,-0.13790796314570097
39.963,0.1364923523367707,-0.1364923523367707
39.964,0.12559960801400605,-0.12559960801400605
39.965,0.11490867811408034,-0.11490867811408034
39.966,0.1143188743571677,-0.1143188743571677
39.967,0.12934505222555448,-0.12934505222555448
39.968,0.15803033100189878,-0.15803033100189878
39.969,0.19061599238153115,-0.19061599238153115
39.97,0.21222172638459313,-0.21222172638459313
39.971,0.20769958557369606,-0.20769958557369606
39.972,0.16702177708964117,-0.16702177708964117
39.973,0.08933333661164045,-0.08933333661164045
39.974,0.015771284021734333,0.015771284021734333
39.975,0.13025404513615246,0.13025404513615246
39.976,0.2323156772501327,0.2323156772501327
39.977,0.3022486540544085,0.3022486540544085
39.978,0.3275788903523893,0.3275788903523893
39.979,0.30588675134174026,0.30588675134174026
39.98,0.2445140566831352,0.2445140566831352
39.981,0.15742958938320095,0.15742958938320095
39.982,0.060464983098934555,0.060464983098934555
39.983,0.033378345347794935,-0.033378345347794935
39.984,0.11697065679987995,-0.11697065679987995
39.985,0.18953195805365097,-0.18953195805365097
39.986,0.2545995079434198,-0.2545995079434198
39.987,0.31644665266068805,-0.31644665266068805
39.988,0.3764456896549383,-0.3764456896549383
39.989,0.4308403689540695,-0.4308403689540695
39.99,0.4708328502398311,-0.4708328502398311
39.991,0.48501005433857336,-0.48501005433857336
39.992,0.4632591472754253,-0.4632591472754253
39.993,0.4007658512020068,-0.4007658512020068
39.994,0.30064528079469355,-0.30064528079469355
39.995,0.17422839608650842,-0.17422839608650842
39.996,0.03883867653214679,-0.03883867653214679
39.997,0.08625154476532515,0.08625154476532515
39.998,0.18439919925458192,0.18439919925458192
39.999,0.24527971684994299,0.24527971684994299
40.0,0.26661667350137885,0.26661667350137885
40.001,0.2535801249502867,0.2535801249502867
40.002,0.21626651757723225,0.21626651757723225
40.003,0.16626382236868165,0.16626382236868165
40.004,0.11350559703016017,0.11350559703016017
40.005,0.06438063629079105,0.06438063629079105
40.006,0.021505095407283514,0.021505095407283514
40.007,0.015092330680875343,-0.015092330680875343
40.008,0.046124692958418256,-0.046124692958418256
40.009,0.07146346151469096,-0.07146346151469096
40.01,0.08953317867829624,-0.08953317867829624
40.011,0.09791576248940514,-0.09791576248940514
40.012,0.0948392645486229,-0.0948392645486229
40.013,0.08082112029905364,-0.08082112029905364
40.014,0.059642687415143336,-0.059642687415143336
40.015,0.038084052809863156,-0.038084052809863156
40.016,0.024343418161065666,-0.024343418161065666
40.017,0.02560703281649146,-0.02560703281649146
40.018,0.045609503695377085,-0.045609503695377085
40.019,0.08308176612447438,-0.08308176612447438
40.02,0.13169876408585424,-0.13169876408585424
40.021,0.18161644009934153,-0.18161644009934153
40.022,0.2221241765201991,-0.2221241765201991
40.023,0.2445458947081096,-0.2445458947081096
40.024,0.24444673667501415,-0.24444673667501415
40.025,0.22246809513591403,-0.22246809513591403
40.026,0.18361765437353184,-0.18361765437353184
40.027,0.1353900804919823,-0.1353900804919823
40.028,0.08548056724368003,-0.08548056724368003
40.029,0.039935208465797456,-0.039935208465797456
40.03,0.002336174271767577,-0.002336174271767577
40.031,0.025849329199339577,0.025849329199339577
40.032,0.044127899909021995,0.044127899909021995
40.033,0.051746903392383414,0.051746903392383414
40.034,0.04709133541432653,0.04709133541432653
40.035,0.028133288619643704,0.028133288619643704
40.036,0.006146363563653057,-0.006146363563653057
40.037,0.05394820236038933,-0.05394820236038933
40.038,0.10933244023995203,-0.10933244023995203
40.039,0.1622028504988321,-0.1622028504988321
40.04,0.1999994581841411,-0.1999994581841411
40.041,0.21086570976076746,-0.21086570976076746
40.042,0.1874263341756155,-0.1874263341756155
40.043,0.12993421929821825,-0.12993421929821825
40.044,0.047584668623466775,-0.047584668623466775
40.045,0.042723823893334956,0.042723823893334956
40.046,0.12011819073174768,0.12011819073174768
40.047,0.16506990274068611,0.16506990274068611
40.048,0.16480755454631102,0.16480755454631102
40.049,0.1171832661861767,0.1171832661861767
40.05,0.03173814842028211,0.03173814842028211
40.051,0.07247990541878446,-0.07247990541878446
40.052,0.1718117361961491,-0.1718117361961491
40.053,0.24422121670589647,-0.24422121670589647
40.054,0.27506802119973184,-0.27506802119973184
40.055,0.2607482626801372,-0.2607482626801372
40.056,0.20917884031761214,-0.20917884031761214
40.057,0.13705874321016265,-0.13705874321016265
40.058,0.06480454498456445,-0.06480454498456445
40.059,0.010725399284460035,-0.010725399284460035
40.06,0.013827293792983308,0.013827293792983308
40.061,0.006967485858653255,0.006967485858653255
40.062,0.024157564045553137,-0.024157564045553137
40.063,0.06641695055422481,-0.06641695055422481
40.064,0.10526739435928478,-0.10526739435928478
40.065,0.129354868199677,-0.129354868199677
40.066,0.13374151523196232,-0.13374151523196232
40.067,0.12086597586556302,-0.12086597586556302
40.068,0.09909986828338224,-0.09909986828338224
40.069,0.07950963595010674,-0.07950963595010674
40.07,0.07194106715950777,-0.07194106715950777
40.071,0.08167431460940922,-0.08167431460940922
40.072,0.10763920712010933,-0.10763920712010933
40.073,0.14264440297735037,-0.14264440297735037
40.074,0.17544600296973378,-0.17544600296973378
40.075,0.19395879079961387,-0.19395879079961387
40.076,0.1886414684791795,-0.1886414684791795
40.077,0.1551196299782902,-0.1551196299782902
40.078,0.09540256127975544,-0.09540256127975544
40.079,0.01748607099256394,-0.01748607099256394
40.08,0.06642936391578425,0.06642936391578425
40.081,0.1425595658902865,0.1425595658902865
40.082,0.19832244911519115,0.19832244911519115
40.083,0.22467402872304576,0.22467402872304576
40.084,0.21757510959466275,0.21757510959466275
40.085,0.17842000971443595,0.17842000971443595
40.086,0.1134897291236927,0.1134897291236927
40.087,0.03265392780676768,0.03265392780676768
40.088,0.05237582267817731,-0.05237582267817731
40.089,0.1299311508379466,-0.1299311508379466
40.09,0.19013512473209537,-0.19013512473209537
40.091,0.2262915076420241,-0.2262915076420241
40.092,0.23575088840216718,-0.23575088840216718
40.093,0.2201519086834559,-0.2201519086834559
40.094,0.1850082468284745,-0.1850082468284745
40.095,0.13869712724035943,-0.13869712724035943
40.096,0.09099593783894122,-0.09099593783894122
40.097,0.05139320527075353,-0.05139320527075353
40.098,0.02744785697121055,-0.02744785697121055
40.099,0.023470518524960404,-0.023470518524960404
40.1,0.03974907378956727,-0.03974907378956727
40.101,0.07244890551413796,-0.07244890551413796
40.102,0.11420752115399635,-0.11420752115399635
40.103,0.15533695534256875,-0.15533695534256875
40.104,0.18546222841177518,-0.18546222841177518
40.105,0.19536629718337462,-0.19536629718337462
40.106,0.17877866666160702,-0.17877866666160702
40.107,0.13383157622123132,-0.13383157622123132
40.108,0.06391570638934219,-0.06391570638934219
40.109,0.02229265356732113,0.02229265356732113
40.11,0.11177284559406209,0.11177284559406209
40.111,0.189061968338059,0.189061968338059
40.112,0.23891126508654015,0.23891126508654015
40.113,0.24927408141566265,0.24927408141566265
40.114,0.21402958024710017,0.21402958024710017
40.115,0.13478590946746394,0.13478590946746394
40.116,0.021212652708152202,0.021212652708152202
40.117,0.1103632037648753,-0.1103632037648753
40.118,0.23994823771796892,-0.23994823771796892
40.119,0.3478682533618799,-0.3478682533618799
40.12,0.4188207836791079,-0.4188207836791079
40.121,0.44496114160881184,-0.44496114160881184
40.122,0.4271794615635548,-0.4271794615635548
40.123,0.37418946475103265,-0.37418946475103265
40.124,0.2996675133788057,-0.2996675133788057
40.125,0.2182690436240462,-0.2182690436240462
40.126,0.1417148889938179,-0.1417148889938179
40.127,0.07614466617465854,-0.07614466617465854
40.128,0.02155023074763973,-0.02155023074763973
40.129,0.02656909007140884,0.02656909007140884
40.13,0.07393849334490143,0.07393849334490143
40.131,0.12381552810478058,0.12381552810478058
40.132,0.17426116890756682,0.17426116890756682
40.133,0.21748678947185818,0.21748678947185818
40.134,0.2417062725640471,0.2417062725640471
40.135,0.23504152506241094,0.23504152506241094
40.136,0.19024496985782613,0.19024496985782613
40.137,0.10859404128925032,0.10859404128925032
40.138,0.001448257665264574,0.001448257665264574
40.139,0.11137003490325148,-0.11137003490325148
40.14,0.20619837642708694,-0.20619837642708694
40.141,0.26195690225884494,-0.26195690225884494
40.142,0.26646608408462247,-0.26646608408462247
40.143,0.22063821212103252,-0.22063821212103252
40.144,0.13906291015877603,-0.13906291015877603
40.145,0.046562676082383625,-0.046562676082383625
40.146,0.028457131908914635,0.028457131908914635
40.147,0.06199681955525849,0.06199681955525849
40.148,0.041431241816113795,0.041431241816113795
40.149,0.030662104951313163,-0.030662104951313163
40.15,0.13702739102288874,-0.13702739102288874
40.151,0.25051153980618934,-0.25051153980618934
40.152,0.3417098801329368,-0.3417098801329368
40.153,0.38720856955455496,-0.38720856955455496
40.154,0.3759802110930991,-0.3759802110930991
40.155,0.3120689591976976,-0.3120689591976976
40.156,0.21285140175723227,-0.21285140175723227
40.157,0.10351337105987501,-0.10351337105987501
40.158,0.009513204583240453,-0.009513204583240453
40.159,0.05064110433501612,0.05064110433501612
40.16,0.07015092727255068,0.07015092727255068
40.161,0.054908081407725406,0.054908081407725406
40.162,0.020595010226888366,0.020595010226888366
40.163,0.013005503075704139,-0.013005503075704139
40.164,0.028598267267470834,-0.028598267267470834
40.165,0.016791200817886653,-0.016791200817886653
40.166,0.021258279633104005,0.021258279633104005
40.167,0.07462093861474406,0.07462093861474406
40.168,0.1263632295243875,0.1263632295243875
40.169,0.15898316012505886,0.15898316012505886
40.17,0.15977152691755503,0.15977152691755503
40.171,0.1244985129389895,0.1244985129389895
40.172,0.058446364811393314,0.058446364811393314
40.173,0.025323552573845887,-0.025323552573845887
40.174,0.10975599511846557,-0.10975599511846557
40.175,0.17839345277628238,-0.17839345277628238
40.176,0.2194215870323949,-0.2194215870323949
40.177,0.2281208431713967,-0.2281208431713967
40.178,0.20725099821404414,-0.20725099821404414
40.179,0.16553029319690482,-0.16553029319690482
40.18,0.11486630049059898,-0.11486630049059898
40.181,0.06722508333444788,-0.06722508333444788
40.182,0.031965944368090526,-0.031965944368090526
40.183,0.014193745903256616,-0.014193745903256616
40.184,0.01431652080882495,-0.01431652080882495
40.185,0.028670948082220815,-0.028670948082220815
40.186,0.05087644835602323,-0.05087644835602323
40.187,0.07352008745307126,-0.07352008745307126
40.188,0.08982314969538818,-0.08982314969538818
40.189,0.09503365858861679,-0.09503365858861679
40.19,0.08737335033618798,-0.08737335033618798
40.191,0.0684216776050871,-0.0684216776050871
40.192,0.042858986690537226,-0.042858986690537226
40.193,0.017551355188373363,-0.017551355188373363
40.194,6.776390533902443e-05,-6.776390533902443e-05
40.195,0.003128837585334887,0.003128837585334887
40.196,0.011574020574986243,-0.011574020574986243
40.197,0.043726891470764695,-0.043726891470764695
40.198,0.0885527692003164,-0.0885527692003164
40.199,0.13782903921630651,-0.13782903921630651
40.2,0.18179298776097974,-0.18179298776097974
40.201,0.21160432011633634,-0.21160432011633634
40.202,0.2216638712650545,-0.2216638712650545
40.203,0.21106574162184155,-0.21106574162184155
40.204,0.1836878028497979,-0.1836878028497979
40.205,0.14684913526346377,-0.14684913526346377
40.206,0.10894731984282913,-0.10894731984282913
40.207,0.0768606247126774,-0.0768606247126774
40.208,0.054012490016023484,-0.054012490016023484
40.209,0.039785945797809585,-0.039785945797809585
40.21,0.030498408818686706,-0.030498408818686706
40.211,0.02156373527680966,-0.02156373527680966
40.212,0.0099928784410237,-0.0099928784410237
40.213,0.0037931633920593733,0.0037931633920593733
40.214,0.01565379915550902,0.01565379915550902
40.215,0.01919097713795992,0.01919097713795992
40.216,0.008551964969170545,0.008551964969170545
40.217,0.018451327447560506,-0.018451327447560506
40.218,0.058178608555451206,-0.058178608555451206
40.219,0.10100088767857662,-0.10100088767857662
40.22,0.13353610881370304,-0.13353610881370304
40.221,0.14279462089585415,-0.14279462089585415
40.222,0.12095590750205687,-0.12095590750205687
40.223,0.06909591340845278,-0.06909591340845278
40.224,0.0016413813569255975,0.0016413813569255975
40.225,0.07219323382807619,0.07219323382807619
40.226,0.12072124201101508,0.12072124201101508
40.227,0.12933787745150283,0.12933787745150283
40.228,0.09031544177296813,0.09031544177296813
40.229,0.00965203309569218,0.00965203309569218
40.23,0.09343012312876242,-0.09343012312876242
40.231,0.19124184982253423,-0.19124184982253423
40.232,0.2554403916103788,-0.2554403916103788
40.233,0.265621152027121,-0.265621152027121
40.234,0.21601840056574517,-0.21601840056574517
40.235,0.118105595874053,-0.118105595874053
40.236,0.0019161161287462036,0.0019161161287462036
40.237,0.11018076859019343,0.11018076859019343
40.238,0.17476525884885064,0.17476525884885064
40.239,0.17498735470597482,0.17498735470597482
40.24,0.10757658609407539,0.10757658609407539
40.241,0.012174522027259771,-0.012174522027259771
40.242,0.15464486547310163,-0.15464486547310163
40.243,0.2842261532322672,-0.2842261532322672
40.244,0.3692527646486865,-0.3692527646486865
40.245,0.3905573140461678,-0.3905573140461678
40.246,0.3461717225104054,-0.3461717225104054
40.247,0.2509339749492804,-0.2509339749492804
40.248,0.1313489967393685,-0.1313489967393685
40.249,0.0174755494901756,-0.0174755494901756
40.25,0.06557581248930244,0.06557581248930244
40.251,0.10398023423061042,0.10398023423061042
40.252,0.09764703560438948,0.09764703560438948
40.253,0.0583774722452588,0.0583774722452588
40.254,0.00469593108337496,0.00469593108337496
40.255,0.044715243093688795,-0.044715243093688795
40.256,0.07676974953537286,-0.07676974953537286
40.257,0.0871703090469288,-0.0871703090469288
40.258,0.08028403696795472,-0.08028403696795472
40.259,0.06610706225189134,-0.06610706225189134
40.26,0.055659452574286616,-0.055659452574286616
40.261,0.056559939119808056,-0.056559939119808056
40.262,0.07031328856978003,-0.07031328856978003
40.263,0.0921210933426505,-0.0921210933426505
40.264,0.11308310305111047,-0.11308310305111047
40.265,0.12383094013506357,-0.12383094013506357
40.266,0.11820420212957605,-0.11820420212957605
40.267,0.0956599456135363,-0.0956599456135363
40.268,0.06163347332324598,-0.06163347332324598
40.269,0.025824711766039732,-0.025824711766039732
40.27,0.0009089991164368261,0.0009089991164368261
40.271,0.009955367353477573,0.009955367353477573
40.272,0.002463966895545955,-0.002463966895545955
40.273,0.03426528364825954,-0.03426528364825954
40.274,0.07821070977049505,-0.07821070977049505
40.275,0.1239650891234555,-0.1239650891234555
40.276,0.1607537634606907,-0.1607537634606907
40.277,0.17981143431382418,-0.17981143431382418
40.278,0.17602636781054393,-0.17602636781054393
40.279,0.1485521862101833,-0.1485521862101833
40.28,0.10051854285354178,-0.10051854285354178
40.281,0.038187180620733674,-0.038187180620733674
40.282,0.03008427848269757,0.03008427848269757
40.283,0.09485335541961204,0.09485335541961204
40.284,0.14655991346135133,0.14655991346135133
40.285,0.1765623780981016,0.1765623780981016
40.286,0.178341840153593,0.178341840153593
40.287,0.14881519694826184,0.14881519694826184
40.288,0.08947867723136649,0.08947867723136649
40.289,0.006946021877442421,0.006946021877442421
40.29,0.08753861805869378,-0.08753861805869378
40.291,0.17980331544538708,-0.17980331544538708
40.292,0.2554681944806527,-0.2554681944806527
40.293,0.3030740562656653,-0.3030740562656653
40.294,0.31674899668095213,-0.31674899668095213
40.295,0.29755940773203027,-0.29755940773203027
40.296,0.253023971419326,-0.253023971419326
40.297,0.19483053759816193,-0.19483053759816193
40.298,0.13540107408593227,-0.13540107408593227
40.299,0.08437872182238138,-0.08437872182238138
40.3,0.04619008305547312,-0.04619008305547312
40.301,0.019509374457648,-0.019509374457648
40.302,0.0011895225933260534,0.0011895225933260534
40.303,0.022547444328543165,0.022547444328543165
40.304,0.04883058070473534,0.04883058070473534
40.305,0.07935857322054751,0.07935857322054751
40.306,0.10788861399116656,0.10788861399116656
40.307,0.12431670995994515,0.12431670995994515
40.308,0.11821300294669013,0.11821300294669013
40.309,0.08299651995561086,0.08299651995561086
40.31,0.01924109744031388,0.01924109744031388
40.311,0.06417901202012677,-0.06417901202012677
40.312,0.15170178419541547,-0.15170178419541547
40.313,0.2251033747894957,-0.2251033747894957
40.314,0.26872589741461406,-0.26872589741461406
40.315,0.2742156041580722,-0.2742156041580722
40.316,0.2431700775811253,-0.2431700775811253
40.317,0.1867405259071102,-0.1867405259071102
40.318,0.12223104766158066,-0.12223104766158066
40.319,0.067744369056843,-0.067744369056843
40.32,0.036595373962610034,-0.036595373962610034
40.321,0.03331286201169126,-0.03331286201169126
40.322,0.052534997565171215,-0.052534997565171215
40.323,0.08114567205644496,-0.08114567205644496
40.324,0.10292261477437581,-0.10292261477437581
40.325,0.10414036608161048,-0.10414036608161048
40.326,0.07827295978244053,-0.07827295978244053
40.327,0.028269446633158335,-0.028269446633158335
40.328,0.03428935844822445,0.03428935844822445
40.329,0.0927952954245459,0.0927952954245459
40.33,0.1307200192874669,0.1307200192874669
40.331,0.13651832552732057,0.13651832552732057
40.332,0.10676605286286667,0.10676605286286667
40.333,0.04663943137844373,0.04663943137844373
40.334,0.032216303090805476,-0.032216303090805476
40.335,0.11550712550629838,-0.11550712550629838
40.336,0.19037500469110102,-0.19037500469110102
40.337,0.24835432108066624,-0.24835432108066624
40.338,0.2863362063198158,-0.2863362063198158
40.339,0.3054883494483128,-0.3054883494483128
40.34,0.3088582671781023,-0.3088582671781023
40.341,0.29884514034039233,-0.29884514034039233
40.342,0.2756950599264353,-0.2756950599264353
40.343,0.23768085937725092,-0.23768085937725092
40.344,0.18287160156962523,-0.18287160156962523
40.345,0.11167921270725112,-0.11167921270725112
40.346,0.028977325307234736,-0.028977325307234736
40.347,0.055316881422101005,0.055316881422101005
40.348,0.12774720280934315,0.12774720280934315
40.349,0.17463942824272083,0.17463942824272083
40.35,0.18620151743677127,0.18620151743677127
40.351,0.15995174608997131,0.15995174608997131
40.352,0.1021416320564903,0.1021416320564903
40.353,0.02647396302065208,0.02647396302065208
40.354,0.04964586868530907,-0.04964586868530907
40.355,0.11017879760803095,-0.11017879760803095
40.356,0.1451539858552603,-0.1451539858552603
40.357,0.1533601117504637,-0.1533601117504637
40.358,0.14202367570375962,-0.14202367570375962
40.359,0.12350696410289286,-0.12350696410289286
40.36,0.11013238350037435,-0.11013238350037435
40.361,0.10896903861788432,-0.10896903861788432
40.362,0.11852449831206369,-0.11852449831206369
40.363,0.1287015657443511,-0.1287015657443511
40.364,0.12427911610106035,-0.12427911610106035
40.365,0.09091909335575343,-0.09091909335575343
40.366,0.021719666732907927,-0.021719666732907927
40.367,0.07801845508800054,0.07801845508800054
40.368,0.1897162261739127,0.1897162261739127
40.369,0.2849293326295741,0.2849293326295741
40.37,0.3326050964714402,0.3326050964714402
40.371,0.3082197676404663,0.3082197676404663
40.372,0.2020770514331902,0.2020770514331902
40.373,0.024123550150127127,0.024123550150127127
40.374,0.19645079052644898,-0.19645079052644898
40.375,0.4170697536981791,-0.4170697536981791
40.376,0.5917101091304394,-0.5917101091304394
40.377,0.682297235662559,-0.682297235662559
40.378,0.6684354131286978,-0.6684354131286978
40.379,0.5527672497755641,-0.5527672497755641
40.38,0.3604642541147859,-0.3604642541147859
40.381,0.13298987266645756,-0.13298987266645756
40.382,0.08213839649734278,0.08213839649734278
40.383,0.24279219619471726,0.24279219619471726
40.384,0.3218319654972226,0.3218319654972226
40.385,0.31242762097281473,0.31242762097281473
40.386,0.2279392879140436,0.2279392879140436
40.387,0.09674069130699703,0.09674069130699703
40.388,0.0462741900307051,-0.0462741900307051
40.389,0.1689684026771241,-0.1689684026771241
40.39,0.24946085278218788,-0.24946085278218788
40.391,0.2799818829525377,-0.2799818829525377
40.392,0.26640031121544294,-0.26640031121544294
40.393,0.2240268623672591,-0.2240268623672591
40.394,0.1713185983164881,-0.1713185983164881
40.395,0.12357929992146699,-0.12357929992146699
40.396,0.08857086485029753,-0.08857086485029753
40.397,0.06521628861067463,-0.06521628861067463
40.398,0.04553778813881959,-0.04553778813881959
40.399,0.018959471382316462,-0.018959471382316462
40.4,0.02258801298041102,0.02258801298041102
40.401,0.08050540034977716,0.08050540034977716
40.402,0.14769359568919316,0.14769359568919316
40.403,0.20967746444698254,0.20967746444698254
40.404,0.2483795504517181,0.2483795504517181
40.405,0.24742392358781506,0.24742392358781506
40.406,0.19738473423339986,0.19738473423339986
40.407,0.09940244972450496,0.09940244972450496
40.408,0.03394205706435005,-0.03394205706435005
40.409,0.18082459251518523,-0.18082459251518523
40.41,0.31490973222075647,-0.31490973222075647
40.411,0.41137816006673067,-0.41137816006673067
40.412,0.45266109578030445,-0.45266109578030445
40.413,0.43238944233369725,-0.43238944233369725
40.414,0.35656820025511704,-0.35656820025511704
40.415,0.2417475064609107,-0.2417475064609107
40.416,0.1107634915750918,-0.1107634915750918
40.417,0.01275739664481379,0.01275739664481379
40.418,0.10966363963721304,0.10966363963721304
40.419,0.1689843669549591,0.1689843669549591
40.42,0.18924223097887394,0.18924223097887394
40.421,0.1772410845602903,0.1772410845602903
40.422,0.14489597983683078,0.14489597983683078
40.423,0.10517254634638196,0.10517254634638196
40.424,0.06836744038338272,0.06836744038338272
40.425,0.039759210202481965,0.039759210202481965
40.426,0.019166985249758905,0.019166985249758905
40.427,0.0023338937433137197,0.0023338937433137197
40.428,0.01650300243902214,-0.01650300243902214
40.429,0.041817280692228564,-0.041817280692228564
40.43,0.07473464367657845,-0.07473464367657845
40.431,0.11236807960312412,-0.11236807960312412
40.432,0.14870158959044388,-0.14870158959044388
40.433,0.17664889125422545,-0.17664889125422545
40.434,0.1905310625318971,-0.1905310625318971
40.435,0.18810056032070832,-0.18810056032070832
40.436,0.1714178019879128,-0.1714178019879128
40.437,0.14629192284975068,-0.14629192284975068
40.438,0.12048776733876099,-0.12048776733876099
40.439,0.10131063724819156,-0.10131063724819156
40.44,0.09337435615198464,-0.09337435615198464
40.441,0.09727813923658446,-0.09727813923658446
40.442,0.10959848711992826,-0.10959848711992826
40.443,0.12415810492767843,-0.12415810492767843
40.444,0.13411743688650635,-0.13411743688650635
40.445,0.13418408633023193,-0.13418408633023193
40.446,0.12222837131919062,-0.12222837131919062
40.447,0.09982140447517485,-0.09982140447517485
40.448,0.07158781875775577,-0.07158781875775577
40.449,0.04365487355068476,-0.04365487355068476
40.45,0.02175145478227314,-0.02175145478227314
40.451,0.00958031764153433,-0.00958031764153433
40.452,0.00794525115446687,-0.00794525115446687
40.453,0.014825988132422419,-0.014825988132422419
40.454,0.026268793352516195,-0.026268793352516195
40.455,0.037715125492348456,-0.037715125492348456
40.456,0.04530225644614849,-0.04530225644614849
40.457,0.04675236367609237,-0.04675236367609237
40.458,0.04167021859407294,-0.04167021859407294
40.459,0.03130335317606858,-0.03130335317606858
40.46,0.01798902139980263,-0.01798902139980263
40.461,0.004560355572577279,-0.004560355572577279
40.462,0.006093085881031746,0.006093085881031746
40.463,0.011266547898336254,0.011266547898336254
40.464,0.008583963913508574,0.008583963913508574
40.465,0.0037906710169030022,-0.0037906710169030022
40.466,0.02676051743112584,-0.02676051743112584
40.467,0.059751526381968234,-0.059751526381968234
40.468,0.1002128753611784,-0.1002128753611784
40.469,0.14345957852377011,-0.14345957852377011
40.47,0.18312278141528504,-0.18312278141528504
40.471,0.21229522242190335,-0.21229522242190335
40.472,0.22518780000355032,-0.22518780000355032
40.473,0.2188513202269814,-0.2188513202269814
40.474,0.19438062163027525,-0.19438062163027525
40.475,0.15708646005991722,-0.15708646005991722
40.476,0.11540104951916808,-0.11540104951916808
40.477,0.0786987207771811,-0.0786987207771811
40.478,0.05462300932703179,-0.05462300932703179
40.479,0.04675963444199627,-0.04675963444199627
40.48,0.05346893882052406,-0.05346893882052406
40.481,0.06837016589550304,-0.06837016589550304
40.482,0.08244013762773017,-0.08244013762773017
40.483,0.08712250447821945,-0.08712250447821945
40.484,0.07744173353625916,-0.07744173353625916
40.485,0.05403662543895249,-0.05403662543895249
40.486,0.02332571732504829,-0.02332571732504829
40.487,0.0043856420789791795,0.0043856420789791795
40.488,0.018339369447381904,0.018339369447381904
40.489,0.011207416767868628,0.011207416767868628
40.49,0.01790136034507772,-0.01790136034507772
40.491,0.062420738017250565,-0.062420738017250565
40.492,0.10979081972732474,-0.10979081972732474
40.493,0.1450819246956636,-0.1450819246956636
40.494,0.155696565788759,-0.155696565788759
40.495,0.13563716846949359,-0.13563716846949359
40.496,0.08788858144151768,-0.08788858144151768
40.497,0.02401965981064791,-0.02401965981064791
40.498,0.039009354427931964,0.039009354427931964
40.499,0.08392178684633156,0.08392178684633156
40.5,0.09851132809019258,0.09851132809019258
40.501,0.0796075492714472,0.0796075492714472
40.502,0.03429010237121277,0.03429010237121277
40.503,0.022127125504324496,-0.022127125504324496
40.504,0.0707904803821805,-0.0707904803821805
40.505,0.09525309099106061,-0.09525309099106061
40.506,0.08681506192644262,-0.08681506192644262
40.507,0.047556585768355086,-0.047556585768355086
40.508,0.009934259414329016,0.009934259414329016
40.509,0.06611203250771847,0.06611203250771847
40.51,0.10025433304924469,0.10025433304924469
40.511,0.09673008306726216,0.09673008306726216
40.512,0.0498644712585703,0.0498644712585703
40.513,0.034055229307057955,-0.034055229307057955
40.514,0.13821438464749514,-0.13821438464749514
40.515,0.23969502191600722,-0.23969502191600722
40.516,0.3155691191418182,-0.3155691191418182
40.517,0.34889591388845553,-0.34889591388845553
40.518,0.33295369901762994,-0.33295369901762994
40.519,0.27261768270855957,-0.27261768270855957
40.52,0.18266010735520555,-0.18266010735520555
40.521,0.08362086282680559,-0.08362086282680559
40.522,0.003482457002449202,0.003482457002449202
40.523,0.062128408838509896,0.062128408838509896
40.524,0.08370022208545458,0.08370022208545458
40.525,0.06863059430023633,0.06863059430023633
40.526,0.02526171330468796,0.02526171330468796
40.527,0.03300774492592873,-0.03300774492592873
40.528,0.09136575311535677,-0.09136575311535677
40.529,0.13704864315244036,-0.13704864315244036
40.53,0.16186305989667438,-0.16186305989667438
40.531,0.16337256227435415,-0.16337256227435415
40.532,0.14473083646784013,-0.14473083646784013
40.533,0.11342822421681598,-0.11342822421681598
40.534,0.07936069511528443,-0.07936069511528443
40.535,0.052643039854598506,-0.052643039854598506
40.536,0.04152448911328244,-0.04152448911328244
40.537,0.05068584074642157,-0.05068584074642157
40.538,0.08013945508821341,-0.08013945508821341
40.539,0.12491586206971084,-0.12491586206971084
40.54,0.17567068413544662,-0.17567068413544662
40.541,0.22024328905842916,-0.22024328905842916
40.542,0.24602575401665017,-0.24602575401665017
40.543,0.24278015094699945,-0.24278015094699945
40.544,0.20533792571919574,-0.20533792571919574
40.545,0.13551166757929922,-0.13551166757929922
40.546,0.04261725901061719,-0.04261725901061719
40.547,0.05773422844569054,0.05773422844569054
40.548,0.14650458923922827,0.14650458923922827
40.549,0.20523073549836957,0.20523073549836957
40.55,0.22027132744289446,0.22027132744289446
40.551,0.1862573478452021,0.1862573478452021
40.552,0.1078338799968035,0.1078338799968035
40.553,0.0008318539904418332,-0.0008318539904418332
40.554,0.11875278002400147,-0.11875278002400147
40.555,0.22245361012565434,-0.22245361012565434
40.556,0.2909399406218085,-0.2909399406218085
40.557,0.3101602680344602,-0.3101602680344602
40.558,0.27595610534722936,-0.27595610534722936
40.559,0.19487713558158137,-0.19487713558158137
40.56,0.08274792263617747,-0.08274792263617747
40.561,0.03862846633829364,0.03862846633829364
40.562,0.14587602402046995,0.14587602402046995
40.563,0.21863682216256897,0.21863682216256897
40.564,0.2434591515957225,0.2434591515957225
40.565,0.2162909857962465,0.2162909857962465
40.566,0.14317591305147825,0.14317591305147825
40.567,0.039064487533479575,0.039064487533479575
40.568,0.07504782434731117,-0.07504782434731117
40.569,0.17618582184334597,-0.17618582184334597
40.57,0.24398343386869048,-0.24398343386869048
40.571,0.2649747581384684,-0.2649747581384684
40.572,0.23572441101321295,-0.23572441101321295
40.573,0.16403863790741435,-0.16403863790741435
40.574,0.06778356484335601,-0.06778356484335601
40.575,0.028701759954189887,0.028701759954189887
40.576,0.10003858902268892,0.10003858902268892
40.577,0.12597798945227234,0.12597798945227234
40.578,0.09683363490935348,0.09683363490935348
40.579,0.016683678605310392,0.016683678605310392
40.58,0.09675220962650621,-0.09675220962650621
40.581,0.2158742514649168,-0.2158742514649168
40.582,0.30992987279455786,-0.30992987279455786
40.583,0.3531146076264935,-0.3531146076264935
40.584,0.3318949257211875,-0.3318949257211875
40.585,0.2494220188738333,-0.2494220188738333
40.586,0.12556736436996807,-0.12556736436996807
40.587,0.00772426756030864,0.00772426756030864
40.588,0.11471482309835679,0.11471482309835679
40.589,0.16559814602993894,0.16559814602993894
40.59,0.14493029153271975,0.14493029153271975
40.591,0.05627098962241339,0.05627098962241339
40.592,0.07844112289771898,-0.07844112289771898
40.593,0.2247446721671773,-0.2247446721671773
40.594,0.34514823458179555,-0.34514823458179555
40.595,0.40954112685898936,-0.40954112685898936
40.596,0.4034822110695687,-0.4034822110695687
40.597,0.3319294886943841,-0.3319294886943841
40.598,0.21733210959571025,-0.21733210959571025
40.599,0.0927073946799668,-0.0927073946799668
40.6,0.008162235118683858,0.008162235118683858
40.601,0.06043120521415957,0.06043120521415957
40.602,0.054897339650653576,0.054897339650653576
40.603,0.00019337000606722832,-0.00019337000606722832
40.604,0.08258479826620757,-0.08258479826620757
40.605,0.16339877482895493,-0.16339877482895493
40.606,0.216005047693117,-0.216005047693117
40.607,0.22355774018144325,-0.22355774018144325
40.608,0.1829551481222772,-0.1829551481222772
40.609,0.10425610217513981,-0.10425610217513981
40.61,0.0061209428986308545,-0.0061209428986308545
40.611,0.09088389122991258,0.09088389122991258
40.612,0.170691714111868,0.170691714111868
40.613,0.22569878524130038,0.22569878524130038
40.614,0.2571393014008847,0.2571393014008847
40.615,0.27209115194923994,0.27209115194923994
40.616,0.27855830857297215,0.27855830857297215
40.617,0.280729127408718,0.280729127408718
40.618,0.27636596350161624,0.27636596350161624
40.619,0.25740611538741764,0.25740611538741764
40.62,0.2135769137112511,0.2135769137112511
40.621,0.13762281223543704,0.13762281223543704
40.622,0.030057214429223045,0.030057214429223045
40.623,0.09855391782403933,-0.09855391782403933
40.624,0.22891879186772313,-0.22891879186772313
40.625,0.33779073743564825,-0.33779073743564825
40.626,0.4047216152828279,-0.4047216152828279
40.627,0.4185262344510412,-0.4185262344510412
40.628,0.3811693786562542,-0.3811693786562542
40.629,0.30759062570227236,-0.30759062570227236
40.63,0.22134114967095309,-0.22134114967095309
40.631,0.14735313676027095,-0.14735313676027095
40.632,0.10418849923352913,-0.10418849923352913
40.633,0.09835049801036855,-0.09835049801036855
40.634,0.1225917408328403,-0.1225917408328403
40.635,0.15882536930569657,-0.15882536930569657
40.636,0.18469189489930704,-0.18469189489930704
40.637,0.1815849137307225,-0.1815849137307225
40.638,0.14142700773176275,-0.14142700773176275
40.639,0.06989345642204992,-0.06989345642204992
40.64,0.01502825722818213,0.01502825722818213
40.641,0.0886847300841398,0.0886847300841398
40.642,0.1277345879756322,0.1277345879756322
40.643,0.1178043903996695,0.1178043903996695
40.644,0.05828778091113662,0.05828778091113662
40.645,0.037275117681349834,-0.037275117681349834
40.646,0.14531347213688528,-0.14531347213688528
40.647,0.2394186915995885,-0.2394186915995885
40.648,0.2982041170311629,-0.2982041170311629
40.649,0.3112587935322634,-0.3112587935322634
40.65,0.2813315100532423,-0.2813315100532423
40.651,0.22220297973296288,-0.22220297973296288
40.652,0.1531743464636256,-0.1531743464636256
40.653,0.09221189044839817,-0.09221189044839817
40.654,0.050166385905217936,-0.050166385905217936
40.655,0.028016786742989574,-0.028016786742989574
40.656,0.017953277211266605,-0.017953277211266605
40.657,0.007723879914649623,-0.007723879914649623
40.658,0.013486301789007227,0.013486301789007227
40.659,0.04989175926509937,0.04989175926509937
40.66,0.09661502981549086,0.09661502981549086
40.661,0.1408330804449336,0.1408330804449336
40.662,0.16619744590460073,0.16619744590460073
40.663,0.15896525910107773,0.15896525910107773
40.664,0.11363355887481097,0.11363355887481097
40.665,0.03600412712343748,0.03600412712343748
40.666,0.057526952636341,-0.057526952636341
40.667,0.14436365791448702,-0.14436365791448702
40.668,0.20241901362686865,-0.20241901362686865
40.669,0.21695133207004103,-0.21695133207004103
40.67,0.1852624784481014,-0.1852624784481014
40.671,0.1176808434796236,-0.1176808434796236
40.672,0.03447020426340508,-0.03447020426340508
40.673,0.040357948531685395,0.040357948531685395
40.674,0.08634459581171838,0.08634459581171838
40.675,0.09266655426691006,0.09266655426691006
40.676,0.061094573482499914,0.061094573482499914
40.677,0.0049529667267269595,0.0049529667267269595
40.678,0.05549512329870543,-0.05549512329870543
40.679,0.0996837538463542,-0.0996837538463542
40.68,0.11325103429063876,-0.11325103429063876
40.681,0.09237810838184557,-0.09237810838184557
40.682,0.04468184501395622,-0.04468184501395622
40.683,0.01347884398534882,0.01347884398534882
40.684,0.062289569725465066,0.062289569725465066
40.685,0.08460210045106642,0.08460210045106642
40.686,0.07096523674966515,0.07096523674966515
40.687,0.022089123891888773,0.022089123891888773
40.688,0.051844812782832705,-0.051844812782832705
40.689,0.1346016598820422,-0.1346016598820422
40.69,0.20880373276531472,-0.20880373276531472
40.691,0.26074088446213617,-0.26074088446213617
40.692,0.28365788476150455,-0.28365788476150455
40.693,0.27869791287870205,-0.27869791287870205
40.694,0.2534825804926031,-0.2534825804926031
40.695,0.21903383701061396,-0.21903383701061396
40.696,0.18616583087953698,-0.18616583087953698
40.697,0.1624911631582704,-0.1624911631582704
40.698,0.15083737149099063,-0.15083737149099063
40.699,0.14931485628233565,-0.14931485628233565
40.7,0.15272710393197586,-0.15272710393197586
40.701,0.15465153932453501,-0.15465153932453501
40.702,0.14944004392991017,-0.14944004392991017
40.703,0.1335751450159013,-0.1335751450159013
40.704,0.1061605801750568,-0.1061605801750568
40.705,0.0686706714199038,-0.0686706714199038
40.706,0.024299257492206183,-0.024299257492206183
40.707,0.022727243561109223,0.022727243561109223
40.708,0.0676524051492211,0.0676524051492211
40.709,0.10550652098802504,0.10550652098802504
40.71,0.13141097064988116,0.13141097064988116
40.711,0.14108474597607246,0.14108474597607246
40.712,0.13165171187481683,0.13165171187481683
40.713,0.10262785039863931,0.10262785039863931
40.714,0.05675233128617507,0.05675233128617507
40.715,0.0002294684771264599,0.0002294684771264599
40.716,0.05795815707287455,-0.05795815707287455
40.717,0.10772838734555157,-0.10772838734555157
40.718,0.14026089384669882,-0.14026089384669882
40.719,0.15040509304128724,-0.15040509304128724
40.72,0.13835595179088966,-0.13835595179088966
40.721,0.10994442459170417,-0.10994442459170417
40.722,0.07527095101127734,-0.07527095101127734
40.723,0.04593843553368149,-0.04593843553368149
40.724,0.031639951591049376,-0.031639951591049376
40.725,0.03714496612690288,-0.03714496612690288
40.726,0.06068528221404845,-0.06068528221404845
40.727,0.09435539514553581,-0.09435539514553581
40.728,0.12651871294603467,-0.12651871294603467
40.729,0.14554783258070214,-0.14554783258070214
40.73,0.14374651646193393,-0.14374651646193393
40.731,0.12017613731674937,-0.12017613731674937
40.732,0.08140139935521651,-0.08140139935521651
40.733,0.03980257590117864,-0.03980257590117864
40.734,0.009880110839972756,-0.009880110839972756
40.735,0.0036511393091696043,-0.0036511393091696043
40.736,0.0265804545081596,-0.0265804545081596
40.737,0.07537620409195467,-0.07537620409195467
40.738,0.1384343689602454,-0.1384343689602454
40.739,0.19889976581351265,-0.19889976581351265
40.74,0.23948114313878932,-0.23948114313878932
40.741,0.24758060698726514,-0.24758060698726514
40.742,0.2191635557029077,-0.2191635557029077
40.743,0.16015556975962364,-0.16015556975962364
40.744,0.08490043783135537,-0.08490043783135537
40.745,0.012116535012056229,-0.012116535012056229
40.746,0.040436903487891085,0.040436903487891085
40.747,0.06097158057964025,0.06097158057964025
40.748,0.04684894564470321,0.04684894564470321
40.749,0.004986382626753549,0.004986382626753549
40.75,0.050586900325348294,-0.050586900325348294
40.751,0.10322105528033365,-0.10322105528033365
40.752,0.13875753826987547,-0.13875753826987547
40.753,0.14966438605944865,-0.14966438605944865
40.754,0.13692874068529737,-0.13692874068529737
40.755,0.10916600244835417,-0.10916600244835417
40.756,0.07929278611877211,-0.07929278611877211
40.757,0.05987983080848158,-0.05987983080848158
40.758,0.058709728456498245,-0.058709728456498245
40.759,0.07598672917988647,-0.07598672917988647
40.76,0.10410986294477176,-0.10410986294477176
40.761,0.13009786390980294,-0.13009786390980294
40.762,0.13990518712827915,-0.13990518712827915
40.763,0.12325944520601106,-0.12325944520601106
40.764,0.07747170861133745,-0.07747170861133745
40.765,0.008977041755024007,-0.008977041755024007
40.766,0.06794259867813657,0.06794259867813657
40.767,0.13493290379803202,0.13493290379803202
40.768,0.1747450352364497,0.1747450352364497
40.769,0.17627953821120834,0.17627953821120834
40.77,0.13798125850082932,0.13798125850082932
40.771,0.06854949399729549,0.06854949399729549
40.772,0.01528175007701671,-0.01528175007701671
40.773,0.0932746337463155,-0.0932746337463155
40.774,0.14723110903002168,-0.14723110903002168
40.775,0.16595553014935216,-0.16595553014935216
40.776,0.14821512043531204,-0.14821512043531204
40.777,0.1028627944097753,-0.1028627944097753
40.778,0.04611014996014595,-0.04611014996014595
40.779,0.003242523444525247,0.003242523444525247
40.78,0.029234518509147822,0.029234518509147822
40.781,0.023273129966442152,0.023273129966442152
40.782,0.013520865291696271,-0.013520865291696271
40.783,0.07079542503577185,-0.07079542503577185
40.784,0.13210759969225427,-0.13210759969225427
40.785,0.179796051197875,-0.179796051197875
40.786,0.20017448090562084,-0.20017448090562084
40.787,0.18755371027666523,-0.18755371027666523
40.788,0.14594091733277448,-0.14594091733277448
40.789,0.08792661771001753,-0.08792661771001753
40.79,0.031065392582183993,-0.031065392582183993
40.791,0.007236825767254151,0.007236825767254151
40.792,0.014892282832493109,0.014892282832493109
40.793,0.011105270768995812,-0.011105270768995812
40.794,0.0634104375496729,-0.0634104375496729
40.795,0.1259616110257128,-0.1259616110257128
40.796,0.17814432680346148,-0.17814432680346148
40.797,0.20041164544386525,-0.20041164544386525
40.798,0.1798791869375218,-0.1798791869375218
40.799,0.11439171919096891,-0.11439171919096891
40.8,0.013933861616997945,-0.013933861616997945
40.801,0.10106863203675998,0.10106863203675998
40.802,0.20421359628862423,0.20421359628862423
40.803,0.2692958124723994,0.2692958124723994
40.804,0.27668401616723903,0.27668401616723903
40.805,0.21832890276963912,0.21832890276963912
40.806,0.10015718937889861,0.10015718937889861
40.807,0.05875574161246422,-0.05875574161246422
40.808,0.2300582696926099,-0.2300582696926099
40.809,0.3821316843234488,-0.3821316843234488
40.81,0.4868290697028088,-0.4868290697028088
40.811,0.5253903275241049,-0.5253903275241049
40.812,0.4922118313297892,-0.4922118313297892
40.813,0.3956902806496464,-0.3956902806496464
40.814,0.2560651967382074,-0.2560651967382074
40.815,0.1008727884173326,-0.1008727884173326
40.816,0.04087169990610806,0.04087169990610806
40.817,0.14443685857872057,0.14443685857872057
40.818,0.1938721663281764,0.1938721663281764
40.819,0.18441265324429157,0.18441265324429157
40.82,0.12249928012731859,0.12249928012731859
40.821,0.023662400536495154,0.023662400536495154
40.822,0.09107099698074994,-0.09107099698074994
40.823,0.19937949212391326,-0.19937949212391326
40.824,0.28160875152204623,-0.28160875152204623
40.825,0.32383569652367616,-0.32383569652367616
40.826,0.319664265409073,-0.319664265409073
40.827,0.2706680061681671,-0.2706680061681671
40.828,0.1856134251685645,-0.1856134251685645
40.829,0.07872194147000056,-0.07872194147000056
40.83,0.03272804530408013,0.03272804530408013
40.831,0.13115356166348047,0.13115356166348047
40.832,0.20146250556164502,0.20146250556164502
40.833,0.23355248610118728,0.23355248610118728
40.834,0.22413663273585005,0.22413663273585005
40.835,0.1775170618055193,0.1775170618055193
40.836,0.10500880803869217,0.10500880803869217
40.837,0.022916097705696803,0.022916097705696803
40.838,0.05073226394074515,-0.05073226394074515
40.839,0.10013404936519421,-0.10013404936519421
40.84,0.11550988228831882,-0.11550988228831882
40.841,0.09578841858614706,-0.09578841858614706
40.842,0.04936112601562159,-0.04936112601562159
40.843,0.007513469475702861,0.007513469475702861
40.844,0.054490021915124975,0.054490021915124975
40.845,0.07231172434121591,0.07231172434121591
40.846,0.04811613964646844,0.04811613964646844
40.847,0.020556830940447468,-0.020556830940447468
40.848,0.12424986651406789,-0.12424986651406789
40.849,0.24316024317789553,-0.24316024317789553
40.85,0.35157151381567286,-0.35157151381567286
40.851,0.42410271420145285,-0.42410271420145285
40.852,0.4421684344835579,-0.4421684344835579
40.853,0.3989117417513689,-0.3989117417513689
40.854,0.3012350494831084,-0.3012350494831084
40.855,0.1683250822824387,-0.1683250822824387
40.856,0.02703257001300341,-0.02703257001300341
40.857,0.09465560223371616,0.09465560223371616
40.858,0.17428613833586892,0.17428613833586892
40.859,0.1999670083627958,0.1999670083627958
40.86,0.17246714321809886,0.17246714321809886
40.861,0.10396512889567089,0.10396512889567089
40.862,0.013987845496284068,0.013987845496284068
40.863,0.0761484515662314,-0.0761484515662314
40.864,0.1487332101993093,-0.1487332101993093
40.865,0.19339915883409997,-0.19339915883409997
40.866,0.20832185014508076,-0.20832185014508076
40.867,0.19884761067111312,-0.19884761067111312
40.868,0.1743161343145141,-0.1743161343145141
40.869,0.14433946217346671,-0.14433946217346671
40.87,0.11584182118539288,-0.11584182118539288
40.871,0.09176261464609148,-0.09176261464609148
40.872,0.0716365674496422,-0.0716365674496422
40.873,0.05354369468148168,-0.05354369468148168
40.874,0.036426124788415226,-0.036426124788415226
40.875,0.02167309770351611,-0.02167309770351611
40.876,0.013208674404375342,-0.013208674404375342
40.877,0.015952480147939818,-0.015952480147939818
40.878,0.033224737507016266,-0.033224737507016266
40.879,0.06416820476659668,-0.06416820476659668
40.88,0.10236385102755596,-0.10236385102755596
40.881,0.13646606993495702,-0.13646606993495702
40.882,0.15298289917549246,-0.15298289917549246
40.883,0.14051444620175124,-0.14051444620175124
40.884,0.09412773317717771,-0.09412773317717771
40.885,0.01832952999930204,-0.01832952999930204
40.886,0.07259290848051614,0.07259290848051614
40.887,0.15733023659928147,0.15733023659928147
40.888,0.21288820240638895,0.21288820240638895
40.889,0.2210901016475748,0.2210901016475748
40.89,0.17433472724901522,0.17433472724901522
40.891,0.07878595371618236,0.07878595371618236
40.892,0.046159450525364965,-0.046159450525364965
40.893,0.17221129268753377,-0.17221129268753377
40.894,0.2692740584384139,-0.2692740584384139
40.895,0.3133597020858935,-0.3133597020858935
40.896,0.2930910005911552,-0.2930910005911552
40.897,0.21291467551326082,-0.21291467551326082
40.898,0.09206448504683573,-0.09206448504683573
40.899,0.04046872524935141,0.04046872524935141
40.9,0.1535546230388134,0.1535546230388134
40.901,0.2219870772025967,0.2219870772025967
40.902,0.23274617179340384,0.23274617179340384
40.903,0.18776048330536876,0.18776048330536876
40.904,0.10250558657327424,0.10250558657327424
40.905,0.0009792634178258375,0.0009792634178258375
40.906,0.09138950035365023,-0.09138950035365023
40.907,0.15480572039425178,-0.15480572039425178
40.908,0.18014517587002876,-0.18014517587002876
40.909,0.17062693081641134,-0.17062693081641134
40.91,0.13981420867040473,-0.13981420867040473
40.911,0.10671151425159753,-0.10671151425159753
40.912,0.08953209461321965,-0.08953209461321965
40.913,0.10002318297737811,-0.10002318297737811
40.914,0.13998749579779213,-0.13998749579779213
40.915,0.20092621134673505,-0.20092621134673505
40.916,0.2667798558528045,-0.2667798558528045
40.917,0.31884509352245716,-0.31884509352245716
40.918,0.34135432562760226,-0.34135432562760226
40.919,0.3260763671104482,-0.3260763671104482
40.92,0.2746444649060714,-0.2746444649060714
40.921,0.19801970056568663,-0.19801970056568663
40.922,0.11333645298260187,-0.11333645298260187
40.923,0.039108114980743625,-0.039108114980743625
40.924,0.00980497269679903,0.00980497269679903
40.925,0.026051052890437187,0.026051052890437187
40.926,0.011434314403997003,0.011434314403997003
40.927,0.024024629585569057,-0.024024629585569057
40.928,0.0652633220885851,-0.0652633220885851
40.929,0.09663114308400844,-0.09663114308400844
40.93,0.10634794848185503,-0.10634794848185503
40.931,0.08973583203971836,-0.08973583203971836
40.932,0.0503689738703077,-0.0503689738703077
40.933,0.0011168466757587314,0.0011168466757587314
40.934,0.05016594937930674,0.05016594937930674
40.935,0.08248422222072871,0.08248422222072871
40.936,0.08808853197422128,0.08808853197422128
40.937,0.06411633802202954,0.06411633802202954
40.938,0.01565047929447161,0.01565047929447161
40.939,0.04562971350666134,-0.04562971350666134
40.94,0.10456495037400992,-0.10456495037400992
40.941,0.14652276794758623,-0.14652276794758623
40.942,0.1611952920252243,-0.1611952920252243
40.943,0.14517229537997367,-0.14517229537997367
40.944,0.10263428794741558,-0.10263428794741558
40.945,0.044042701608548174,-0.044042701608548174
40.946,0.01674318727616786,0.01674318727616786
40.947,0.06607573112132403,0.06607573112132403
40.948,0.09384141296241255,0.09384141296241255
40.949,0.09560930978440818,0.09560930978440818
40.95,0.07309427870612173,0.07309427870612173
40.951,0.03293324092818484,0.03293324092818484
40.952,0.015737384539793786,-0.015737384539793786
40.953,0.06409085667875636,-0.06409085667875636
40.954,0.10592835238805975,-0.10592835238805975
40.955,0.1388352542522142,-0.1388352542522142
40.956,0.16391174369750194,-0.16391174369750194
40.957,0.1842894019912601,-0.1842894019912601
40.958,0.2030369846366471,-0.2030369846366471
40.959,0.22124244829366557,-0.22124244829366557
40.96,0.2369788045814395,-0.2369788045814395
40.961,0.2455477493466618,-0.2455477493466618
40.962,0.24095183645926388,-0.24095183645926388
40.963,0.2181189483643583,-0.2181189483643583
40.964,0.17513154558785193,-0.17513154558785193
40.965,0.11468606149009064,-0.11468606149009064
40.966,0.04423392474373722,-0.04423392474373722
40.967,0.025337422103123286,0.025337422103123286
40.968,0.08216730240398573,0.08216730240398573
40.969,0.11634822017552082,0.11634822017552082
40.97,0.12247909880370855,0.12247909880370855
40.971,0.1011059066798794,0.1011059066798794
40.972,0.058628555597073806,0.058628555597073806
40.973,0.005692095048793089,0.005692095048793089
40.974,0.045493549441587344,-0.045493549441587344
40.975,0.0841724736731122,-0.0841724736731122
40.976,0.1035947310116323,-0.1035947310116323
40.977,0.10244933545559742,-0.10244933545559742
40.978,0.08485073971036527,-0.08485073971036527
40.979,0.058945877318525186,-0.058945877318525186
40.98,0.034561711457498645,-0.034561711457498645
40.981,0.020533785121763737,-0.020533785121763737
40.982,0.022398817309739805,-0.022398817309739805
40.983,0.04100504245031711,-0.04100504245031711
40.984,0.07234173562965407,-0.07234173562965407
40.985,0.10858655140552997,-0.10858655140552997
40.986,0.1400894512444225,-0.1400894512444225
40.987,0.15781227623877658,-0.15781227623877658
40.988,0.15565549110415744,-0.15565549110415744
40.989,0.13213514278856253,-0.13213514278856253
40.99,0.09101061698436697,-0.09101061698436697
40.991,0.04068073365528291,-0.04068073365528291
40.992,0.007573855284394915,0.007573855284394915
40.993,0.042163580682920365,0.042163580682920365
40.994,0.05402859778257585,0.05402859778257585
40.995,0.039081617166500715,0.039081617166500715
40.996,0.0003786033094571595,-0.0003786033094571595
40.997,0.055731320547866225,-0.055731320547866225
40.998,0.1137003302777645,-0.1137003302777645
40.999,0.15934835061392427,-0.15934835061392427
41.0,0.17974587725954538,-0.17974587725954538
41.001,0.16741300585758068,-0.16741300585758068
41.002,0.12260564405310348,-0.12260564405310348
41.003,0.05374908088949881,-0.05374908088949881
41.004,0.024224745271011594,0.024224745271011594
41.005,0.09331553061876208,0.09331553061876208
41.006,0.13683106660044175,0.13683106660044175
41.007,0.14355628906537343,0.14355628906537343
41.008,0.11057925003512592,0.11057925003512592
41.009,0.04398397647473007,0.04398397647473007
41.01,0.042786910556060875,-0.042786910556060875
41.011,0.1324299423062949,-0.1324299423062949
41.012,0.2081338465869672,-0.2081338465869672
41.013,0.2575510280538158,-0.2575510280538158
41.014,0.2753000932596318,-0.2753000932596318
41.015,0.2633966271823991,-0.2633966271823991
41.016,0.2296704134256915,-0.2296704134256915
41.017,0.18484465518981652,-0.18484465518981652
41.018,0.1393201658152763,-0.1393201658152763
41.019,0.10070502731787467,-0.10070502731787467
41.02,0.07276846969269946,-0.07276846969269946
41.021,0.05591614472491402,-0.05591614472491402
41.022,0.04870207784103209,-0.04870207784103209
41.023,0.04953026643560021,-0.04953026643560021
41.024,0.05769404644152132,-0.05769404644152132
41.025,0.07325549582095525,-0.07325549582095525
41.026,0.09584065093212002,-0.09584065093212002
41.027,0.1229872196848052,-0.1229872196848052
41.028,0.14899200332932394,-0.14899200332932394
41.029,0.16511497748501547,-0.16511497748501547
41.03,0.16150760482905302,-0.16150760482905302
41.031,0.1305080941197161,-0.1305080941197161
41.032,0.07025953237311922,-0.07025953237311922
41.033,0.012756542990906006,0.012756542990906006
41.034,0.10353124305127137,0.10353124305127137
41.035,0.18127794410408948,0.18127794410408948
41.036,0.2247191357247209,0.2247191357247209
41.037,0.21851980474458932,0.21851980474458932
41.038,0.15886002009552525,0.15886002009552525
41.039,0.05616213405332293,0.05616213405332293
41.04,0.06628982288062646,-0.06628982288062646
41.041,0.1778647708155051,-0.1778647708155051
41.042,0.24889277922211983,-0.24889277922211983
41.043,0.2593894286237337,-0.2593894286237337
41.044,0.20549155700635213,-0.20549155700635213
41.045,0.10144310432884784,-0.10144310432884784
41.046,0.023742607137114513,0.023742607137114513
41.047,0.13417321878031285,0.13417321878031285
41.048,0.19727569287425561,0.19727569287425561
41.049,0.1932498721089171,0.1932498721089171
41.05,0.12087294351539501,0.12087294351539501
41.051,0.0021629658557311693,-0.0021629658557311693
41.052,0.14450575483943784,-0.14450575483943784
41.053,0.27036160841979795,-0.27036160841979795
41.054,0.34980399910567306,-0.34980399910567306
41.055,0.3669822137337311,-0.3669822137337311
41.056,0.3237532474339554,-0.3237532474339554
41.057,0.23777402942068993,-0.23777402942068993
41.058,0.1358980872742117,-0.1358980872742117
41.059,0.045218556198165505,-0.045218556198165505
41.06,0.015210115552185322,0.015210115552185322
41.061,0.03927901997049399,0.03927901997049399
41.062,0.033908265357700085,0.033908265357700085
41.063,0.014561312456494502,0.014561312456494502
41.064,0.0019763264725030094,-0.0019763264725030094
41.065,0.004812101986363171,-0.004812101986363171
41.066,0.0065167441413052085,0.0065167441413052085
41.067,0.021842514389971646,0.021842514389971646
41.068,0.024566108619643368,0.024566108619643368
41.069,0.001291122092604624,-0.001291122092604624
41.07,0.06378823240885823,-0.06378823240885823
41.071,0.1582573927302121,-0.1582573927302121
41.072,0.2668877273029201,-0.2668877273029201
41.073,0.36307819969929755,-0.36307819969929755
41.074,0.41926425474039375,-0.41926425474039375
41.075,0.4156797911100555,-0.4156797911100555
41.076,0.34713465828998924,-0.34713465828998924
41.077,0.22550074494375383,-0.22550074494375383
41.078,0.07699641259297074,-0.07699641259297074
41.079,0.06493816602158198,0.06493816602158198
41.08,0.1689507665747476,0.1689507665747476
41.081,0.2143654232082668,0.2143654232082668
41.082,0.19642457036092886,0.19642457036092886
41.083,0.12669135409781718,0.12669135409781718
41.084,0.028699872025615303,0.028699872025615303
41.085,0.06956598375057699,-0.06956598375057699
41.086,0.14387070161056814,-0.14387070161056814
41.087,0.18005006122886957,-0.18005006122886957
41.088,0.17668038283040577,-0.17668038283040577
41.089,0.14361747485004206,-0.14361747485004206
41.09,0.09729149435805573,-0.09729149435805573
41.091,0.05460707059378178,-0.05460707059378178
41.092,0.027565760870478462,-0.027565760870478462
41.093,0.02026324647249056,-0.02026324647249056
41.094,0.0289360343423839,-0.0289360343423839
41.095,0.044624325179198676,-0.044624325179198676
41.096,0.05717830495527865,-0.05717830495527865
41.097,0.059035971123752584,-0.059035971123752584
41.098,0.047496004886934506,-0.047496004886934506
41.099,0.024931340897068277,-0.024931340897068277
41.1,0.0027742260015866105,0.0027742260015866105
41.101,0.028662047305024974,0.028662047305024974
41.102,0.046915038015022725,0.046915038015022725
41.103,0.05404026880806301,0.05404026880806301
41.104,0.04878973443209067,0.04878973443209067
41.105,0.03121201976093979,0.03121201976093979
41.106,0.001609185427202675,0.001609185427202675
41.107,0.03984493899950026,-0.03984493899950026
41.108,0.09246988880064577,-0.09246988880064577
41.109,0.15367048679093664,-0.15367048679093664
41.11,0.21751920096823196,-0.21751920096823196
41.111,0.27428438941335886,-0.27428438941335886
41.112,0.31160554295874,-0.31160554295874
41.113,0.31738595644027123,-0.31738595644027123
41.114,0.2837032206814374,-0.2837032206814374
41.115,0.2104434950226547,-0.2104434950226547
41.116,0.10721526678242943,-0.10721526678242943
41.117,0.007496903447824277,0.007496903447824277
41.118,0.11011907697157164,0.11011907697157164
41.119,0.1778679563230754,0.1778679563230754
41.12,0.19505233300377522,0.19505233300377522
41.121,0.157821811150769,0.157821811150769
41.122,0.07575411914328134,0.07575411914328134
41.123,0.030385990439474875,-0.030385990439474875
41.124,0.1341694380732099,-0.1341694380732099
41.125,0.21068734786908416,-0.21068734786908416
41.126,0.24322074347426104,-0.24322074347426104
41.127,0.22737897856402245,-0.22737897856402245
41.128,0.17151950815245298,-0.17151950815245298
41.129,0.09347591504052832,-0.09347591504052832
41.13,0.014801721842742643,-0.014801721842742643
41.131,0.045520441186779115,0.045520441186779115
41.132,0.07589723123683334,0.07589723123683334
41.133,0.07409038292529813,0.07409038292529813
41.134,0.046017532847653086,0.046017532847653086
41.135,0.002188843956778541,0.002188843956778541
41.136,0.04666267005409486,-0.04666267005409486
41.137,0.09305804160929432,-0.09305804160929432
41.138,0.13415740114576258,-0.13415740114576258
41.139,0.17078057620682197,-0.17078057620682197
41.14,0.20477326256969042,-0.20477326256969042
41.141,0.23608398603845238,-0.23608398603845238
41.142,0.2609941677931755,-0.2609941677931755
41.143,0.2724200736622642,-0.2724200736622642
41.144,0.26229485653267415,-0.26229485653267415
41.145,0.22510849574444525,-0.22510849574444525
41.146,0.16111198406608673,-0.16111198406608673
41.147,0.0777221507052187,-0.0777221507052187
41.148,0.01169585741893786,0.01169585741893786
41.149,0.09147321257022067,0.09147321257022067
41.15,0.14850879049489873,0.14850879049489873
41.151,0.17657583037964208,0.17657583037964208
41.152,0.17835162817616945,0.17835162817616945
41.153,0.16421503643547708,0.16421503643547708
41.154,0.1480375489998318,0.1480375489998318
41.155,0.1413700383095906,0.1413700383095906
41.156,0.14815042964242098,0.14815042964242098
41.157,0.16202761156757117,0.16202761156757117
41.158,0.16758003005264577,0.16758003005264577
41.159,0.14535984123123447,0.14535984123123447
41.16,0.07927844415057761,0.07927844415057761
41.161,0.03612416844345634,-0.03612416844345634
41.162,0.191143189668868,-0.191143189668868
41.163,0.36097118205307677,-0.36097118205307677
41.164,0.5107825913748265,-0.5107825913748265
41.165,0.6046039398670713,-0.6046039398670713
41.166,0.6154136604472877,-0.6154136604472877
41.167,0.5333942725985703,-0.5333942725985703
41.168,0.3697301353091621,-0.3697301353091621
41.169,0.1546671678681667,-0.1546671678681667
41.17,0.06969989387274089,0.06969989387274089
41.171,0.25984132108321023,0.25984132108321023
41.172,0.3813924031882585,0.3813924031882585
41.173,0.4169376936092819,0.4169376936092819
41.174,0.3689208871487044,0.3689208871487044
41.175,0.2571647452020096,0.2571647452020096
41.176,0.11211159746955368,0.11211159746955368
41.177,0.03391934221693327,-0.03391934221693327
41.178,0.1547711201647769,-0.1547711201647769
41.179,0.23557704814646063,-0.23557704814646063
41.18,0.27390126117102676,-0.27390126117102676
41.181,0.2771787429113316,-0.2771787429113316
41.182,0.25786834655337787,-0.25786834655337787
41.183,0.22826858163156116,-0.22826858163156116
41.184,0.19676705953302864,-0.19676705953302864
41.185,0.1665323392445327,-0.1665323392445327
41.186,0.1366356305397941,-0.1366356305397941
41.187,0.10469741405501454,-0.10469741405501454
41.188,0.06969935969506402,-0.06969935969506402
41.189,0.033709195392675806,-0.033709195392675806
41.19,0.0018432944008053287,-0.0018432944008053287
41.191,0.019420394227322113,0.019420394227322113
41.192,0.024786273095668276,0.024786273095668276
41.193,0.012431331659226608,0.012431331659226608
41.194,0.014924909625871785,-0.014924909625871785
41.195,0.05061584810786712,-0.05061584810786712
41.196,0.08605936666718372,-0.08605936666718372
41.197,0.11344023348304788,-0.11344023348304788
41.198,0.12803149228267907,-0.12803149228267907
41.199,0.1293186270282476,-0.1293186270282476
41.2,0.12058126245444645,-0.12058126245444645
41.201,0.10718845127705923,-0.10718845127705923
41.202,0.09433703713882069,-0.09433703713882069
41.203,0.08513090053093753,-0.08513090053093753
41.204,0.07971183655141334,-0.07971183655141334
41.205,0.07570084272220401,-0.07570084272220401
41.206,0.06968105835417049,-0.06968105835417049
41.207,0.059060016589017494,-0.059060016589017494
41.208,0.043535789867172325,-0.043535789867172325
41.209,0.02558793901800649,-0.02558793901800649
41.21,0.009825510132721704,-0.009825510132721704
41.211,0.0014765281363265936,-0.0014765281363265936
41.212,0.00461613423885332,-0.00461613423885332
41.213,0.02078976557914669,-0.02078976557914669
41.214,0.04848857607457091,-0.04848857607457091
41.215,0.08357669429068271,-0.08357669429068271
41.216,0.12041195882721167,-0.12041195882721167
41.217,0.15319025180815182,-0.15319025180815182
41.218,0.17705218305124704,-0.17705218305124704
41.219,0.18869196590036386,-0.18869196590036386
41.22,0.18648938467889697,-0.18648938467889697
41.221,0.17040332151495796,-0.17040332151495796
41.222,0.14191219801455002,-0.14191219801455002
41.223,0.1041429190786981,-0.1041429190786981
41.224,0.062074269262964665,-0.062074269262964665
41.225,0.02247655257819925,-0.02247655257819925
41.226,0.006801899526389876,0.006801899526389876
41.227,0.01839943016547818,0.01839943016547818
41.228,0.007666361928543752,0.007666361928543752
41.229,0.02507266550190468,-0.02507266550190468
41.23,0.07311581918756604,-0.07311581918756604
41.231,0.12368118384309423,-0.12368118384309423
41.232,0.16030763578100293,-0.16030763578100293
41.233,0.16705135448774733,-0.16705135448774733
41.234,0.1334239603058721,-0.1334239603058721
41.235,0.05853326955492,-0.05853326955492
41.236,0.0471018089538453,0.0471018089538453
41.237,0.16301287159593514,0.16301287159593514
41.238,0.26346529657101936,0.26346529657101936
41.239,0.3241963487436499,0.3241963487436499
41.24,0.3292205888713351,0.3292205888713351
41.241,0.275516156157688,0.275516156157688
41.242,0.1739593631533063,0.1739593631533063
41.243,0.046046006505163106,0.046046006505163106
41.244,0.082648304754395,-0.082648304754395
41.245,0.19015195542178842,-0.19015195542178842
41.246,0.26432990360667286,-0.26432990360667286
41.247,0.3054928230603441,-0.3054928230603441
41.248,0.32443543639845496,-0.32443543639845496
41.249,0.33658388583630294,-0.33658388583630294
41.25,0.3543909697816483,-0.3543909697816483
41.251,0.3808659523856255,-0.3808659523856255
41.252,0.4068479712178379,-0.4068479712178379
41.253,0.4133711453318236,-0.4133711453318236
41.254,0.3786293312010802,-0.3786293312010802
41.255,0.28726784182425613,-0.28726784182425613
41.256,0.13866258170292944,-0.13866258170292944
41.257,0.04907263812052731,0.04907263812052731
41.258,0.24133821883776152,0.24133821883776152
41.259,0.3954664852139116,0.3954664852139116
41.26,0.4730120837415783,0.4730120837415783
41.261,0.45207703689856493,0.45207703689856493
41.262,0.3355221262591841,0.3355221262591841
41.263,0.1520172894628804,0.1520172894628804
41.264,0.05091127630671377,-0.05091127630671377
41.265,0.22007382641279682,-0.22007382641279682
41.266,0.3121489677285316,-0.3121489677285316
41.267,0.30672609892854175,-0.30672609892854175
41.268,0.21266353484943135,-0.21266353484943135
41.269,0.06559652921026116,-0.06559652921026116
41.27,0.08278715677556225,0.08278715677556225
41.271,0.1804551920751225,0.1804551920751225
41.272,0.19086284057175873,0.19086284057175873
41.273,0.10399776343314038,0.10399776343314038
41.274,0.060746664444731646,-0.060746664444731646
41.275,0.2606489189769866,-0.2606489189769866
41.276,0.4426426515313253,-0.4426426515313253
41.277,0.5590392401672708,-0.5590392401672708
41.278,0.5810829116163663,-0.5810829116163663
41.279,0.5062822235386841,-0.5062822235386841
41.28,0.3575809144491521,-0.3575809144491521
41.281,0.17508550041001347,-0.17508550041001347
41.282,0.003368042938637461,-0.003368042938637461
41.283,0.12142928990353119,0.12142928990353119
41.284,0.180691420203845,0.180691420203845
41.285,0.17614987966804652,0.17614987966804652
41.286,0.12617138470279743,0.12617138470279743
41.287,0.05740895384729883,0.05740895384729883
41.288,0.004942803228574766,-0.004942803228574766
41.289,0.044901771118671774,-0.044901771118671774
41.29,0.059098897768926184,-0.059098897768926184
41.291,0.0552143968791271,-0.0552143968791271
41.292,0.04665058470709782,-0.04665058470709782
41.293,0.045866212327935085,-0.045866212327935085
41.294,0.05903682978555891,-0.05903682978555891
41.295,0.08394611175018352,-0.08394611175018352
41.296,0.11160544594211286,-0.11160544594211286
41.297,0.1306130573620864,-0.1306130573620864
41.298,0.13226559339923594,-0.13226559339923594
41.299,0.11427577953004131,-0.11427577953004131
41.3,0.08164364634183241,-0.08164364634183241
41.301,0.04446192229361712,-0.04446192229361712
41.302,0.013699180739202621,-0.013699180739202621
41.303,0.0032044606354162397,0.0032044606354162397
41.304,0.005074884511613309,0.005074884511613309
41.305,0.0030400883683505686,-0.0030400883683505686
41.306,0.0126270772719832,-0.0126270772719832
41.307,0.015963724899391796,-0.015963724899391796
41.308,0.010026153377949654,-0.010026153377949654
41.309,0.001674629934392824,0.001674629934392824
41.31,0.010205261736270232,0.010205261736270232
41.311,0.0049248483058519366,0.0049248483058519366
41.312,0.021657293720779514,-0.021657293720779514
41.313,0.06988680620680987,-0.06988680620680987
41.314,0.13158211671579056,-0.13158211671579056
41.315,0.19203503822710755,-0.19203503822710755
41.316,0.23483000030561918,-0.23483000030561918
41.317,0.24774886002317953,-0.24774886002317953
41.318,0.22749525972041673,-0.22749525972041673
41.319,0.18131134472407162,-0.18131134472407162
41.32,0.12467312806218855,-0.12467312806218855
41.321,0.07573662214638832,-0.07573662214638832
41.322,0.04850396743395946,-0.04850396743395946
41.323,0.0472782735489925,-0.0472782735489925
41.324,0.06461764390565405,-0.06461764390565405
41.325,0.08377867992632548,-0.08377867992632548
41.326,0.08498429698791488,-0.08498429698791488
41.327,0.05336661338714288,-0.05336661338714288
41.328,0.014312910073887686,0.014312910073887686
41.329,0.10676802100779215,0.10676802100779215
41.33,0.20044736324158619,0.20044736324158619
41.331,0.2664645355221593,0.2664645355221593
41.332,0.28000010566403377,0.28000010566403377
41.333,0.22899192903862886,0.22899192903862886
41.334,0.11905175298292181,0.11905175298292181
41.335,0.027238831610893133,-0.027238831610893133
41.336,0.17659974376520837,-0.17659974376520837
41.337,0.29491451850434836,-0.29491451850434836
41.338,0.35744177509754405,-0.35744177509754405
41.339,0.35598357678270587,-0.35598357678270587
41.34,0.30064451394816005,-0.30064451394816005
41.341,0.21566485334373708,-0.21566485334373708
41.342,0.1308360412562456,-0.1308360412562456
41.343,0.07149619591865686,-0.07149619591865686
41.344,0.05053637802135624,-0.05053637802135624
41.345,0.06508080985253839,-0.06508080985253839
41.346,0.09881778311506828,-0.09881778311506828
41.347,0.12895863314504852,-0.12895863314504852
41.348,0.13520124635146735,-0.13520124635146735
41.349,0.10743390820969123,-0.10743390820969123
41.35,0.049447469261871047,-0.049447469261871047
41.351,0.02258038828205522,0.02258038828205522
41.352,0.08615672942869246,0.08615672942869246
41.353,0.12079903389344837,0.12079903389344837
41.354,0.1155426429506683,0.1155426429506683
41.355,0.07290882979439428,0.07290882979439428
41.356,0.007939530275754336,0.007939530275754336
41.357,0.05728736888086805,-0.05728736888086805
41.358,0.1016205884741328,-0.1016205884741328
41.359,0.11237143860825094,-0.11237143860825094
41.36,0.08971898634520203,-0.08971898634520203
41.361,0.0464516708911199,-0.0464516708911199
41.362,0.003213848293589172,-0.003213848293589172
41.363,0.018968283556128673,0.018968283556128673
41.364,0.006174120482288714,0.006174120482288714
41.365,0.04355586882463136,-0.04355586882463136
41.366,0.11963190009041469,-0.11963190009041469
41.367,0.20266116380144872,-0.20266116380144872
41.368,0.27105362447013814,-0.27105362447013814
41.369,0.3080546855174672,-0.3080546855174672
41.37,0.3067290378917309,-0.3067290378917309
41.371,0.2712763485583136,-0.2712763485583136
41.372,0.21446890747849123,-0.21446890747849123
41.373,0.15242314392643574,-0.15242314392643574
41.374,0.09882182276557894,-0.09882182276557894
41.375,0.0607717917056535,-0.0607717917056535
41.376,0.037718169643483734,-0.037718169643483734
41.377,0.02356051601232856,-0.02356051601232856
41.378,0.010838173378687976,-0.010838173378687976
41.379,0.004930909654859983,0.004930909654859983
41.38,0.022663880097629763,0.022663880097629763
41.381,0.03599972132088913,0.03599972132088913
41.382,0.03634009266504945,0.03634009266504945
41.383,0.0173324225703686,0.0173324225703686
41.384,0.021179233187644808,-0.021179233187644808
41.385,0.07156523920594904,-0.07156523920594904
41.386,0.12010107313626384,-0.12010107313626384
41.387,0.1515232693911711,-0.1515232693911711
41.388,0.15480725421035624,-0.15480725421035624
41.389,0.12789683035013244,-0.12789683035013244
41.39,0.07936898388011637,-0.07936898388011637
41.391,0.02609543203478304,-0.02609543203478304
41.392,0.012518034228197417,0.012518034228197417
41.393,0.021742990861492784,0.021742990861492784
41.394,0.0024939581911552766,-0.0024939581911552766
41.395,0.05127363197253709,-0.05127363197253709
41.396,0.10517253127168669,-0.10517253127168669
41.397,0.14100858304675312,-0.14100858304675312
41.398,0.14061949281717823,-0.14061949281717823
41.399,0.09851629484706026,-0.09851629484706026
41.4,0.02543559349485003,-0.02543559349485003
41.401,0.05389335838722342,0.05389335838722342
41.402,0.10845511166058341,0.10845511166058341
41.403,0.11180245107422837,0.11180245107422837
41.404,0.052424642339118144,0.052424642339118144
41.405,0.06010311760293874,-0.06010311760293874
41.406,0.1957122440332555,-0.1957122440332555
41.407,0.3115398198270779,-0.3115398198270779
41.408,0.36469500546523703,-0.36469500546523703
41.409,0.3262199225549304,-0.3262199225549304
41.41,0.1917547626137408,-0.1917547626137408
41.411,0.014732949472388457,0.014732949472388457
41.412,0.2457158078010846,0.2457158078010846
41.413,0.44227951319459047,0.44227951319459047
41.414,0.5502436950267566,0.5502436950267566
41.415,0.5354665261880724,0.5354665261880724
41.416,0.3937547841268869,0.3937547841268869
41.417,0.15242373271935317,0.15242373271935317
41.418,0.13691143645070303,-0.13691143645070303
41.419,0.41209317651764843,-0.41209317651764843
41.42,0.6166061574699275,-0.6166061574699275
41.421,0.7134819597761478,-0.7134819597761478
41.422,0.6930946660783077,-0.6930946660783077
41.423,0.5730293965842899,-0.5730293965842899
41.424,0.3906699441503455,-0.3906699441503455
41.425,0.19127055926556713,-0.19127055926556713
41.426,0.015400719691248566,-0.015400719691248566
41.427,0.11051496674945493,0.11051496674945493
41.428,0.17815738605387432,0.17815738605387432
41.429,0.1953326983245367,0.1953326983245367
41.43,0.1795328266263545,0.1795328266263545
41.431,0.14977483296612237,0.14977483296612237
41.432,0.11968648808851068,0.11968648808851068
41.433,0.0940162682232153,0.0940162682232153
41.434,0.06929227149958139,0.06929227149958139
41.435,0.037791472915500224,0.037791472915500224
41.436,0.007138318653131859,-0.007138318653131859
41.437,0.06667673192070933,-0.06667673192070933
41.438,0.13478129389062588,-0.13478129389062588
41.439,0.19967956195520253,-0.19967956195520253
41.44,0.24790254107796506,-0.24790254107796506
41.441,0.26920264620017353,-0.26920264620017353
41.442,0.2604110176063431,-0.2604110176063431
41.443,0.22674360391992088,-0.22674360391992088
41.444,0.1800641172257278,-0.1800641172257278
41.445,0.13476550574213486,-0.13476550574213486
41.446,0.102809072844124,-0.102809072844124
41.447,0.08974681896047465,-0.08974681896047465
41.448,0.09315891008177501,-0.09315891008177501
41.449,0.10402596562288269,-0.10402596562288269
41.45,0.11047112247501378,-0.11047112247501378
41.451,0.1024495641982981,-0.1024495641982981
41.452,0.07564144079243129,-0.07564144079243129
41.453,0.0331251187886904,-0.0331251187886904
41.454,0.015755950389859663,0.015755950389859663
41.455,0.05887906401151599,0.05887906401151599
41.456,0.0858625222445073,0.0858625222445073
41.457,0.09192444643378805,0.09192444643378805
41.458,0.07962650516915759,0.07962650516915759
41.459,0.05782063126395154,0.05782063126395154
41.46,0.038139905985890676,0.038139905985890676
41.461,0.030283603426382255,0.030283603426382255
41.462,0.037817285311558146,0.037817285311558146
41.463,0.05607287664783134,0.05607287664783134
41.464,0.0730339126489703,0.0730339126489703
41.465,0.07306602581791055,0.07306602581791055
41.466,0.04235252443788973,0.04235252443788973
41.467,0.025738541772453605,-0.025738541772453605
41.468,0.12717829966769778,-0.12717829966769778
41.469,0.2469569307995796,-0.2469569307995796
41.47,0.3622002134049227,-0.3622002134049227
41.471,0.4479117088424346,-0.4479117088424346
41.472,0.4836829961897491,-0.4836829961897491
41.473,0.459383623415091,-0.459383623415091
41.474,0.37813033802292295,-0.37813033802292295
41.475,0.2556467948625205,-0.2556467948625205
41.476,0.11620209509296997,-0.11620209509296997
41.477,0.013676967302216125,0.013676967302216125
41.478,0.11189577848498766,0.11189577848498766
41.479,0.16598991309484545,0.16598991309484545
41.48,0.17543223710081102,0.17543223710081102
41.481,0.15054235996973553,0.15054235996973553
41.482,0.10849892184742771,0.10849892184742771
41.483,0.0677708136022146,0.0677708136022146
41.484,0.04267131926609791,0.04267131926609791
41.485,0.039602701195256884,0.039602701195256884
41.486,0.05596412103342896,0.05596412103342896
41.487,0.08184469398818695,0.08184469398818695
41.488,0.10378563013868547,0.10378563013868547
41.489,0.109323387220013,0.109323387220013
41.49,0.09087876961561303,0.09087876961561303
41.491,0.04785648314926161,0.04785648314926161
41.492,0.013550751304754138,-0.013550751304754138
41.493,0.08261247959384199,-0.08261247959384199
41.494,0.14749883040597833,-0.14749883040597833
41.495,0.19872681483653365,-0.19872681483653365
41.496,0.23151607501717264,-0.23151607501717264
41.497,0.24638702187051142,-0.24638702187051142
41.498,0.24796026417834316,-0.24796026417834316
41.499,0.24252385432147028,-0.24252385432147028
41.5,0.23532386295580188,-0.23532386295580188
41.501,0.22858098580866537,-0.22858098580866537
41.502,0.220934146711661,-0.220934146711661
41.503,0.20847120473801473,-0.20847120473801473
41.504,0.18691640871309634,-0.18691640871309634
41.505,0.15410993706937592,-0.15410993706937592
41.506,0.11178963144277665,-0.11178963144277665
41.507,0.06591678003874546,-0.06591678003874546
41.508,0.02530168183605319,-0.02530168183605319
41.509,0.0010936370348741953,0.0010936370348741953
41.51,0.007285262450820396,0.007285262450820396
41.511,0.007279282215396088,-0.007279282215396088
41.512,0.036888336416838974,-0.036888336416838974
41.513,0.07078987345313958,-0.07078987345313958
41.514,0.09621736044422458,-0.09621736044422458
41.515,0.10232255851735195,-0.10232255851735195
41.516,0.0837534030445708,-0.0837534030445708
41.517,0.04266254785571966,-0.04266254785571966
41.518,0.011602517601304818,0.011602517601304818
41.519,0.06513351693359692,0.06513351693359692
41.52,0.10364555294875943,0.10364555294875943
41.521,0.116885852427276,0.116885852427276
41.522,0.10181633184614447,0.10181633184614447
41.523,0.06348075364452077,0.06348075364452077
41.524,0.013212044603742923,0.013212044603742923
41.525,0.035275209352120585,-0.035275209352120585
41.526,0.07062544857178832,-0.07062544857178832
41.527,0.08780730818906002,-0.08780730818906002
41.528,0.08990381948079262,-0.08990381948079262
41.529,0.0870223590333522,-0.0870223590333522
41.53,0.09257986462646695,-0.09257986462646695
41.531,0.11812979629970555,-0.11812979629970555
41.532,0.16844825063581292,-0.16844825063581292
41.533,0.238589241310721,-0.238589241310721
41.534,0.31403757032395585,-0.31403757032395585
41.535,0.3741088417124775,-0.3741088417124775
41.536,0.3976847817763922,-0.3976847817763922
41.537,0.36957778718029166,-0.36957778718029166
41.538,0.28555918903425237,-0.28555918903425237
41.539,0.15445556963275053,-0.15445556963275053
41.54,0.0033961093213208393,0.0033961093213208393
41.541,0.16092510090451606,0.16092510090451606
41.542,0.29093674565259087,0.29093674565259087
41.543,0.3726170271747702,0.3726170271747702
41.544,0.3960715822322929,0.3960715822322929
41.545,0.36370013896104947,0.36370013896104947
41.546,0.2882240208612754,0.2882240208612754
41.547,0.18821596585908407,0.18821596585908407
41.548,0.08269066679321346,0.08269066679321346
41.549,0.013519318045077333,-0.013519318045077333
41.55,0.0922855513402181,-0.0922855513402181
41.551,0.15210475584785033,-0.15210475584785033
41.552,0.1958495361866095,-0.1958495361866095
41.553,0.22749440751456262,-0.22749440751456262
41.554,0.24922359138978012,-0.24922359138978012
41.555,0.260062028566279,-0.260062028566279
41.556,0.25649747961559144,-0.25649747961559144
41.557,0.23473956198041945,-0.23473956198041945
41.558,0.19359816529524365,-0.19359816529524365
41.559,0.13670191861477965,-0.13670191861477965
41.56,0.0730098815189757,-0.0730098815189757
41.561,0.015207330920802398,-0.015207330920802398
41.562,0.023617092694063535,0.023617092694063535
41.563,0.033937706273375445,0.033937706273375445
41.564,0.013027127928567861,0.013027127928567861
41.565,0.03372113289428025,-0.03372113289428025
41.566,0.0939436019120311,-0.0939436019120311
41.567,0.15165961792779592,-0.15165961792779592
41.568,0.19180262757751954,-0.19180262757751954
41.569,0.20449898295587166,-0.20449898295587166
41.57,0.18774094022850207,-0.18774094022850207
41.571,0.14763453274592242,-0.14763453274592242
41.572,0.09620575428496758,-0.09620575428496758
41.573,0.04754205602730799,-0.04754205602730799
41.574,0.013560637297855838,-0.013560637297855838
41.575,0.0007625062685611139,-0.0007625062685611139
41.576,0.008942104534841011,-0.008942104534841011
41.577,0.03212434130389463,-0.03212434130389463
41.578,0.0612438789115044,-0.0612438789115044
41.579,0.08752698290114924,-0.08752698290114924
41.58,0.1053660606240151,-0.1053660606240151
41.581,0.11373266612925859,-0.11373266612925859
41.582,0.11574796791984565,-0.11574796791984565
41.583,0.11670592370820176,-0.11670592370820176
41.584,0.12138219834785413,-0.12138219834785413
41.585,0.1316785716548241,-0.1316785716548241
41.586,0.1454861698657819,-0.1454861698657819
41.587,0.15717659632557313,-0.15717659632557313
41.588,0.15952815566777045,-0.15952815566777045
41.589,0.14638204103346064,-0.14638204103346064
41.59,0.11507673988600331,-0.11507673988600331
41.591,0.06780322114117832,-0.06780322114117832
41.592,0.011411474594523296,-0.011411474594523296
41.593,0.04426630244966834,0.04426630244966834
41.594,0.08901935880284095,0.08901935880284095
41.595,0.11494954599237062,0.11494954599237062
41.596,0.11842007266126697,0.11842007266126697
41.597,0.10071258754283541,0.10071258754283541
41.598,0.06728351851849368,0.06728351851849368
41.599,0.025953041108617292,0.025953041108617292
41.6,0.015340768187508624,-0.015340768187508624
41.601,0.05051907772751252,-0.05051907772751252
41.602,0.0765253829943282,-0.0765253829943282
41.603,0.09344113677601285,-0.09344113677601285
41.604,0.10366843918082314,-0.10366843918082314
41.605,0.11056244282110761,-0.11056244282110761
41.606,0.11700991980955266,-0.11700991980955266
41.607,0.12439606338285736,-0.12439606338285736
41.608,0.13222179576465587,-0.13222179576465587
41.609,0.1384044581816608,-0.1384044581816608
41.61,0.14009336751488266,-0.14009336751488266
41.611,0.13471136203035916,-0.13471136203035916
41.612,0.12091034863325811,-0.12091034863325811
41.613,0.09918644842630808,-0.09918644842630808
41.614,0.07200466676836059,-0.07200466676836059
41.615,0.043400529150599554,-0.043400529150599554
41.616,0.0181352234029859,-0.0181352234029859
41.617,0.0005728848833037592,-0.0005728848833037592
41.618,0.00647956960547158,0.00647956960547158
41.619,0.002686374653859458,0.002686374653859458
41.62,0.009430068325146035,-0.009430068325146035
41.621,0.024838329588842134,-0.024838329588842134
41.622,0.03714028311944484,-0.03714028311944484
41.623,0.040344720624405195,-0.040344720624405195
41.624,0.030873851016187115,-0.030873851016187115
41.625,0.009228267849019423,-0.009228267849019423
41.626,0.01929633031672018,0.01929633031672018
41.627,0.04528151602529884,0.04528151602529884
41.628,0.05733036755689924,0.05733036755689924
41.629,0.04529656222845091,0.04529656222845091
41.63,0.003771763456643651,0.003771763456643651
41.631,0.06524249823949335,-0.06524249823949335
41.632,0.15148224789468423,-0.15148224789468423
41.633,0.23797054517344585,-0.23797054517344585
41.634,0.3048654609221917,-0.3048654609221917
41.635,0.33474486399651326,-0.33474486399651326
41.636,0.31788385983830525,-0.31788385983830525
41.637,0.25589450698826166,-0.25589450698826166
41.638,0.1624196727544429,-0.1624196727544429
41.639,0.060355103917493214,-0.060355103917493214
41.64,0.02389390726245888,0.02389390726245888
41.641,0.06764754493809866,0.06764754493809866
41.642,0.058623864128722,0.058623864128722
41.643,0.0009804126374821642,-0.0009804126374821642
41.644,0.09436403856383435,-0.09436403856383435
41.645,0.19418266113857918,-0.19418266113857918
41.646,0.26977164382923835,-0.26977164382923835
41.647,0.2955158761656429,-0.2955158761656429
41.648,0.2579587644232664,-0.2579587644232664
41.649,0.15958673659746936,-0.15958673659746936
41.65,0.018212665917697546,-0.018212665917697546
41.651,0.13779514882362087,0.13779514882362087
41.652,0.27695364710068127,0.27695364710068127
41.653,0.37253413585847484,0.37253413585847484
41.654,0.40858292426885856,0.40858292426885856
41.655,0.38250076121477283,0.38250076121477283
41.656,0.3037522765224996,0.3037522765224996
41.657,0.1895219113982778,0.1895219113982778
41.658,0.059040196906053,0.059040196906053
41.659,0.07142209732731386,-0.07142209732731386
41.66,0.1913251413882524,-0.1913251413882524
41.661,0.2957876486895503,-0.2957876486895503
41.662,0.3831866086711756,-0.3831866086711756
41.663,0.4518219044795788,-0.4518219044795788
41.664,0.4973487134329905,-0.4973487134329905
41.665,0.5123142994091197,-0.5123142994091197
41.666,0.48823328915146047,-0.48823328915146047
41.667,0.4195367467481016,-0.4195367467481016
41.668,0.3078525282356408,-0.3078525282356408
41.669,0.16476030569530165,-0.16476030569530165
41.67,0.011556200192502919,-0.011556200192502919
41.671,0.12445537024358577,0.12445537024358577
41.672,0.21638601608959274,0.21638601608959274
41.673,0.24509095130572311,0.24509095130572311
41.674,0.205101302376534,0.205101302376534
41.675,0.10714524671366843,0.10714524671366843
41.676,0.023774156148293035,-0.023774156148293035
41.677,0.15440471065502848,-0.15440471065502848
41.678,0.2517284928215081,-0.2517284928215081
41.679,0.2914553863615561,-0.2914553863615561
41.68,0.264054627242029,-0.264054627242029
41.681,0.17661634142844973,-0.17661634142844973
41.682,0.05013453177639382,-0.05013453177639382
41.683,0.08679319664894769,0.08679319664894769
41.684,0.20580632599377813,0.20580632599377813
41.685,0.28576175213407895,0.28576175213407895
41.686,0.31687950594020275,0.31687950594020275
41.687,0.3011194974945257,0.3011194974945257
41.688,0.24913566777252671,0.24913566777252671
41.689,0.1752345921961016,0.1752345921961016
41.69,0.092290103710011,0.092290103710011
41.691,0.008383063829719095,0.008383063829719095
41.692,0.07385380306230005,-0.07385380306230005
41.693,0.15529389077776523,-0.15529389077776523
41.694,0.2368702243587062,-0.2368702243587062
41.695,0.3162485431080849,-0.3162485431080849
41.696,0.38614467793573437,-0.38614467793573437
41.697,0.4351353004418803,-0.4351353004418803
41.698,0.45081946783732074,-0.45081946783732074
41.699,0.4242493224157231,-0.4242493224157231
41.7,0.35400489694674875,-0.35400489694674875
41.701,0.24833613909096108,-0.24833613909096108
41.702,0.12441698808472768,-0.12441698808472768
41.703,0.004730051842645522,-0.004730051842645522
41.704,0.08841702455554423,0.08841702455554423
41.705,0.13859294475344397,0.13859294475344397
41.706,0.13941610624986622,0.13941610624986622
41.707,0.09593918071664609,0.09593918071664609
41.708,0.02287630491238879,0.02287630491238879
41.709,0.05970418310326575,-0.05970418310326575
41.71,0.13183974209070093,-0.13183974209070093
41.711,0.17862101342502446,-0.17862101342502446
41.712,0.1932258786439195,-0.1932258786439195
41.713,0.17733805244658563,-0.17733805244658563
41.714,0.13912594340500806,-0.13912594340500806
41.715,0.08971287413390949,-0.08971287413390949
41.716,0.039458770606306426,-0.039458770606306426
41.717,0.004709644093625398,0.004709644093625398
41.718,0.0401773001081811,0.0401773001081811
41.719,0.06769273120160513,0.06769273120160513
41.72,0.08922088670913819,0.08922088670913819
41.721,0.105613935947382,0.105613935947382
41.722,0.11511432466892346,0.11511432466892346
41.723,0.11333168337064459,0.11333168337064459
41.724,0.09474249686971303,0.09474249686971303
41.725,0.05516704333785838,0.05516704333785838
41.726,0.005709395791769323,-0.005709395791769323
41.727,0.08275607123374529,-0.08275607123374529
41.728,0.1654490384793078,-0.1654490384793078
41.729,0.23971635043828243,-0.23971635043828243
41.73,0.29114643375991545,-0.29114643375991545
41.731,0.3086740057829982,-0.3086740057829982
41.732,0.28767738080767824,-0.28767738080767824
41.733,0.2315652388127296,-0.2315652388127296
41.734,0.15134803390939844,-0.15134803390939844
41.735,0.06324893631377204,-0.06324893631377204
41.736,0.015052885666098081,0.015052885666098081
41.737,0.0685864057330754,0.0685864057330754
41.738,0.08859599168914922,0.08859599168914922
41.739,0.07450376059457153,0.07450376059457153
41.74,0.0338393978703424,0.0338393978703424
41.741,0.019834524088208405,-0.019834524088208405
41.742,0.07047315345839233,-0.07047315345839233
41.743,0.10368233954970407,-0.10368233954970407
41.744,0.11039572786051277,-0.11039572786051277
41.745,0.08916630265434111,-0.08916630265434111
41.746,0.04648064505182581,-0.04648064505182581
41.747,0.005004565031629715,0.005004565031629715
41.748,0.04987357317810037,0.04987357317810037
41.749,0.07413918038368417,0.07413918038368417
41.75,0.06910224233477713,0.06910224233477713
41.751,0.03382596145802119,0.03382596145802119
41.752,0.024495068461367397,-0.024495068461367397
41.753,0.09243464233186338,-0.09243464233186338
41.754,0.15403021420086815,-0.15403021420086815
41.755,0.1952600959451214,-0.1952600959451214
41.756,0.20801283952382688,-0.20801283952382688
41.757,0.1923517995227083,-0.1923517995227083
41.758,0.1563411594531191,-0.1563411594531191
41.759,0.11341893973786055,-0.11341893973786055
41.76,0.07807059782935577,-0.07807059782935577
41.761,0.06113188197154196,-0.06113188197154196
41.762,0.06623125538582608,-0.06623125538582608
41.763,0.08858256476896476,-0.08858256476896476
41.764,0.1166223516834628,-0.1166223516834628
41.765,0.1360624132066358,-0.1360624132066358
41.766,0.1350919014003129,-0.1350919014003129
41.767,0.10900178351928191,-0.10900178351928191
41.768,0.06259872750380124,-0.06259872750380124
41.769,0.009429700432031063,-0.009429700432031063
41.77,0.03213382415835131,0.03213382415835131
41.771,0.044828686025673026,0.044828686025673026
41.772,0.018568502919619423,0.018568502919619423
41.773,0.04539794656139606,-0.04539794656139606
41.774,0.13376452432323227,-0.13376452432323227
41.775,0.2243429277564487,-0.2243429277564487
41.776,0.29231903084410704,-0.29231903084410704
41.777,0.31770658264451423,-0.31770658264451423
41.778,0.29162831093061703,-0.29162831093061703
41.779,0.21934006817397056,-0.21934006817397056
41.78,0.11890682864555857,-0.11890682864555857
41.781,0.015832704878519954,-0.015832704878519954
41.782,0.06471414000035014,0.06471414000035014
41.783,0.10560873301255325,0.10560873301255325
41.784,0.10290477705617795,0.10290477705617795
41.785,0.06669615151726571,0.06669615151726571
41.786,0.01738690211967686,0.01738690211967686
41.787,0.021432815683296025,-0.021432815683296025
41.788,0.03116825720205696,-0.03116825720205696
41.789,0.004747432707685961,-0.004747432707685961
41.79,0.05069241708420358,0.05069241708420358
41.791,0.11588731611635561,0.11588731611635561
41.792,0.16564970848797733,0.16564970848797733
41.793,0.17717602318269932,0.17717602318269932
41.794,0.1377415130234112,0.1377415130234112
41.795,0.04926603945812036,0.04926603945812036
41.796,0.07173257492771057,-0.07173257492771057
41.797,0.1987657791366506,-0.1987657791366506
41.798,0.3030629844284666,-0.3030629844284666
41.799,0.36183916377501923,-0.36183916377501923
41.8,0.36453201844646155,-0.36453201844646155
41.801,0.31513424777612853,-0.31513424777612853
41.802,0.23007584281116022,-0.23007584281116022
41.803,0.13257223841733812,-0.13257223841733812
41.804,0.045450541450115955,-0.045450541450115955
41.805,0.015159649612470405,0.015159649612470405
41.806,0.04333077625032011,0.04333077625032011
41.807,0.04317640709866066,0.04317640709866066
41.808,0.025474778710854684,0.025474778710854684
41.809,0.0026007061247890206,0.0026007061247890206
41.81,0.01624067803469542,-0.01624067803469542
41.811,0.027759551269845972,-0.027759551269845972
41.812,0.03447438859535068,-0.03447438859535068
41.813,0.042069963946241185,-0.042069963946241185
41.814,0.0555156279982274,-0.0555156279982274
41.815,0.07568419106726465,-0.07568419106726465
41.816,0.09796857696056438,-0.09796857696056438
41.817,0.11356505671242667,-0.11356505671242667
41.818,0.11299893361400815,-0.11299893361400815
41.819,0.09052897250714576,-0.09052897250714576
41.82,0.04764098652054927,-0.04764098652054927
41.821,0.005901439463391389,0.005901439463391389
41.822,0.0541237746527099,0.0541237746527099
41.823,0.0795497836520811,0.0795497836520811
41.824,0.06905533136480257,0.06905533136480257
41.825,0.018852935727669662,0.018852935727669662
41.826,0.06321431425496193,-0.06321431425496193
41.827,0.159040587696069,-0.159040587696069
41.828,0.2450364653697218,-0.2450364653697218
41.829,0.29889822932579224,-0.29889822932579224
41.83,0.3062348419446964,-0.3062348419446964
41.831,0.26491994653179674,-0.26491994653179674
41.832,0.18575321879135742,-0.18575321879135742
41.833,0.08920875380927129,-0.08920875380927129
41.834,0.0006854504020468166,0.0006854504020468166
41.835,0.06337901301642335,0.06337901301642335
41.836,0.08752402258331471,0.08752402258331471
41.837,0.07364607812226276,0.07364607812226276
41.838,0.03304418469828341,0.03304418469828341
41.839,0.016563694491034564,-0.016563694491034564
41.84,0.05710828149265712,-0.05710828149265712
41.841,0.07592574588308054,-0.07592574588308054
41.842,0.06937776084538505,-0.06937776084538505
41.843,0.04329578806361267,-0.04329578806361267
41.844,0.01030049040190728,-0.01030049040190728
41.845,0.014933983563786057,0.014933983563786057
41.846,0.020787178201284506,0.020787178201284506
41.847,0.002461412257464435,0.002461412257464435
41.848,0.03675645043048792,-0.03675645043048792
41.849,0.08701224876398483,-0.08701224876398483
41.85,0.13551446471288164,-0.13551446471288164
41.851,0.17094457984882794,-0.17094457984882794
41.852,0.1871264635961014,-0.1871264635961014
41.853,0.18475653727403696,-0.18475653727403696
41.854,0.17069670854822339,-0.17069670854822339
41.855,0.15515938805281027,-0.15515938805281027
41.856,0.14779295566863193,-0.14779295566863193
41.857,0.15399754560647827,-0.15399754560647827
41.858,0.1726842231272162,-0.1726842231272162
41.859,0.19619888185657097,-0.19619888185657097
41.86,0.21244073713682732,-0.21244073713682732
41.861,0.2085365245247669,-0.2085365245247669
41.862,0.1749821707380086,-0.1749821707380086
41.863,0.10904826306980897,-0.10904826306980897
41.864,0.016471852315634083,-0.016471852315634083
41.865,0.08906312797033711,0.08906312797033711
41.866,0.1885678658066796,0.1885678658066796
41.867,0.2618877469141079,0.2618877469141079
41.868,0.2923528331556844,0.2923528331556844
41.869,0.2708390412600832,0.2708390412600832
41.87,0.19827683156424136,0.19827683156424136
41.871,0.08598963543560956,0.08598963543560956
41.872,0.04628145714502285,-0.04628145714502285
41.873,0.17430282483854942,-0.17430282483854942
41.874,0.2744170151122979,-0.2744170151122979
41.875,0.3286605714666564,-0.3286605714666564
41.876,0.3287705140811489,-0.3287705140811489
41.877,0.27810841202650916,-0.27810841202650916
41.878,0.1909601519728088,-0.1909601519728088
41.879,0.08926503976234179,-0.08926503976234179
41.88,0.0025372783473862626,0.0025372783473862626
41.881,0.06333813632302276,0.06333813632302276
41.882,0.08042094086293061,0.08042094086293061
41.883,0.052427445713620235,0.052427445713620235
41.884,0.010599373673358725,-0.010599373673358725
41.885,0.09016281387306557,-0.09016281387306557
41.886,0.16448924012113275,-0.16448924012113275
41.887,0.21451898482488763,-0.21451898482488763
41.888,0.22902479775037676,-0.22902479775037676
41.889,0.2073892405963832,-0.2073892405963832
41.89,0.15923960842705553,-0.15923960842705553
41.891,0.10106987791906263,-0.10106987791906263
41.892,0.050893267380559326,-0.050893267380559326
41.893,0.022577191018216425,-0.022577191018216425
41.894,0.02161247956740575,-0.02161247956740575
41.895,0.043616847408551096,-0.043616847408551096
41.896,0.07600448205791577,-0.07600448205791577
41.897,0.10224561457225523,-0.10224561457225523
41.898,0.10732000199942093,-0.10732000199942093
41.899,0.0826064731409929,-0.0826064731409929
41.9,0.028666270865742693,-0.028666270865742693
41.901,0.04490379283884938,0.04490379283884938
41.902,0.12239652771432885,0.12239652771432885
41.903,0.18664515995291198,0.18664515995291198
41.904,0.22382590827459947,0.22382590827459947
41.905,0.22686816103910612,0.22686816103910612
41.906,0.19648537655608367,0.19648537655608367
41.907,0.13971629011798825,0.13971629011798825
41.908,0.06674247674568856,0.06674247674568856
41.909,0.012690179497162446,-0.012690179497162446
41.91,0.09186900316086899,-0.09186900316086899
41.911,0.16782384483080115,-0.16782384483080115
41.912,0.2400457598098632,-0.2400457598098632
41.913,0.30794306485861733,-0.30794306485861733
41.914,0.3682993928537093,-0.3682993928537093
41.915,0.4140301345760724,-0.4140301345760724
41.916,0.43503842074389476,-0.43503842074389476
41.917,0.42112753886959553,-0.42112753886959553
41.918,0.3660487883418164,-0.3660487883418164
41.919,0.27119017703023995,-0.27119017703023995
41.92,0.14737698029037094,-0.14737698029037094
41.921,0.013801784096852954,-0.013801784096852954
41.922,0.1059432044921862,0.1059432044921862
41.923,0.18972460205904662,0.18972460205904662
41.924,0.2228677220522446,0.2228677220522446
41.925,0.20237696357398383,0.20237696357398383
41.926,0.13793914393973394,0.13793914393973394
41.927,0.04926522442851855,0.04926522442851855
41.928,0.03949919406796909,-0.03949919406796909
41.929,0.1066051313018932,-0.1066051313018932
41.93,0.13866956377379158,-0.13866956377379158
41.931,0.13395471780964852,-0.13395471780964852
41.932,0.1020039387517575,-0.1020039387517575
41.933,0.05985981326382617,-0.05985981326382617
41.934,0.0261770051105773,-0.0261770051105773
41.935,0.015175837805920467,-0.015175837805920467
41.936,0.03236139555071604,-0.03236139555071604
41.937,0.07328111579116026,-0.07328111579116026
41.938,0.1255487284848903,-0.1255487284848903
41.939,0.17328740880352356,-0.17328740880352356
41.94,0.20240139958398562,-0.20240139958398562
41.941,0.20490805071384766,-0.20490805071384766
41.942,0.18098348937065545,-0.18098348937065545
41.943,0.13822150098233288,-0.13822150098233288
41.944,0.0885662629540741,-0.0885662629540741
41.945,0.04412191796079523,-0.04412191796079523
41.946,0.013326172113819812,-0.013326172113819812
41.947,0.001265819619314268,0.001265819619314268
41.948,0.002987859637587409,0.002987859637587409
41.949,0.0009397246657215641,-0.0009397246657215641
41.95,0.0025551394542993044,-0.0025551394542993044
41.951,0.0037339358890191576,0.0037339358890191576
41.952,0.019128126497469866,0.019128126497469866
41.953,0.040084253945765536,0.040084253945765536
41.954,0.05959001082135118,0.05959001082135118
41.955,0.0694814507678112,0.0694814507678112
41.956,0.06294527817418438,0.06294527817418438
41.957,0.03640702859505485,0.03640702859505485
41.958,0.009665259877917998,-0.009665259877917998
41.959,0.07107209747841747,-0.07107209747841747
41.96,0.14096856431558136,-0.14096856431558136
41.961,0.21121801092437043,-0.21121801092437043
41.962,0.27357505802680415,-0.27357505802680415
41.963,0.32049560828739465,-0.32049560828739465
41.964,0.34564027942951703,-0.34564027942951703
41.965,0.34430247295476446,-0.34430247295476446
41.966,0.3139760360833761,-0.3139760360833761
41.967,0.2550955234859653,-0.2550955234859653
41.968,0.17173383721597713,-0.17173383721597713
41.969,0.07186485065731762,-0.07186485065731762
41.97,0.03319605811697768,0.03319605811697768
41.971,0.130341190910223,0.130341190910223
41.972,0.20701191515574924,0.20701191515574924
41.973,0.25376909801047054,0.25376909801047054
41.974,0.26632673489508885,0.26632673489508885
41.975,0.2463544838589704,0.2463544838589704
41.976,0.20070714850557314,0.20070714850557314
41.977,0.139261996305726,0.139261996305726
41.978,0.07204734625466358,0.07204734625466358
41.979,0.006628823763034752,0.006628823763034752
41.98,0.053344299404754825,-0.053344299404754825
41.981,0.10794021141585541,-0.10794021141585541
41.982,0.15921902163901624,-0.15921902163901624
41.983,0.20870510601158454,-0.20870510601158454
41.984,0.2551265350707361,-0.2551265350707361
41.985,0.2934330442580978,-0.2934330442580978
41.986,0.31564406852325,-0.31564406852325
41.987,0.3133730180697515,-0.3133730180697515
41.988,0.28118374067745167,-0.28118374067745167
41.989,0.21952844786290693,-0.21952844786290693
41.99,0.13606625980677156,-0.13606625980677156
41.991,0.04467427667242485,-0.04467427667242485
41.992,0.03773166768675407,0.03773166768675407
41.993,0.09564128386856785,0.09564128386856785
41.994,0.11922613714584651,0.11922613714584651
41.995,0.10700976539723306,0.10700976539723306
41.996,0.06601097772518205,0.06601097772518205
41.997,0.009304671469499759,0.009304671469499759
41.998,0.04815430349514693,-0.04815430349514693
41.999,0.09399437111921105,-0.09399437111921105
42.0,0.1216495984679532,-0.1216495984679532
42.001,0.1312972454105843,-0.1312972454105843
42.002,0.12833623357694723,-0.12833623357694723
42.003,0.1201611287646035,-0.1201611287646035
42.004,0.11261876500264678,-0.11261876500264678
42.005,0.10762240622643215,-0.10762240622643215
42.006,0.10289878580230816,-0.10289878580230816
42.007,0.09394238244499509,-0.09394238244499509
42.008,0.07729826544266971,-0.07729826544266971
42.009,0.05367209195449796,-0.05367209195449796
42.01,0.029340398346323293,-0.029340398346323293
42.011,0.014948476503224284,-0.014948476503224284
42.012,0.02182737794600864,-0.02182737794600864
42.013,0.05704394835284898,-0.05704394835284898
42.014,0.11908684551035553,-0.11908684551035553
42.015,0.19608176105972486,-0.19608176105972486
42.016,0.26766647588421455,-0.26766647588421455
42.017,0.3103741254074257,-0.3103741254074257
42.018,0.3050200050372187,-0.3050200050372187
42.019,0.24367081748475306,-0.24367081748475306
42.02,0.13367378504934346,-0.13367378504934346
42.021,0.0029634499955797367,0.0029634499955797367
42.022,0.13505435915205033,0.13505435915205033
42.023,0.23110501492102498,0.23110501492102498
42.024,0.2688272636626643,0.2688272636626643
42.025,0.24215525763547108,0.24215525763547108
42.026,0.1633102895483991,0.1633102895483991
42.027,0.059028214069594354,0.059028214069594354
42.028,0.03799090601820887,-0.03799090601820887
42.029,0.09969371805235538,-0.09969371805235538
42.03,0.1118454168165558,-0.1118454168165558
42.031,0.0786559764497462,-0.0786559764497462
42.032,0.02122155179320606,-0.02122155179320606
42.033,0.02979538982486396,0.02979538982486396
42.034,0.044862774452616216,0.044862774452616216
42.035,0.0060857638377582735,0.0060857638377582735
42.036,0.08602762762782301,-0.08602762762782301
42.037,0.21186974500383615,-0.21186974500383615
42.038,0.3384075737713762,-0.3384075737713762
42.039,0.42939081638954024,-0.42939081638954024
42.04,0.45673413777317906,-0.45673413777317906
42.041,0.40932984566557995,-0.40932984566557995
42.042,0.2964303377270895,-0.2964303377270895
42.043,0.14458139134892256,-0.14458139134892256
42.044,0.010750227130239987,0.010750227130239987
42.045,0.13597250964063368,0.13597250964063368
42.046,0.2089800315027892,0.2089800315027892
42.047,0.2244950415295499,0.2244950415295499
42.048,0.1936120286520555,0.1936120286520555
42.049,0.13805702218070603,0.13805702218070603
42.05,0.08146473951308741,0.08146473951308741
42.051,0.04090194900485322,0.04090194900485322
42.052,0.02162083793657965,0.02162083793657965
42.053,0.0167295666541869,0.0167295666541869
42.054,0.011608966017011335,0.011608966017011335
42.055,0.008833494620942073,-0.008833494620942073
42.056,0.05297274700023358,-0.05297274700023358
42.057,0.11813800878596503,-0.11813800878596503
42.058,0.19081133348099033,-0.19081133348099033
42.059,0.25127778442506865,-0.25127778442506865
42.06,0.2809584635772211,-0.2809584635772211
42.061,0.2696343653459726,-0.2696343653459726
42.062,0.21979107475871862,-0.21979107475871862
42.063,0.14637075303265434,-0.14637075303265434
42.064,0.071917792832352,-0.071917792832352
42.065,0.018821353545177777,-0.018821353545177777
42.066,0.0014588141052840342,-0.0014588141052840342
42.067,0.021121019719977374,-0.021121019719977374
42.068,0.06561881985660656,-0.06561881985660656
42.069,0.11378303883665342,-0.11378303883665342
42.07,0.14328765281030797,-0.14328765281030797
42.071,0.13899664295921987,-0.13899664295921987
42.072,0.09880890286151878,-0.09880890286151878
42.073,0.03484154674465467,-0.03484154674465467
42.074,0.030555218252077188,0.030555218252077188
42.075,0.07260864561055946,0.07260864561055946
42.076,0.07303202058651581,0.07303202058651581
42.077,0.02688215323966081,0.02688215323966081
42.078,0.05508845203785018,-0.05508845203785018
42.079,0.14947195504193267,-0.14947195504193267
42.08,0.22764065577268677,-0.22764065577268677
42.081,0.2650444192477128,-0.2650444192477128
42.082,0.24919075859116735,-0.24919075859116735
42.083,0.18359549624998073,-0.18359549624998073
42.084,0.08640167174841007,-0.08640167174841007
42.085,0.015785284817541045,0.015785284817541045
42.086,0.09665984982374409,0.09665984982374409
42.087,0.13853509962248278,0.13853509962248278
42.088,0.1373943854648969,0.1373943854648969
42.089,0.10305076749939857,0.10305076749939857
42.09,0.05453214907849402,0.05453214907849402
42.091,0.012477373253974688,0.012477373253974688
42.092,0.00866441684223973,-0.00866441684223973
42.093,0.005834684013183655,-0.005834684013183655
42.094,0.011847198169480544,0.011847198169480544
42.095,0.026917865536546515,0.026917865536546515
42.096,0.020579146507511137,0.020579146507511137
42.097,0.019681484554004314,-0.019681484554004314
42.098,0.0946211735976108,-0.0946211735976108
42.099,0.19190775902194035,-0.19190775902194035
42.1,0.2894423637809411,-0.2894423637809411
42.101,0.36222940892619204,-0.36222940892619204
42.102,0.3904588609260232,-0.3904588609260232
42.103,0.3660600016533069,-0.3660600016533069
42.104,0.295524386520039,-0.295524386520039
42.105,0.1980727304836799,-0.1980727304836799
42.106,0.09980283233172793,-0.09980283233172793
42.107,0.025765819793335032,-0.025765819793335032
42.108,0.007457765076194889,0.007457765076194889
42.109,0.0036430402106628623,-0.0036430402106628623
42.11,0.04906130932614994,-0.04906130932614994
42.111,0.10891526571598242,-0.10891526571598242
42.112,0.15983177420958572,-0.15983177420958572
42.113,0.1819435097497396,-0.1819435097497396
42.114,0.1643365754446069,-0.1643365754446069
42.115,0.107448663753275,-0.107448663753275
42.116,0.022007846507209328,-0.022007846507209328
42.117,0.07477850006928777,0.07477850006928777
42.118,0.1643019181644283,0.1643019181644283
42.119,0.2312139444354413,0.2312139444354413
42.12,0.2663640595374832,0.2663640595374832
42.121,0.2674725106063891,0.2674725106063891
42.122,0.23783475077163274,0.23783475077163274
42.123,0.18396157086492027,0.18396157086492027
42.124,0.11324405227599366,0.11324405227599366
42.125,0.03247980201761402,0.03247980201761402
42.126,0.052442691174858,-0.052442691174858
42.127,0.1359849822286613,-0.1359849822286613
42.128,0.21218905251165532,-0.21218905251165532
42.129,0.2744015315563415,-0.2744015315563415
42.13,0.315902631954016,-0.315902631954016
42.131,0.33136707584363145,-0.33136707584363145
42.132,0.31862693250276264,-0.31862693250276264
42.133,0.27997436757158845,-0.27997436757158845
42.134,0.22233819540894295,-0.22233819540894295
42.135,0.15605837218122476,-0.15605837218122476
42.136,0.092513477909132,-0.092513477909132
42.137,0.04131644850246963,-0.04131644850246963
42.138,0.00799836254352737,-0.00799836254352737
42.139,0.0070371203949406436,0.0070371203949406436
42.14,0.007939085358385611,0.007939085358385611
42.141,0.0014339560354668102,0.0014339560354668102
42.142,0.005837753555005487,-0.005837753555005487
42.143,0.009724948859644367,-0.009724948859644367
42.144,0.009871509098411169,-0.009871509098411169
42.145,0.00949590876295836,-0.00949590876295836
42.146,0.01377429684907161,-0.01377429684907161
42.147,0.027455697994921424,-0.027455697994921424
42.148,0.05259957155230299,-0.05259957155230299
42.149,0.08726157610684904,-0.08726157610684904
42.15,0.12559616838258192,-0.12559616838258192
42.151,0.15933321552155388,-0.15933321552155388
42.152,0.18010960598654424,-0.18010960598654424
42.153,0.18186466973461235,-0.18186466973461235
42.154,0.16252682683476594,-0.16252682683476594
42.155,0.12450471283328801,-0.12450471283328801
42.156,0.07392924183733796,-0.07392924183733796
42.157,0.01900707367802834,-0.01900707367802834
42.158,0.031907724305637375,0.031907724305637375
42.159,0.0719137777007568,0.0719137777007568
42.16,0.09644187590443143,0.09644187590443143
42.161,0.10335445620158312,0.10335445620158312
42.162,0.09251118804046254,0.09251118804046254
42.163,0.06520275419053623,0.06520275419053623
42.164,0.0238086862029232,0.0238086862029232
42.165,0.02817847518313099,-0.02817847518313099
42.166,0.08589588926577696,-0.08589588926577696
42.167,0.1429598662668562,-0.1429598662668562
42.168,0.19179896341765146,-0.19179896341765146
42.169,0.2246864997166037,-0.2246864997166037
42.17,0.23538593832491594,-0.23538593832491594
42.171,0.22100007372317476,-0.22100007372317476
42.172,0.1834097322962175,-0.1834097322962175
42.173,0.12969864798695507,-0.12969864798695507
42.174,0.07120769728529208,-0.07120769728529208
42.175,0.02127287783834031,-0.02127287783834031
42.176,0.00786008092103585,0.00786008092103585
42.177,0.008140141182902072,0.008140141182902072
42.178,0.022039479329003075,-0.022039479329003075
42.179,0.07711520076825584,-0.07711520076825584
42.18,0.14540017671762773,-0.14540017671762773
42.181,0.21165567665309581,-0.21165567665309581
42.182,0.26051807078891576,-0.26051807078891576
42.183,0.27990022351291144,-0.27990022351291144
42.184,0.263536193312638,-0.263536193312638
42.185,0.2121180782376645,-0.2121180782376645
42.186,0.13287962579988244,-0.13287962579988244
42.187,0.03787852348457155,-0.03787852348457155
42.188,0.058497897726154546,0.058497897726154546
42.189,0.14219031276183713,0.14219031276183713
42.19,0.20176095033535812,0.20176095033535812
42.191,0.2299894692317983,0.2299894692317983
42.192,0.22465080614241817,0.22465080614241817
42.193,0.18851416807628896,0.18851416807628896
42.194,0.12867806659923064,0.12867806659923064
42.195,0.05536632382226747,0.05536632382226747
42.196,0.019696611470429448,-0.019696611470429448
42.197,0.08518686300622957,-0.08518686300622957
42.198,0.1321372380853595,-0.1321372380853595
42.199,0.15562288675512526,-0.15562288675512526
42.2,0.15578244367908634,-0.15578244367908634
42.201,0.13781596937322838,-0.13781596937322838
42.202,0.11078041791868465,-0.11078041791868465
42.203,0.0853092362863822,-0.0853092362863822
42.204,0.07073398780499363,-0.07073398780499363
42.205,0.07236001339882281,-0.07236001339882281
42.206,0.08972492906483132,-0.08972492906483132
42.207,0.11648037191648386,-0.11648037191648386
42.208,0.14210427051150565,-0.14210427051150565
42.209,0.15508737087241709,-0.15508737087241709
42.21,0.14672183864886257,-0.14672183864886257
42.211,0.11433512173532179,-0.11433512173532179
42.212,0.06288170795967074,-0.06288170795967074
42.213,0.004240488555967148,-0.004240488555967148
42.214,0.04574792925940052,0.04574792925940052
42.215,0.07174129979914468,0.07174129979914468
42.216,0.06356003948741451,0.06356003948741451
42.217,0.019618022275959213,0.019618022275959213
42.218,0.05200738784289005,-0.05200738784289005
42.219,0.13530747346468752,-0.13530747346468752
42.22,0.21046455918557683,-0.21046455918557683
42.221,0.25920272918146847,-0.25920272918146847
42.222,0.26980270157568054,-0.26980270157568054
42.223,0.2402980072295583,-0.2402980072295583
42.224,0.17891417040210633,-0.17891417040210633
42.225,0.10164886437789389,-0.10164886437789389
42.226,0.027752268844794314,-0.027752268844794314
42.227,0.025520574991892753,0.025520574991892753
42.228,0.04733973281705128,0.04733973281705128
42.229,0.03567624062438357,0.03567624062438357
42.23,0.0029335594176190805,-0.0029335594176190805
42.231,0.055974048714994784,-0.055974048714994784
42.232,0.10893485193649122,-0.10893485193649122
42.233,0.14939371970823523,-0.14939371970823523
42.234,0.16998395930201526,-0.16998395930201526
42.235,0.16949731223140285,-0.16949731223140285
42.236,0.15203755252490503,-0.15203755252490503
42.237,0.12476940674635018,-0.12476940674635018
42.238,0.09519402563322166,-0.09519402563322166
42.239,0.06891548955340254,-0.06891548955340254
42.24,0.04856184840134259,-0.04856184840134259
42.241,0.03402366266830148,-0.03402366266830148
42.242,0.02366873713381601,-0.02366873713381601
42.243,0.015867165515039527,-0.015867165515039527
42.244,0.010121534022097145,-0.010121534022097145
42.245,0.007336708542936443,-0.007336708542936443
42.246,0.009171711401153249,-0.009171711401153249
42.247,0.016824460937369445,-0.016824460937369445
42.248,0.029847743522902648,-0.029847743522902648
42.249,0.04558853851060185,-0.04558853851060185
42.25,0.05959020088228051,-0.05959020088228051
42.251,0.06690053292980047,-0.06690053292980047
42.252,0.06384496868538869,-0.06384496868538869
42.253,0.049603250368342455,-0.049603250368342455
42.254,0.026957538955321603,-0.026957538955321603
42.255,0.0018523756877328879,-0.0018523756877328879
42.256,0.018176327037225493,0.018176327037225493
42.257,0.02623725067416438,0.02623725067416438
42.258,0.0182667490788313,0.0182667490788313
42.259,0.005562266174875763,-0.005562266174875763
42.26,0.04068087662494513,-0.04068087662494513
42.261,0.079281727274362,-0.079281727274362
42.262,0.11243551397840512,-0.11243551397840512
42.263,0.1325109818872704,-0.1325109818872704
42.264,0.13517100763857526,-0.13517100763857526
42.265,0.12038517296076101,-0.12038517296076101
42.266,0.0922372633246844,-0.0922372633246844
42.267,0.05768910562329577,-0.05768910562329577
42.268,0.024756963163117818,-0.024756963163117818
42.269,0.000670767847416931,-0.000670767847416931
42.27,0.009500920167752946,0.009500920167752946
42.271,0.0035118875890796097,0.0035118875890796097
42.272,0.018085584161725232,-0.018085584161725232
42.273,0.05241063165149451,-0.05241063165149451
42.274,0.0948637830865654,-0.0948637830865654
42.275,0.13965575763368832,-0.13965575763368832
42.276,0.18021446348375314,-0.18021446348375314
42.277,0.20960920939243533,-0.20960920939243533
42.278,0.22121391203607366,-0.22121391203607366
42.279,0.209763459339792,-0.209763459339792
42.28,0.17275320873507372,-0.17275320873507372
42.281,0.11187022942951896,-0.11187022942951896
42.282,0.03394260324114895,-0.03394260324114895
42.283,0.049142235510611476,0.049142235510611476
42.284,0.12191308894831954,0.12191308894831954
42.285,0.1681666942134803,0.1681666942134803
42.286,0.17470870831508223,0.17470870831508223
42.287,0.1350951357018939,0.1350951357018939
42.288,0.052302735553390045,0.052302735553390045
42.289,0.0606110591935376,-0.0606110591935376
42.29,0.18235192176879433,-0.18235192176879433
42.291,0.28757294100600284,-0.28757294100600284
42.292,0.3525515795622759,-0.3525515795622759
42.293,0.3610045686840262,-0.3610045686840262
42.294,0.30852383297836194,-0.30852383297836194
42.295,0.20437207938505209,-0.20437207938505209
42.296,0.07000240423057746,-0.07000240423057746
42.297,0.0654967104596631,0.0654967104596631
42.298,0.17200810285959722,0.17200810285959722
42.299,0.225445327067044,0.225445327067044
42.3,0.21350150468382312,0.21350150468382312
42.301,0.13862620602442455,0.13862620602442455
42.302,0.01746204586990152,0.01746204586990152
42.303,0.12312619096549471,-0.12312619096549471
42.304,0.252428740369131,-0.252428740369131
42.305,0.3430691635869909,-0.3430691635869909
42.306,0.3771974365968809,-0.3771974365968809
42.307,0.35019649073785164,-0.35019649073785164
42.308,0.27106956892673273,-0.27106956892673273
42.309,0.1595444164757185,-0.1595444164757185
42.31,0.04076524683734717,-0.04076524683734717
42.311,0.060975133754779254,0.060975133754779254
42.312,0.12782964965077204,0.12782964965077204
42.313,0.15193989356226179,0.15193989356226179
42.314,0.13615987472147673,0.13615987472147673
42.315,0.09198159547013618,0.09198159547013618
42.316,0.035431405997746745,0.035431405997746745
42.317,0.017789775383035722,-0.017789775383035722
42.318,0.056519664622059373,-0.056519664622059373
42.319,0.07656699086474417,-0.07656699086474417
42.32,0.08080680834708687,-0.08080680834708687
42.321,0.07709570863867066,-0.07709570863867066
42.322,0.0748026469280918,-0.0748026469280918
42.323,0.08113078870382984,-0.08113078870382984
42.324,0.09842021456179428,-0.09842021456179428
42.325,0.12327339960455197,-0.12327339960455197
42.326,0.14774605076969805,-0.14774605076969805
