Czas,AbsSum,Sum
145.51600000000002,0.013823238030585605,0.013823238030585605
145.517,0.023804461994528903,-0.023804461994528903
145.518,0.0573741430375827,-0.0573741430375827
145.519,0.08490832531758064,-0.08490832531758064
145.52,0.1092203251865157,-0.1092203251865157
145.52100000000002,0.13584185407650073,-0.13584185407650073
145.52200000000002,0.16974099783401075,-0.16974099783401075
145.523,0.21210884641702588,-0.21210884641702588
145.524,0.2584884336095111,-0.2584884336095111
145.525,0.29906027987240036,-0.29906027987240036
145.526,0.32114404562783516,-0.32114404562783516
145.52700000000002,0.31318565547903277,-0.31318565547903277
145.52800000000002,0.2689445999649873,-0.2689445999649873
145.529,0.19046659908914532,-0.19046659908914532
145.53,0.08876805923512143,-0.08876805923512143
145.531,0.018140617989007124,0.018140617989007124
145.532,0.10943443413822673,0.10943443413822673
145.53300000000002,0.16670344541354476,0.16670344541354476
145.53400000000002,0.1787426722889749,0.1787426722889749
145.535,0.14453174397938917,0.14453174397938917
145.536,0.07356387282136567,0.07356387282136567
145.537,0.016548366922571778,-0.016548366922571778
145.538,0.10449662663488868,-0.10449662663488868
145.53900000000002,0.17049856077644254,-0.17049856077644254
145.54000000000002,0.20092403573439443,-0.20092403573439443
145.541,0.1911685925706107,-0.1911685925706107
145.542,0.14615701799741865,-0.14615701799741865
145.543,0.0785261524802372,-0.0785261524802372
145.544,0.005130440095482025,-0.005130440095482025
145.54500000000002,0.05712157967415932,0.05712157967415932
145.54600000000002,0.09503149460107418,0.09503149460107418
145.547,0.10163160766238888,0.10163160766238888
145.548,0.07702815815919406,0.07702815815919406
145.549,0.02759522794289415,0.02759522794289415
145.55,0.03606812693638706,-0.03606812693638706
145.55100000000002,0.10178356388110132,-0.10178356388110132
145.55200000000002,0.15837607818742672,-0.15837607818742672
145.553,0.19765656994591907,-0.19765656994591907
145.554,0.21549316492574921,-0.21549316492574921
145.555,0.21190952452108036,-0.21190952452108036
145.556,0.1903607847001466,-0.1903607847001466
145.55700000000002,0.15647721774156043,-0.15647721774156043
145.55800000000002,0.11662184814701193,-0.11662184814701193
145.559,0.07658931109148337,-0.07658931109148337
145.56,0.040696769209603745,-0.040696769209603745
145.561,0.011403775705888575,-0.011403775705888575
145.562,0.010533086731072894,0.010533086731072894
145.56300000000002,0.02549156343846537,0.02549156343846537
145.56400000000002,0.03422014470789403,0.03422014470789403
145.565,0.037144650212759034,0.037144650212759034
145.566,0.033986278931490865,0.033986278931490865
145.567,0.023836095375050936,0.023836095375050936
145.568,0.0056809005375808574,0.0056809005375808574
145.56900000000002,0.020788074561487457,-0.020788074561487457
145.57000000000002,0.05437671344854378,-0.05437671344854378
145.571,0.09193014155150625,-0.09193014155150625
145.572,0.1284706689646552,-0.1284706689646552
145.573,0.15801053742574822,-0.15801053742574822
145.574,0.17489041355567336,-0.17489041355567336
145.57500000000002,0.17528931899941624,-0.17528931899941624
145.57600000000002,0.1584448278794287,-0.1584448278794287
145.577,0.12716270867210022,-0.12716270867210022
145.578,0.08738383350661749,-0.08738383350661749
145.579,0.04686118640984316,-0.04686118640984316
145.58,0.013290153511231417,-0.013290153511231417
145.58100000000002,0.007569414626061199,0.007569414626061199
145.582,0.013214714904207892,0.013214714904207892
145.583,0.004762504681238955,0.004762504681238955
145.584,0.013746079777211873,-0.013746079777211873
145.585,0.036850647027006134,-0.036850647027006134
145.586,0.05946902927945574,-0.05946902927945574
145.58700000000002,0.07837352363908856,-0.07837352363908856
145.588,0.09284930041144313,-0.09284930041144313
145.589,0.10433285269790005,-0.10433285269790005
145.59,0.1151998462477195,-0.1151998462477195
145.591,0.12718864542351038,-0.12718864542351038
145.592,0.1400918748195794,-0.1400918748195794
145.59300000000002,0.15126528580195564,-0.15126528580195564
145.594,0.15621360289198205,-0.15621360289198205
145.595,0.15011509683155988,-0.15011509683155988
145.596,0.12978102162959126,-0.12978102162959126
145.597,0.09534652862077808,-0.09534652862077808
145.598,0.05103482039561569,-0.05103482039561569
145.59900000000002,0.004619804724073195,-0.004619804724073195
145.6,0.03435691260792462,0.03435691260792462
145.601,0.05712706965373271,0.05712706965373271
145.602,0.05822429896059278,0.05822429896059278
145.603,0.03719723020996413,0.03719723020996413
145.604,0.0010610264272156167,-0.0010610264272156167
145.60500000000002,0.047508073207643164,-0.047508073207643164
145.606,0.09133489395038275,-0.09133489395038275
145.607,0.12282825560070965,-0.12282825560070965
145.608,0.1358640558452202,-0.1358640558452202
145.609,0.1293144994896045,-0.1293144994896045
145.61,0.10700726211460232,-0.10700726211460232
145.61100000000002,0.0763308337650015,-0.0763308337650015
145.612,0.04598429821228511,-0.04598429821228511
145.613,0.023592494854161927,-0.023592494854161927
145.614,0.01388631664150064,-0.01388631664150064
145.615,0.017905918197768655,-0.017905918197768655
145.616,0.03331853172544408,-0.03331853172544408
145.61700000000002,0.05558519832462305,-0.05558519832462305
145.618,0.07948226720939444,-0.07948226720939444
145.619,0.10044987432612151,-0.10044987432612151
145.62,0.11539215251670276,-0.11539215251670276
145.621,0.12281750763194366,-0.12281750763194366
145.622,0.12247229403326021,-0.12247229403326021
145.62300000000002,0.1147866815181241,-0.1147866815181241
145.624,0.1004628189717982,-0.1004628189717982
145.625,0.08040254621755472,-0.08040254621755472
145.626,0.055962043284216056,-0.055962043284216056
145.627,0.029328997352015107,-0.029328997352015107
145.628,0.0037279416699010914,-0.0037279416699010914
145.62900000000002,0.01678952889734875,0.01678952889734875
145.63,0.028041509724176628,0.028041509724176628
145.631,0.026750640648707025,0.026750640648707025
145.632,0.011590800712329763,0.011590800712329763
145.633,0.01613813865208702,-0.01613813865208702
145.634,0.05249926029769769,-0.05249926029769769
145.63500000000002,0.0916509088037264,-0.0916509088037264
145.636,0.12714734546452788,-0.12714734546452788
145.637,0.15343101791928182,-0.15343101791928182
145.638,0.1670674589018296,-0.1670674589018296
145.639,0.16735893065726226,-0.16735893065726226
145.64,0.15618400023647772,-0.15618400023647772
145.64100000000002,0.13716894603698593,-0.13716894603698593
145.642,0.11450837722502338,-0.11450837722502338
145.643,0.09184167974432933,-0.09184167974432933
145.644,0.07153196251079996,-0.07153196251079996
145.645,0.05451533945917986,-0.05451533945917986
145.64600000000002,0.04066478241422322,-0.04066478241422322
145.64700000000002,0.029432188724994535,-0.029432188724994535
145.648,0.02046121718370475,-0.02046121718370475
145.649,0.013921414519061925,-0.013921414519061925
145.65,0.01046759058156399,-0.01046759058156399
145.651,0.010906072888195673,-0.010906072888195673
145.65200000000002,0.0157732497352987,-0.0157732497352987
145.65300000000002,0.025049910572418344,-0.025049910572418344
145.654,0.038143818273372654,-0.038143818273372654
145.655,0.05411886234124774,-0.05411886234124774
145.656,0.07200777889525312,-0.07200777889525312
145.657,0.09098861945707515,-0.09098861945707515
145.65800000000002,0.1102678965693108,-0.1102678965693108
145.65900000000002,0.12867551727858273,-0.12867551727858273
145.66,0.14416804012927287,-0.14416804012927287
145.661,0.15356468899368625,-0.15356468899368625
145.662,0.15282930692959784,-0.15282930692959784
145.663,0.13803847612943942,-0.13803847612943942
145.66400000000002,0.10688847370178511,-0.10688847370178511
145.66500000000002,0.0602970305024878,-0.0602970305024878
145.666,0.003476761096109948,-0.003476761096109948
145.667,0.05410625664010049,0.05410625664010049
145.668,0.10019728526762472,0.10019728526762472
145.669,0.1224966109016985,0.1224966109016985
145.67000000000002,0.11205323044599735,0.11205323044599735
145.67100000000002,0.0663389218925372,0.0663389218925372
145.672,0.009020456503561758,-0.009020456503561758
145.673,0.10059032960772896,-0.10059032960772896
145.674,0.18971255070010828,-0.18971255070010828
145.675,0.256807616005461,-0.256807616005461
145.67600000000002,0.2862911736475675,-0.2862911736475675
145.67700000000002,0.2707291414367248,-0.2707291414367248
145.678,0.21300041745585752,-0.21300041745585752
145.679,0.12577453419101192,-0.12577453419101192
145.68,0.0283870933038598,-0.0283870933038598
145.681,0.0580329086271929,0.0580329086271929
145.68200000000002,0.11580972529187195,0.11580972529187195
145.68300000000002,0.1348679314345531,0.1348679314345531
145.684,0.11466075609578974,0.11466075609578974
145.685,0.06345291556419563,0.06345291556419563
145.686,0.004664832633895499,-0.004664832633895499
145.687,0.07399721004944404,-0.07399721004944404
145.68800000000002,0.13137025852108697,-0.13137025852108697
145.68900000000002,0.16896866639675,-0.16896866639675
145.69,0.18520278758750985,-0.18520278758750985
145.691,0.18361724519529454,-0.18361724519529454
145.692,0.17048546597164083,-0.17048546597164083
145.693,0.15209397028663552,-0.15209397028663552
145.69400000000002,0.13270037813277535,-0.13270037813277535
145.69500000000002,0.11378291093820303,-0.11378291093820303
145.696,0.09464225353604605,-0.09464225353604605
145.697,0.07388638170914208,-0.07388638170914208
145.698,0.051022758258945866,-0.051022758258945866
145.699,0.02740503379652548,-0.02740503379652548
145.70000000000002,0.006108773901002396,-0.006108773901002396
145.70100000000002,0.009198313032903194,0.009198313032903194
145.702,0.015873351300708327,0.015873351300708327
145.703,0.013653270927467487,0.013653270927467487
145.704,0.005084318387803988,0.005084318387803988
145.705,0.005266046456547158,-0.005266046456547158
145.70600000000002,0.012595575166643003,-0.012595575166643003
145.707,0.013985268630236636,-0.013985268630236636
145.708,0.009983024548620212,-0.009983024548620212
145.709,0.0049275557749355325,-0.0049275557749355325
145.71,0.005729451908969563,-0.005729451908969563
145.711,0.01941250881905765,-0.01941250881905765
145.71200000000002,0.05022904152387897,-0.05022904152387897
145.713,0.09739784280515296,-0.09739784280515296
145.714,0.15436899143174232,-0.15436899143174232
145.715,0.21003050650104682,-0.21003050650104682
145.716,0.2516023518542122,-0.2516023518542122
145.717,0.26835057080460945,-0.26835057080460945
145.71800000000002,0.2549225385125282,-0.2549225385125282
145.719,0.21318213438776168,-0.21318213438776168
145.72,0.15189509772798826,-0.15189509772798826
145.721,0.0843222428724304,-0.0843222428724304
145.722,0.024476800976813817,-0.024476800976813817
145.723,0.016752886585177817,0.016752886585177817
145.72400000000002,0.0343796167128092,0.0343796167128092
145.725,0.030144786656156386,0.030144786656156386
145.726,0.011222048639938809,0.011222048639938809
145.727,0.012658647508151155,-0.012658647508151155
145.728,0.0326098109581473,-0.0326098109581473
145.729,0.043322196659106416,-0.043322196659106416
145.73000000000002,0.0442443595411699,-0.0442443595411699
145.731,0.03891269976997924,-0.03891269976997924
145.732,0.032823043106178895,-0.032823043106178895
145.733,0.030753206448619674,-0.030753206448619674
145.734,0.034612538713859387,-0.034612538713859387
145.735,0.04265473115508123,-0.04265473115508123
145.73600000000002,0.050340117119588745,-0.050340117119588745
145.737,0.052482720775096414,-0.052482720775096414
145.738,0.04581046152135204,-0.04581046152135204
145.739,0.03089392968126148,-0.03089392968126148
145.74,0.012624642437635947,-0.012624642437635947
145.741,0.0010362193233099948,0.0010362193233099948
145.74200000000002,0.0016637345797456682,0.0016637345797456682
145.743,0.01656951836142795,-0.01656951836142795
145.744,0.054475917920453254,-0.054475917920453254
145.745,0.1069771258008867,-0.1069771258008867
145.746,0.16413879845029689,-0.16413879845029689
145.747,0.2138178798905026,-0.2138178798905026
145.74800000000002,0.2450631692467381,-0.2450631692467381
145.749,0.25115497345378324,-0.25115497345378324
145.75,0.23130975339433546,-0.23130975339433546
145.751,0.19055428360316173,-0.19055428360316173
145.752,0.13791204604744567,-0.13791204604744567
145.753,0.08360844436884762,-0.08360844436884762
145.75400000000002,0.03628921537081953,-0.03628921537081953
145.755,0.0011628719264858978,-0.0011628719264858978
145.756,0.02043185863316599,0.02043185863316599
145.757,0.030102692165048017,0.030102692165048017
145.758,0.03070114952559999,0.03070114952559999
145.759,0.024668362492254126,0.024668362492254126
145.76000000000002,0.013160844441217012,0.013160844441217012
145.761,0.0037094332696674392,-0.0037094332696674392
145.762,0.025718949445815542,-0.025718949445815542
145.763,0.0511065183956797,-0.0511065183956797
145.764,0.07569672509004755,-0.07569672509004755
145.765,0.09320910638184121,-0.09320910638184121
145.76600000000002,0.09690781145265692,-0.09690781145265692
145.767,0.08214876812336691,-0.08214876812336691
145.768,0.04890545583374761,-0.04890545583374761
145.769,0.0032038905874253176,-0.0032038905874253176
145.77,0.04333891804372736,0.04333891804372736
145.77100000000002,0.0760669860992993,0.0760669860992993
145.77200000000002,0.0813654626965532,0.0813654626965532
145.773,0.05107725736220181,0.05107725736220181
145.774,0.01419521244198807,-0.01419521244198807
145.775,0.10412294124180388,-0.10412294124180388
145.776,0.20056279185614423,-0.20056279185614423
145.77700000000002,0.2819847184968234,-0.2819847184968234
145.77800000000002,0.32920585334934094,-0.32920585334934094
145.779,0.33073782672450514,-0.33073782672450514
145.78,0.286103796132848,-0.286103796132848
145.781,0.20606847029379016,-0.20606847029379016
145.782,0.10966688039738004,-0.10966688039738004
145.78300000000002,0.018911543319181323,-0.018911543319181323
145.78400000000002,0.047222387549881395,0.047222387549881395
145.785,0.07772470463444803,0.07772470463444803
145.786,0.07194888586197679,0.07194888586197679
145.787,0.03886099718681657,0.03886099718681657
145.788,0.0064819998669658485,-0.0064819998669658485
145.78900000000002,0.047994196116247334,-0.047994196116247334
145.79000000000002,0.07350403190420618,-0.07350403190420618
145.791,0.07804139986714964,-0.07804139986714964
145.792,0.06454418491846614,-0.06454418491846614
145.793,0.04194536042009389,-0.04194536042009389
145.794,0.02145687454132794,-0.02145687454132794
145.79500000000002,0.012409707541811477,-0.012409707541811477
145.79600000000002,0.019074179287142723,-0.019074179287142723
145.797,0.03947141435084278,-0.03947141435084278
145.798,0.06645687182146154,-0.06645687182146154
145.799,0.09057061379614006,-0.09057061379614006
145.8,0.10357423171256064,-0.10357423171256064
145.80100000000002,0.10141480096005895,-0.10141480096005895
145.80200000000002,0.08561306053310958,-0.08561306053310958
145.803,0.0626575164385118,-0.0626575164385118
145.804,0.04168400081848134,-0.04168400081848134
145.805,0.03128959594358294,-0.03128959594358294
145.806,0.03658519084211054,-0.03658519084211054
145.80700000000002,0.05746301817315014,-0.05746301817315014
145.80800000000002,0.08860839952045108,-0.08860839952045108
145.809,0.12118649914142765,-0.12118649914142765
145.81,0.14559357654116334,-0.14559357654116334
145.811,0.1543537977200744,-0.1543537977200744
145.812,0.14425294214151474,-0.14425294214151474
145.81300000000002,0.11710262203931399,-0.11710262203931399
145.81400000000002,0.07900117138115892,-0.07900117138115892
145.815,0.03843204943879497,-0.03843204943879497
145.816,0.0038635655701234617,-0.0038635655701234617
145.817,0.01840409141878685,0.01840409141878685
145.818,0.025557621882626558,0.025557621882626558
145.81900000000002,0.01848951155237799,0.01848951155237799
145.82000000000002,0.001011583563671481,0.001011583563671481
145.821,0.02156331004901535,-0.02156331004901535
145.822,0.0439769113570192,-0.0439769113570192
145.823,0.06227348040624747,-0.06227348040624747
145.824,0.07446880973185055,-0.07446880973185055
145.82500000000002,0.08058729593396663,-0.08058729593396663
145.82600000000002,0.08219714699053515,-0.08219714699053515
145.827,0.08167157583632578,-0.08167157583632578
145.828,0.08140817303135306,-0.08140817303135306
145.829,0.08317795902538105,-0.08317795902538105
145.83,0.08769513820927,-0.08769513820927
145.83100000000002,0.09443689235839525,-0.09443689235839525
145.832,0.1017148659779259,-0.1017148659779259
145.833,0.10699508317308826,-0.10699508317308826
145.834,0.10745408086017205,-0.10745408086017205
145.835,0.10072229615669603,-0.10072229615669603
145.836,0.08569743525800788,-0.08569743525800788
145.83700000000002,0.0632334197097828,-0.0632334197097828
145.838,0.036466115090851736,-0.036466115090851736
145.839,0.010566603541414143,-0.010566603541414143
145.84,0.008165223904570196,0.008165223904570196
145.841,0.013758821415248423,0.013758821415248423
145.842,0.0022637537762613125,0.0022637537762613125
145.84300000000002,0.02679554035207421,-0.02679554035207421
145.844,0.06968775357827184,-0.06968775357827184
145.845,0.11880731950655576,-0.11880731950655576
145.846,0.16412986485020054,-0.16412986485020054
145.847,0.1955054058580935,-0.1955054058580935
145.848,0.20521161484594952,-0.20521161484594952
145.84900000000002,0.19005248394106888,-0.19005248394106888
145.85,0.1523669522447142,-0.1523669522447142
145.851,0.09959873156300503,-0.09959873156300503
145.852,0.04249251659155129,-0.04249251659155129
145.853,0.007604881003491215,0.007604881003491215
145.854,0.041581008678975184,0.041581008678975184
145.85500000000002,0.054724011909104364,0.054724011909104364
145.856,0.04761001149237143,0.04761001149237143
145.857,0.025490991695721332,0.025490991695721332
145.858,0.0035840521501629974,-0.0035840521501629974
145.859,0.0313080695550052,-0.0313080695550052
145.86,0.051531695520298904,-0.051531695520298904
145.86100000000002,0.06184439346464554,-0.06184439346464554
145.862,0.06389920176183361,-0.06389920176183361
145.863,0.06246553127421506,-0.06246553127421506
145.864,0.06358238587448639,-0.06358238587448639
145.865,0.07243155794265588,-0.07243155794265588
145.866,0.09158744386499251,-0.09158744386499251
145.86700000000002,0.12013134291168548,-0.12013134291168548
145.868,0.15381521381790564,-0.15381521381790564
145.869,0.18613300816601575,-0.18613300816601575
145.87,0.20991456232518457,-0.20991456232518457
145.871,0.21896564536989505,-0.21896564536989505
145.872,0.20934625132712714,-0.20934625132712714
145.87300000000002,0.18005889304468048,-0.18005889304468048
145.874,0.13312785159679952,-0.13312785159679952
145.875,0.07320879992712337,-0.07320879992712337
145.876,0.006928089176802654,-0.006928089176802654
145.877,0.05788745165745768,0.05788745165745768
145.878,0.11302261062680574,0.11302261062680574
145.87900000000002,0.1507442867110247,0.1507442867110247
145.88,0.16476780377985234,0.16476780377985234
145.881,0.15129544026349784,0.15129544026349784
145.882,0.10998657130177625,0.10998657130177625
145.883,0.04460611960170513,0.04460611960170513
145.884,0.03694202605534014,-0.03694202605534014
145.88500000000002,0.12341215242273229,-0.12341215242273229
145.886,0.20186554624425923,-0.20186554624425923
145.887,0.2599339294660066,-0.2599339294660066
145.888,0.2882266086255463,-0.2882266086255463
145.889,0.2822924291356229,-0.2822924291356229
145.89,0.24360417956576463,-0.24360417956576463
145.89100000000002,0.17926449905465913,-0.17926449905465913
145.892,0.10047550850191178,-0.10047550850191178
145.893,0.020161807021521372,-0.020161807021521372
145.894,0.04962700944841414,0.04962700944841414
145.895,0.09986394418437161,0.09986394418437161
145.89600000000002,0.12573703156873273,0.12573703156873273
145.89700000000002,0.12670018310682107,0.12670018310682107
145.898,0.10555887666666908,0.10555887666666908
145.899,0.06704846546460663,0.06704846546460663
145.9,0.016466623624343812,0.016466623624343812
145.901,0.04118395170248168,-0.04118395170248168
145.90200000000002,0.10135588073475399,-0.10135588073475399
145.90300000000002,0.15956139613677334,-0.15956139613677334
145.904,0.21081934804267255,-0.21081934804267255
145.905,0.24942906407638676,-0.24942906407638676
145.906,0.2694296910723567,-0.2694296910723567
145.907,0.26580897406060155,-0.26580897406060155
145.90800000000002,0.23617025347572052,-0.23617025347572052
145.90900000000002,0.18228798069634722,-0.18228798069634722
145.91,0.11089608883001167,-0.11089608883001167
145.911,0.033210941490402934,-0.033210941490402934
145.912,0.03694427003048606,0.03694427003048606
145.913,0.08608696974895125,0.08608696974895125
145.91400000000002,0.10436702671413522,0.10436702671413522
145.91500000000002,0.0882762437895106,0.0882762437895106
145.916,0.04193234686283498,0.04193234686283498
145.917,0.02354867231840374,-0.02354867231840374
145.918,0.09254728876577334,-0.09254728876577334
145.919,0.1487125991278867,-0.1487125991278867
145.92000000000002,0.17903096894676707,-0.17903096894676707
145.92100000000002,0.17709589452059482,-0.17709589452059482
145.922,0.14468526027107487,-0.14468526027107487
145.923,0.09121214342919459,-0.09121214342919459
145.924,0.031199003241360934,-0.031199003241360934
145.925,0.019537311179097072,0.019537311179097072
145.92600000000002,0.04796351614442518,0.04796351614442518
145.92700000000002,0.047095320172721555,0.047095320172721555
145.928,0.017619547417977888,0.017619547417977888
145.929,0.03249799708815038,-0.03249799708815038
145.93,0.09024990154778834,-0.09024990154778834
145.931,0.14102985381543465,-0.14102985381543465
145.93200000000002,0.1723598547000632,-0.1723598547000632
145.93300000000002,0.17695176805506396,-0.17695176805506396
145.934,0.15436613295235602,-0.15436613295235602
145.935,0.11091590279502683,-0.11091590279502683
145.936,0.0579112193079776,-0.0579112193079776
145.937,0.008739541962949016,-0.008739541962949016
145.93800000000002,0.024467978536191204,0.024467978536191204
145.93900000000002,0.03376797726298575,0.03376797726298575
145.94,0.017246733855327046,0.017246733855327046
145.941,0.020634178841618223,-0.020634178841618223
145.942,0.07023247139704691,-0.07023247139704691
145.943,0.11914315955468902,-0.11914315955468902
145.94400000000002,0.15524336924816762,-0.15524336924816762
145.94500000000002,0.16962833673709343,-0.16962833673709343
145.946,0.15873503891453233,-0.15873503891453233
145.947,0.12514666160705423,-0.12514666160705423
145.948,0.07689000601667872,-0.07689000601667872
145.949,0.025406609538488945,-0.025406609538488945
145.95000000000002,0.017291261578714856,0.017291261578714856
145.95100000000002,0.04156058073746771,0.04156058073746771
145.952,0.04241699451404646,0.04241699451404646
145.953,0.020595016169074887,0.020595016169074887
145.954,0.017874542856873288,-0.017874542856873288
145.955,0.06342487444211453,-0.06342487444211453
145.95600000000002,0.10554404273809082,-0.10554404273809082
145.957,0.13546831803050796,-0.13546831803050796
145.958,0.1482376500924072,-0.1482376500924072
145.959,0.1435763939384167,-0.1435763939384167
145.96,0.12542227990006727,-0.12542227990006727
145.961,0.10033319220405545,-0.10033319220405545
145.96200000000002,0.075327657793818,-0.075327657793818
145.963,0.05585790949906255,-0.05585790949906255
145.964,0.044529604486065466,-0.044529604486065466
145.965,0.0409006451583257,-0.0409006451583257
145.966,0.04231045980087722,-0.04231045980087722
145.967,0.045342252903192826,-0.045342252903192826
145.96800000000002,0.04732484940135817,-0.04732484940135817
145.969,0.04730480310949825,-0.04730480310949825
145.97,0.04615184200355804,-0.04615184200355804
145.971,0.0458141792498441,-0.0458141792498441
145.972,0.0480821163224503,-0.0480821163224503
145.973,0.05341866163156961,-0.05341866163156961
145.97400000000002,0.06039547787285626,-0.06039547787285626
145.975,0.06603417758213304,-0.06603417758213304
145.976,0.06698305612509337,-0.06698305612509337
145.977,0.06109777761488888,-0.06109777761488888
145.978,0.04878407142597163,-0.04878407142597163
145.979,0.03349260618469252,-0.03349260618469252
145.98000000000002,0.021033963976045622,-0.021033963976045622
145.981,0.017814280016475226,-0.017814280016475226
145.982,0.02852456445258167,-0.02852456445258167
145.983,0.05408458347448253,-0.05408458347448253
145.984,0.0906327920190737,-0.0906327920190737
145.985,0.13005094924067107,-0.13005094924067107
145.98600000000002,0.16200690727643863,-0.16200690727643863
145.987,0.17696210272359936,-0.17696210272359936
145.988,0.16921266902281595,-0.16921266902281595
145.989,0.1389581025842549,-0.1389581025842549
145.99,0.09266055612295987,-0.09266055612295987
145.991,0.041491900474902366,-0.041491900474902366
145.99200000000002,0.0017110870941923206,0.0017110870941923206
145.993,0.02606330347102226,0.02606330347102226
145.994,0.02569805740693365,0.02569805740693365
145.995,0.001333058651945107,0.001333058651945107
145.996,0.04012726049674242,-0.04012726049674242
145.997,0.08777693451354085,-0.08777693451354085
145.99800000000002,0.1299344271625844,-0.1299344271625844
145.999,0.15735576278093766,-0.15735576278093766
146.0,0.16543924052233416,-0.16543924052233416
146.001,0.15482002673030515,-0.15482002673030515
146.002,0.13033438695129906,-0.13033438695129906
146.003,0.09888929515096168,-0.09888929515096168
146.00400000000002,0.06710407807974239,-0.06710407807974239
146.005,0.03958398821298459,-0.03958398821298459
146.006,0.018356703501814398,-0.018356703501814398
146.007,0.003488859803711164,-0.003488859803711164
146.008,0.005592914697312823,0.005592914697312823
146.009,0.008827082901619931,0.008827082901619931
146.01000000000002,0.004986347700907556,0.004986347700907556
146.011,0.007771627245933166,-0.007771627245933166
146.012,0.030457804904831964,-0.030457804904831964
146.013,0.06156622503404241,-0.06156622503404241
146.014,0.09602056178179097,-0.09602056178179097
146.015,0.1254731837791272,-0.1254731837791272
146.01600000000002,0.14019296374549794,-0.14019296374549794
146.017,0.13212972375141763,-0.13212972375141763
146.018,0.09817825906044642,-0.09817825906044642
146.019,0.04241782665533722,-0.04241782665533722
146.02,0.02369657527616109,0.02369657527616109
146.02100000000002,0.08359898049693504,0.08359898049693504
146.02200000000002,0.1199025314424631,0.1199025314424631
146.023,0.11951418426032911,0.11951418426032911
146.024,0.07796013560963821,0.07796013560963821
146.025,0.001429461392556508,0.001429461392556508
146.026,0.09430461998945061,-0.09430461998945061
146.02700000000002,0.18793918559180434,-0.18793918559180434
146.02800000000002,0.2585286600984692,-0.2585286600984692
146.029,0.29140259798734924,-0.29140259798734924
146.03,0.2822356022755874,-0.2822356022755874
146.031,0.23794690888716818,-0.23794690888716818
146.032,0.17412728887609008,-0.17412728887609008
146.03300000000002,0.10983809450585746,-0.10983809450585746
146.03400000000002,0.06150948471083395,-0.06150948471083395
146.035,0.03797135753603276,-0.03797135753603276
146.036,0.03826353701133833,-0.03826353701133833
146.037,0.05291320431775748,-0.05291320431775748
146.038,0.06816212076808692,-0.06816212076808692
146.03900000000002,0.07159184383911699,-0.07159184383911699
146.04000000000002,0.05709797598858035,-0.05709797598858035
146.041,0.02738844450970268,-0.02738844450970268
146.042,0.006941176072736921,0.006941176072736921
146.043,0.03146994790385027,0.03146994790385027
146.044,0.033710877869197464,0.033710877869197464
146.04500000000002,0.008462033732649976,0.008462033732649976
146.04600000000002,0.03928074467893994,-0.03928074467893994
146.047,0.09507209849139586,-0.09507209849139586
146.048,0.13937490404048303,-0.13937490404048303
146.049,0.15417333528691735,-0.15417333528691735
146.05,0.1296147081894179,-0.1296147081894179
146.05100000000002,0.06833172043114755,-0.06833172043114755
146.05200000000002,0.014208623949370391,0.014208623949370391
146.053,0.09368836193981811,0.09368836193981811
146.054,0.14414798448304733,0.14414798448304733
146.055,0.1461785015324668,0.1461785015324668
146.056,0.09343997356788081,0.09343997356788081
146.05700000000002,0.00468132481799044,-0.00468132481799044
146.05800000000002,0.12525574515417703,-0.12525574515417703
146.059,0.23825486315010913,-0.23825486315010913
146.06,0.3152900540837251,-0.3152900540837251
146.061,0.3379184083321728,-0.3379184083321728
146.062,0.30291594541535205,-0.30291594541535205
146.06300000000002,0.22288989981985574,-0.22288989981985574
146.06400000000002,0.12209718847672402,-0.12209718847672402
146.065,0.028860687905333915,-0.028860687905333915
146.066,0.03297157893513836,0.03297157893513836
146.067,0.05083528018668271,0.05083528018668271
146.068,0.026468269797831567,0.026468269797831567
146.06900000000002,0.025640409075159853,-0.025640409075159853
146.07000000000002,0.08365924136302072,-0.08365924136302072
146.071,0.12576321096588672,-0.12576321096588672
146.072,0.13697385370174464,-0.13697385370174464
146.073,0.11333578585602555,-0.11333578585602555
146.074,0.06226636849210454,-0.06226636849210454
146.07500000000002,0.0007567286592002898,0.0007567286592002898
146.07600000000002,0.05780166290847211,0.05780166290847211
146.077,0.09433707799672941,0.09433707799672941
146.078,0.10334764590130474,0.10334764590130474
146.079,0.08646179330769654,0.08646179330769654
146.08,0.05197625421188112,0.05197625421188112
146.08100000000002,0.010775426907715158,0.010775426907715158
146.082,0.028156560832081068,-0.028156560832081068
146.083,0.060881606074531414,-0.060881606074531414
146.084,0.08915616546634286,-0.08915616546634286
146.085,0.11843450360337648,-0.11843450360337648
146.086,0.15412099493597742,-0.15412099493597742
146.08700000000002,0.197659562559372,-0.197659562559372
146.088,0.2441394061064519,-0.2441394061064519
146.089,0.282550003753555,-0.282550003753555
146.09,0.2988307448451526,-0.2988307448451526
146.091,0.28078706172647105,-0.28078706172647105
146.092,0.2231746378163919,-0.2231746378163919
146.09300000000002,0.13107114091397032,-0.13107114091397032
146.094,0.0201411996849028,-0.0201411996849028
146.095,0.08659851316830491,0.08659851316830491
146.096,0.16472631816006977,0.16472631816006977
146.097,0.19532816623040716,0.19532816623040716
146.098,0.17072400649965758,0.17072400649965758
146.09900000000002,0.09715161068159883,0.09715161068159883
146.1,0.006538251973820519,-0.006538251973820519
146.101,0.11388798027334013,-0.11388798027334013
146.102,0.19809544303059612,-0.19809544303059612
146.103,0.23937859648895898,-0.23937859648895898
146.104,0.23025537664163664,-0.23025537664163664
146.10500000000002,0.17720027799785754,-0.17720027799785754
146.106,0.09825674504787885,-0.09825674504787885
146.107,0.017412943759579247,-0.017412943759579247
146.108,0.04249859939071832,0.04249859939071832
146.109,0.06622922972385403,0.06622922972385403
146.11,0.050002801656774176,0.050002801656774176
146.11100000000002,0.001836946858423838,0.001836946858423838
146.112,0.06161269275587755,-0.06161269275587755
146.113,0.12055453081072431,-0.12055453081072431
146.114,0.15813244759887835,-0.15813244759887835
146.115,0.16521684788943447,-0.16521684788943447
146.116,0.14255901250580016,-0.14255901250580016
146.11700000000002,0.09982973916142523,-0.09982973916142523
146.118,0.05203414109088167,-0.05203414109088167
146.119,0.014556581969778715,-0.014556581969778715
146.12,0.0015765343276730182,0.0015765343276730182
146.121,0.007202760109369044,-0.007202760109369044
146.122,0.03637219326978913,-0.03637219326978913
146.12300000000002,0.07518927144301324,-0.07518927144301324
146.124,0.11034171671865789,-0.11034171671865789
146.125,0.13017059558632782,-0.13017059558632782
146.126,0.1281665647767377,-0.1281665647767377
146.127,0.10474039913055544,-0.10474039913055544
146.128,0.0668434188402689,-0.0668434188402689
146.12900000000002,0.025671338487476603,-0.025671338487476603
146.13,0.00677237804793962,0.00677237804793962
146.131,0.02119830865793193,0.02119830865793193
146.132,0.013625423654012758,0.013625423654012758
146.133,0.013638502823664411,-0.013638502823664411
146.134,0.05282265788349261,-0.05282265788349261
146.13500000000002,0.09300601176356904,-0.09300601176356904
146.136,0.12321074128062293,-0.12321074128062293
146.137,0.13540019175539186,-0.13540019175539186
146.138,0.12658004949927337,-0.12658004949927337
146.139,0.09948087646058335,-0.09948087646058335
146.14,0.06169656100773935,-0.06169656100773935
146.14100000000002,0.023558112832371414,-0.023558112832371414
146.142,0.0046649199391894935,0.0046649199391894935
146.143,0.01549232641730458,0.01549232641730458
146.144,0.0061856172393530695,0.0061856172393530695
146.145,0.020570066807634624,-0.020570066807634624
146.14600000000002,0.05742313663204912,-0.05742313663204912
146.14700000000002,0.09435617176557365,-0.09435617176557365
146.148,0.12141771437848548,-0.12141771437848548
146.149,0.13147905852899466,-0.13147905852899466
146.15,0.12228738395309835,-0.12228738395309835
146.151,0.09724662896479463,-0.09724662896479463
146.15200000000002,0.064668583503249,-0.064668583503249
146.15300000000002,0.03562872238139836,-0.03562872238139836
146.154,0.020938995471621036,-0.020938995471621036
146.155,0.028014075031368546,-0.028014075031368546
146.156,0.05848089574809978,-0.05848089574809978
146.157,0.10723060395169448,-0.10723060395169448
146.15800000000002,0.1632621181651721,-0.1632621181651721
146.15900000000002,0.2121990205211689,-0.2121990205211689
146.16,0.23989720603498066,-0.23989720603498066
146.161,0.23622862933181588,-0.23622862933181588
146.162,0.19802756089666296,-0.19802756089666296
146.163,0.1303615873141808,-0.1303615873141808
146.16400000000002,0.04570609964143091,-0.04570609964143091
146.16500000000002,0.03884653208339395,0.03884653208339395
146.166,0.10567258686424408,0.10567258686424408
146.167,0.14095303530558367,0.14095303530558367
146.168,0.13811838829583878,0.13811838829583878
146.169,0.0994761758641669,0.0994761758641669
146.17000000000002,0.0355705637896131,0.0355705637896131
146.17100000000002,0.03756863954017642,-0.03756863954017642
146.172,0.10255906737726672,-0.10255906737726672
146.173,0.14507835588222884,-0.14507835588222884
146.174,0.15738274766085847,-0.15738274766085847
146.175,0.14001103115002467,-0.14001103115002467
146.17600000000002,0.10125759134114232,-0.10125759134114232
146.17700000000002,0.05461147423078494,-0.05461147423078494
146.178,0.014907309048428075,-0.014907309048428075
146.179,0.0057338598718352785,0.0057338598718352785
146.18,0.0010690176197865053,0.0010690176197865053
146.181,0.02782270581765589,-0.02782270581765589
146.18200000000002,0.07314265840603784,-0.07314265840603784
146.18300000000002,0.12277508233630585,-0.12277508233630585
146.184,0.16375731818536055,-0.16375731818536055
146.185,0.18582137237541863,-0.18582137237541863
146.186,0.18403233632599147,-0.18403233632599147
146.187,0.15984024535554553,-0.15984024535554553
146.18800000000002,0.12033033390078351,-0.12033033390078351
146.18900000000002,0.07596456324651624,-0.07596456324651624
146.19,0.03751191607079307,-0.03751191607079307
146.191,0.013058514321243164,-0.013058514321243164
146.192,0.005926898069909092,-0.005926898069909092
146.193,0.014045343746930006,-0.014045343746930006
146.19400000000002,0.03088270689330397,-0.03088270689330397
146.19500000000002,0.047625157706408405,-0.047625157706408405
146.196,0.05593940052955504,-0.05593940052955504
146.197,0.05052845763888769,-0.05052845763888769
146.198,0.030770090159535468,-0.030770090159535468
146.199,0.0010020144764182337,-0.0010020144764182337
146.20000000000002,0.03059985882066818,0.03059985882066818
146.20100000000002,0.05422110061360419,0.05422110061360419
146.202,0.06107611230660681,0.06107611230660681
146.203,0.04582406346281598,0.04582406346281598
146.204,0.008099659224718003,0.008099659224718003
146.205,0.04722587937924283,-0.04722587937924283
146.20600000000002,0.1110973384667776,-0.1110973384667776
146.207,0.17234552595605612,-0.17234552595605612
146.208,0.22022877558010168,-0.22022877558010168
146.209,0.24680096315858424,-0.24680096315858424
146.21,0.2485322932318469,-0.2485322932318469
146.211,0.22682445636407256,-0.22682445636407256
146.21200000000002,0.1873585385964801,-0.1873585385964801
146.213,0.1385110184990045,-0.1385110184990045
146.214,0.08929264799649261,-0.08929264799649261
146.215,0.04735338129341704,-0.04735338129341704
146.216,0.01753762232889966,-0.01753762232889966
146.217,0.0012920361903918653,-0.0012920361903918653
146.21800000000002,0.0030207057398388137,0.0030207057398388137
146.219,0.0009071170819697771,-0.0009071170819697771
146.22,0.008709520005251603,-0.008709520005251603
146.221,0.016659422834298776,-0.016659422834298776
146.222,0.022557151536144904,-0.022557151536144904
146.223,0.02600049401351623,-0.02600049401351623
146.22400000000002,0.028045223369178585,-0.028045223369178585
146.225,0.030447302380090524,-0.030447302380090524
146.226,0.0347860433580337,-0.0347860433580337
146.227,0.04177350705261951,-0.04177350705261951
146.228,0.05096452458906242,-0.05096452458906242
146.229,0.060929095698653235,-0.060929095698653235
146.23000000000002,0.06978753309690133,-0.06978753309690133
146.231,0.07589180971551235,-0.07589180971551235
146.232,0.07840038813105232,-0.07840038813105232
146.233,0.07754636995708342,-0.07754636995708342
146.234,0.07451803052841588,-0.07451803052841588
146.235,0.07101276886928354,-0.07101276886928354
146.23600000000002,0.06863980387162327,-0.06863980387162327
146.237,0.0683941026825855,-0.0683941026825855
146.238,0.0703889662886319,-0.0703889662886319
146.239,0.07393176580318217,-0.07393176580318217
146.24,0.07789506014251324,-0.07789506014251324
146.241,0.08122276366585213,-0.08122276366585213
146.24200000000002,0.08336020349139384,-0.08336020349139384
146.243,0.08442762425551276,-0.08442762425551276
146.244,0.08505899179247944,-0.08505899179247944
146.245,0.08596496978673751,-0.08596496978673751
146.246,0.08739958595346964,-0.08739958595346964
146.247,0.08876712542335297,-0.08876712542335297
146.24800000000002,0.08857321943233787,-0.08857321943233787
146.249,0.08480773227385774,-0.08480773227385774
146.25,0.07568404964967257,-0.07568404964967257
146.251,0.06050665785850162,-0.06050665785850162
146.252,0.04035392831825246,-0.04035392831825246
146.253,0.018283306713544722,-0.018283306713544722
146.25400000000002,0.001105371473021144,0.001105371473021144
146.255,0.012710909480849963,0.012710909480849963
146.256,0.01232680269261377,0.01232680269261377
146.257,0.002007032463579028,-0.002007032463579028
146.258,0.02912825937190411,-0.02912825937190411
146.259,0.0646767133911389,-0.0646767133911389
146.26000000000002,0.10192344676805687,-0.10192344676805687
146.261,0.13333620910706234,-0.13333620910706234
146.262,0.1524748462300921,-0.1524748462300921
146.263,0.15568336243954672,-0.15568336243954672
146.264,0.14307702822414947,-0.14307702822414947
146.265,0.11851110233461282,-0.11851110233461282
146.26600000000002,0.08851062772270779,-0.08851062772270779
146.267,0.06045108835945834,-0.06045108835945834
146.268,0.040511401558525506,-0.040511401558525506
146.269,0.03199925613284316,-0.03199925613284316
146.27,0.03454564978171504,-0.03454564978171504
146.27100000000002,0.044408422852029505,-0.044408422852029505
146.27200000000002,0.055790346997308005,-0.055790346997308005
146.273,0.06276831052487952,-0.06276831052487952
146.274,0.06124250374535156,-0.06124250374535156
146.275,0.05030762384115306,-0.05030762384115306
146.276,0.032625306081674355,-0.032625306081674355
146.27700000000002,0.013683858332017351,-0.013683858332017351
146.27800000000002,0.00017260215578041027,-0.00017260215578041027
146.279,0.0020325585418927705,0.0020325585418927705
146.28,0.010338184151685859,-0.010338184151685859
146.281,0.0369124462335485,-0.0369124462335485
146.282,0.07369158889878069,-0.07369158889878069
146.28300000000002,0.11408855801433482,-0.11408855801433482
146.28400000000002,0.15064959275517542,-0.15064959275517542
146.285,0.1769282085061672,-0.1769282085061672
146.286,0.18895896443262294,-0.18895896443262294
146.287,0.18593185321693473,-0.18593185321693473
146.288,0.16994075469925318,-0.16994075469925318
146.28900000000002,0.14497867087024863,-0.14497867087024863
146.29000000000002,0.11557925426256488,-0.11557925426256488
146.291,0.08558577177490301,-0.08558577177490301
146.292,0.05744280263697066,-0.05744280263697066
146.293,0.03218754488645015,-0.03218754488645015
146.294,0.010046196229224091,-0.010046196229224091
146.29500000000002,0.00868677874133228,0.00868677874133228
146.29600000000002,0.022911987024949232,0.022911987024949232
146.297,0.03049876258255857,0.03049876258255857
146.298,0.028737832179051015,0.028737832179051015
146.299,0.01537123460801082,0.01537123460801082
146.3,0.01014816030669996,-0.01014816030669996
146.30100000000002,0.045647232993724085,-0.045647232993724085
146.30200000000002,0.08591940835622314,-0.08591940835622314
146.303,0.12335856408438017,-0.12335856408438017
146.304,0.14949341966927698,-0.14949341966927698
146.305,0.15707134317523352,-0.15707134317523352
146.306,0.14212935692241147,-0.14212935692241147
146.30700000000002,0.10544409404420452,-0.10544409404420452
146.30800000000002,0.05289142606834962,-0.05289142606834962
146.309,0.005468134685771009,0.005468134685771009
146.31,0.05741472521832147,0.05741472521832147
146.311,0.09123497840805261,0.09123497840805261
146.312,0.09838128926248091,0.09838128926248091
146.31300000000002,0.07547760344405208,0.07547760344405208
146.31400000000002,0.025195962804168248,0.025195962804168248
146.315,0.04418534464387813,-0.04418534464387813
146.316,0.12041345607452458,-0.12041345607452458
146.317,0.18969060599631038,-0.18969060599631038
146.318,0.2393624156018923,-0.2393624156018923
146.31900000000002,0.26031518117467256,-0.26031518117467256
146.32000000000002,0.24864110276808427,-0.24864110276808427
146.321,0.20631156024446018,-0.20631156024446018
146.322,0.14079812808060232,-0.14079812808060232
146.323,0.06375550577054812,-0.06375550577054812
146.324,0.010992176656314356,0.010992176656314356
146.32500000000002,0.06984113626383048,0.06984113626383048
146.32600000000002,0.10181185555585226,0.10181185555585226
146.327,0.10059260368694556,0.10059260368694556
146.328,0.06586664151667998,0.06586664151667998
146.329,0.0036315389928938124,0.0036315389928938124
146.33,0.07465334916672417,-0.07465334916672417
146.33100000000002,0.15405887323902812,-0.15405887323902812
146.332,0.21904059115768848,-0.21904059115768848
146.333,0.25663706691614685,-0.25663706691614685
146.334,0.2593267374345184,-0.2593267374345184
146.335,0.22683843414055493,-0.22683843414055493
146.336,0.1663800058084851,-0.1663800058084851
146.33700000000002,0.09109686312731058,-0.09109686312731058
146.338,0.017024783826831702,-0.017024783826831702
146.339,0.04076262330479197,0.04076262330479197
146.34,0.07182857356900962,0.07182857356900962
146.341,0.07286433343828302,0.07286433343828302
146.342,0.04826644690757065,0.04826644690757065
146.34300000000002,0.0085862283768392,0.0085862283768392
146.344,0.03274351796097408,-0.03274351796097408
146.345,0.06346582443081383,-0.06346582443081383
146.346,0.07612901079390344,-0.07612901079390344
146.347,0.07016853609874607,-0.07016853609874607
146.348,0.05177221133441934,-0.05177221133441934
146.34900000000002,0.03154401553663788,-0.03154401553663788
146.35,0.020690092037054075,-0.020690092037054075
146.351,0.026953086842886442,-0.026953086842886442
146.352,0.05164333436112256,-0.05164333436112256
146.353,0.08879985049842842,-0.08879985049842842
146.354,0.12684545716665996,-0.12684545716665996
146.35500000000002,0.1522847056293709,-0.1522847056293709
146.356,0.15429468450731454,-0.15429468450731454
146.357,0.12871351930872788,-0.12871351930872788
146.358,0.08006740341315288,-0.08006740341315288
146.359,0.02086693783499416,-0.02086693783499416
146.36,0.03173202210102488,0.03173202210102488
146.36100000000002,0.060945516051991167,0.060945516051991167
146.362,0.05552325012501558,0.05552325012501558
146.363,0.013429249159990997,0.013429249159990997
146.364,0.05715158590659042,-0.05715158590659042
146.365,0.13984756047889457,-0.13984756047889457
146.366,0.21458559604549166,-0.21458559604549166
146.36700000000002,0.26316441434929283,-0.26316441434929283
146.368,0.2742137924572702,-0.2742137924572702
146.369,0.2460480750672689,-0.2460480750672689
146.37,0.186610541941025,-0.186610541941025
146.371,0.11064323952782396,-0.11064323952782396
146.372,0.03509254992159838,-0.03509254992159838
146.37300000000002,0.02571567002781605,0.02571567002781605
146.374,0.06359536849539982,0.06359536849539982
146.375,0.0776884423927986,0.0776884423927986
146.376,0.07313584778000326,0.07313584778000326
146.377,0.057920027102761784,0.057920027102761784
146.378,0.03917213479513193,0.03917213479513193
146.37900000000002,0.02036624173468482,0.02036624173468482
146.38,0.0004362410363292213,0.0004362410363292213
146.381,0.024907031758994114,-0.024907031758994114
146.382,0.06023561332675875,-0.06023561332675875
146.383,0.10705908967297184,-0.10705908967297184
146.384,0.1614834189242388,-0.1614834189242388
146.38500000000002,0.21394870016832712,-0.21394870016832712
146.386,0.25137199565492685,-0.25137199565492685
146.387,0.2611208693932552,-0.2611208693932552
146.388,0.2355134448603563,-0.2355134448603563
146.389,0.17525041002993413,-0.17525041002993413
146.39,0.09045287087451748,-0.09045287087451748
146.39100000000002,0.0012678707856650373,0.0012678707856650373
146.392,0.07929376466892335,0.07929376466892335
146.393,0.1257325169789072,0.1257325169789072
146.394,0.13061492655756335,0.13061492655756335
146.395,0.09487787046888974,0.09487787046888974
146.39600000000002,0.03012303997510024,0.03012303997510024
146.39700000000002,0.04483821728963322,-0.04483821728963322
146.398,0.10960763029597753,-0.10960763029597753
146.399,0.14823689266833096,-0.14823689266833096
146.4,0.153784397039746,-0.153784397039746
146.401,0.12997245111785594,-0.12997245111785594
146.40200000000002,0.0894612535598065,-0.0894612535598065
146.40300000000002,0.049344509213051224,-0.049344509213051224
146.404,0.02535611943396432,-0.02535611943396432
146.405,0.026670829761093362,-0.026670829761093362
146.406,0.052961568846588536,-0.052961568846588536
146.407,0.09462300283789715,-0.09462300283789715
146.40800000000002,0.136038219618987,-0.136038219618987
146.40900000000002,0.16079324029800335,-0.16079324029800335
146.41,0.15714440602721835,-0.15714440602721835
146.411,0.12199940746323978,-0.12199940746323978
146.412,0.062181219342578364,-0.062181219342578364
146.413,0.007375429027493663,0.007375429027493663
146.41400000000002,0.06788667784417646,0.06788667784417646
146.41500000000002,0.10210165986316144,0.10210165986316144
146.416,0.09917921628972715,0.09917921628972715
146.417,0.057659643118633364,0.057659643118633364
146.418,0.01423309212592394,-0.01423309212592394
146.419,0.10090213480587085,-0.10090213480587085
146.42000000000002,0.18350327685143797,-0.18350327685143797
146.42100000000002,0.2446431809421945,-0.2446431809421945
146.422,0.27236756110809957,-0.27236756110809957
146.423,0.2624875972097075,-0.2624875972097075
146.424,0.21885170205808557,-0.21885170205808557
146.425,0.15175959387985405,-0.15175959387985405
146.42600000000002,0.07515752868392278,-0.07515752868392278
146.42700000000002,0.003443043902731091,-0.003443043902731091
146.428,0.051361629273405596,0.051361629273405596
146.429,0.08155828793535269,0.08155828793535269
146.43,0.08464527006271605,0.08464527006271605
146.431,0.0631767241616592,0.0631767241616592
146.43200000000002,0.023822023865163633,0.023822023865163633
146.43300000000002,0.02412045803666607,-0.02412045803666607
146.434,0.07052101499639518,-0.07052101499639518
146.435,0.10631260047898772,-0.10631260047898772
146.436,0.12524613325021228,-0.12524613325021228
146.437,0.12522057958612054,-0.12522057958612054
146.43800000000002,0.10886779689934845,-0.10886779689934845
146.43900000000002,0.08312179603964043,-0.08312179603964043
146.44,0.057677268473833365,-0.057677268473833365
146.441,0.04253078748682726,-0.04253078748682726
146.442,0.045124100924156085,-0.045124100924156085
146.443,0.06785291092506862,-0.06785291092506862
146.44400000000002,0.10674776163966504,-0.10674776163966504
146.44500000000002,0.15191004353379234,-0.15191004353379234
146.446,0.18982031386870168,-0.18982031386870168
146.447,0.2070500260474346,-0.2070500260474346
146.448,0.1943888807169264,-0.1943888807169264
146.449,0.15013984360549526,-0.15013984360549526
146.45000000000002,0.08145696280033354,-0.08145696280033354
146.45100000000002,0.0031112369346129043,-0.0031112369346129043
146.452,0.06616476330330001,0.06616476330330001
146.453,0.10881574876246791,0.10881574876246791
146.454,0.11360196999810279,0.11360196999810279
146.455,0.0791487705431202,0.0791487705431202
146.45600000000002,0.014723526339382564,0.014723526339382564
146.457,0.06213297431942222,-0.06213297431942222
146.458,0.13052022768577298,-0.13052022768577298
146.459,0.17221192366834337,-0.17221192366834337
146.46,0.17698602809634778,-0.17698602809634778
146.461,0.1455989292278559,-0.1455989292278559
146.46200000000002,0.08945621987720842,-0.08945621987720842
146.463,0.02705455542001367,-0.02705455542001367
146.464,0.021717183812049345,0.021717183812049345
146.465,0.04165213606418772,0.04165213606418772
146.466,0.0267919394953533,0.0267919394953533
146.467,0.017915549824008226,-0.017915549824008226
146.46800000000002,0.07834186139983879,-0.07834186139983879
146.469,0.13569203593472856,-0.13569203593472856
146.47,0.17234700471150521,-0.17234700471150521
146.471,0.17718929022559937,-0.17718929022559937
146.472,0.14877896775553634,-0.14877896775553634
146.473,0.09547341831650935,-0.09547341831650935
146.47400000000002,0.03257682507517756,-0.03257682507517756
146.475,0.022466143541775896,0.022466143541775896
146.476,0.05525232802433844,0.05525232802433844
146.477,0.05836388455153907,0.05836388455153907
146.478,0.032945329727529504,0.032945329727529504
146.479,0.012394698740175403,-0.012394698740175403
146.48000000000002,0.06479761688543817,-0.06479761688543817
146.481,0.11129843535900685,-0.11129843535900685
146.482,0.14251772038810206,-0.14251772038810206
146.483,0.15479471233664155,-0.15479471233664155
146.484,0.15027043304242405,-0.15027043304242405
146.485,0.13515370025565787,-0.13515370025565787
146.48600000000002,0.11697941094142794,-0.11697941094142794
146.487,0.10191102581795486,-0.10191102581795486
146.488,0.09299247698065394,-0.09299247698065394
146.489,0.08980567800668637,-0.08980567800668637
146.49,0.08942746210926533,-0.08942746210926533
146.491,0.08811998013623235,-0.08811998013623235
146.49200000000002,0.08299292402696357,-0.08299292402696357
146.493,0.072994719176531,-0.072994719176531
146.494,0.05894954477944303,-0.05894954477944303
146.495,0.042795186972503396,-0.042795186972503396
146.496,0.026509202148030542,-0.026509202148030542
146.497,0.011305284097488544,-0.011305284097488544
146.49800000000002,0.0024916202653040287,0.0024916202653040287
146.499,0.014841637493800519,0.014841637493800519
146.5,0.02499267707240893,0.02499267707240893
146.501,0.030664287664908807,0.030664287664908807
146.502,0.02796981464323145,0.02796981464323145
146.503,0.01235202865467877,0.01235202865467877
146.50400000000002,0.01963472497092278,-0.01963472497092278
146.505,0.06828822402680346,-0.06828822402680346
146.506,0.12928799903676425,-0.12928799903676425
146.507,0.19352807315008203,-0.19352807315008203
146.508,0.24859973883725917,-0.24859973883725917
146.509,0.2816979695611943,-0.2816979695611943
146.51000000000002,0.28317230869710686,-0.28317230869710686
146.511,0.24962035792249526,-0.24962035792249526
146.512,0.18546591048364947,-0.18546591048364947
146.513,0.10238369872515596,-0.10238369872515596
146.514,0.016601635082033495,-0.016601635082033495
146.515,0.05519326389629642,0.05519326389629642
146.51600000000002,0.10013848824453042,0.10013848824453042
146.517,0.1123701909123811,0.1123701909123811
146.518,0.09412745101599485,0.09412745101599485
146.519,0.05448843980884943,0.05448843980884943
146.52,0.006204594017114706,0.006204594017114706
146.52100000000002,0.03829461343867535,-0.03829461343867535
146.52200000000002,0.07041239532487154,-0.07041239532487154
146.523,0.08730240586830307,-0.08730240586830307
146.524,0.09166384908214309,-0.09166384908214309
146.525,0.08963311442721011,-0.08963311442721011
146.526,0.0876481084222186,-0.0876481084222186
146.52700000000002,0.0894978627264682,-0.0894978627264682
146.52800000000002,0.09467056962591247,-0.09467056962591247
146.529,0.09861634476748937,-0.09861634476748937
146.53,0.09482491527460901,-0.09482491527460901
146.531,0.07793798271468177,-0.07793798271468177
146.532,0.046713115034074715,-0.046713115034074715
146.53300000000002,0.005674789732561969,-0.005674789732561969
146.53400000000002,0.03527516424729593,0.03527516424729593
146.535,0.06331089383718091,0.06331089383718091
146.536,0.06649354089460591,0.06649354089460591
146.537,0.037731982150120746,0.037731982150120746
146.538,0.02241538665347831,-0.02241538665347831
146.53900000000002,0.10506933537130614,-0.10506933537130614
146.54000000000002,0.19479704215413451,-0.19479704215413451
146.541,0.27335652643876374,-0.27335652643876374
146.542,0.3243344052723073,-0.3243344052723073
146.543,0.3373180417882238,-0.3373180417882238
146.544,0.31039804811762073,-0.31039804811762073
146.54500000000002,0.2503225208707194,-0.2503225208707194
146.54600000000002,0.17034308409543086,-0.17034308409543086
146.547,0.08647211158782331,-0.08647211158782331
146.548,0.013300327875431672,-0.013300327875431672
146.549,0.039416226366307594,0.039416226366307594
146.55,0.06849823232355523,0.06849823232355523
146.55100000000002,0.07706901696925872,0.07706901696925872
146.55200000000002,0.07253722293768305,0.07253722293768305
146.553,0.06359590296608375,0.06359590296608375
146.554,0.05721719630164723,0.05721719630164723
146.555,0.05653208667427578,0.05653208667427578
146.556,0.06014259133863065,0.06014259133863065
146.55700000000002,0.06294624094528123,0.06294624094528123
146.55800000000002,0.058110147842950655,0.058110147842950655
146.559,0.039538675268862455,0.039538675268862455
146.56,0.004098842447175732,0.004098842447175732
146.561,0.04700520148408538,-0.04700520148408538
146.562,0.10804622035852751,-0.10804622035852751
146.56300000000002,0.16979015307964718,-0.16979015307964718
146.56400000000002,0.22143881271991017,-0.22143881271991017
146.565,0.2530282974115491,-0.2530282974115491
146.566,0.25773655021158604,-0.25773655021158604
146.567,0.23359106651664685,-0.23359106651664685
146.568,0.18419562291721925,-0.18419562291721925
146.56900000000002,0.11828501259801127,-0.11828501259801127
146.57000000000002,0.04814200622673648,-0.04814200622673648
146.571,0.012856627659895814,0.012856627659895814
146.572,0.05309190340807812,0.05309190340807812
146.573,0.06534131988738912,0.06534131988738912
146.574,0.04856978186906691,0.04856978186906691
146.57500000000002,0.008362035888392905,0.008362035888392905
146.57600000000002,0.04423886850714087,-0.04423886850714087
146.577,0.09533794280025232,-0.09533794280025232
146.578,0.13168438580122765,-0.13168438580122765
146.579,0.14419214676318937,-0.14419214676318937
146.58,0.1305166123263325,-0.1305166123263325
146.58100000000002,0.09588911454754445,-0.09588911454754445
146.582,0.051841526359036605,-0.051841526359036605
146.583,0.013044062775215859,-0.013044062775215859
146.584,0.006936968904905916,0.006936968904905916
146.585,0.00023489112647401278,-0.00023489112647401278
146.586,0.03490405693007681,-0.03490405693007681
146.58700000000002,0.0889364244320261,-0.0889364244320261
146.588,0.14777386731414854,-0.14777386731414854
146.589,0.19452167665007603,-0.19452167665007603
146.59,0.21490241058471626,-0.21490241058471626
146.591,0.20158648332968954,-0.20158648332968954
146.592,0.15654590947351255,-0.15654590947351255
146.59300000000002,0.09065183563882573,-0.09065183563882573
146.594,0.02058133635390469,-0.02058133635390469
146.595,0.0360507440518838,0.0360507440518838
146.596,0.06584133269890335,0.06584133269890335
146.597,0.06342862081591849,0.06342862081591849
146.598,0.03280914521537093,0.03280914521537093
146.59900000000002,0.014248348596285765,-0.014248348596285765
146.6,0.06214788725188114,-0.06214788725188114
146.601,0.09646583157241484,-0.09646583157241484
146.602,0.10837117212072123,-0.10837117212072123
146.603,0.09704646266612404,-0.09704646266612404
146.604,0.06937631098711983,-0.06937631098711983
146.60500000000002,0.037098706184877206,-0.037098706184877206
146.606,0.012468052899653803,-0.012468052899653803
146.607,0.0039654040199109675,-0.0039654040199109675
146.608,0.013544129540956074,-0.013544129540956074
146.609,0.03633561863325152,-0.03633561863325152
146.61,0.06285691631909773,-0.06285691631909773
146.61100000000002,0.08287008861977152,-0.08287008861977152
146.612,0.08945589211528981,-0.08945589211528981
146.613,0.08179053023332084,-0.08179053023332084
146.614,0.06558234294861176,-0.06558234294861176
146.615,0.05097193534659328,-0.05097193534659328
146.616,0.0486255075364701,-0.0486255075364701
146.61700000000002,0.06542679533277218,-0.06542679533277218
146.618,0.1013533131651273,-0.1013533131651273
146.619,0.14873588748150868,-0.14873588748150868
146.62,0.19427565773606215,-0.19427565773606215
146.621,0.22321589936613906,-0.22321589936613906
146.622,0.22428115234063384,-0.22428115234063384
146.62300000000002,0.19368417639788504,-0.19368417639788504
146.624,0.13678024926402188,-0.13678024926402188
146.625,0.06672996016571864,-0.06672996016571864
146.626,0.0005500606110460105,-0.0005500606110460105
146.627,0.04616476491738508,0.04616476491738508
146.628,0.06409354659425359,0.06409354659425359
146.62900000000002,0.05298443537534636,0.05298443537534636
146.63,0.021450443987770296,0.021450443987770296
146.631,0.01616457668515492,-0.01616457668515492
146.632,0.04478681690184649,-0.04478681690184649
146.633,0.05378588737631462,-0.05378588737631462
146.634,0.04057311346261672,-0.04057311346261672
146.63500000000002,0.011419180532061257,-0.011419180532061257
146.636,0.02076519275527633,0.02076519275527633
146.637,0.04091261701529114,0.04091261701529114
146.638,0.03701660039312138,0.03701660039312138
146.639,0.004324492767886712,0.004324492767886712
146.64,0.05288289811993929,-0.05288289811993929
146.64100000000002,0.12248010189845748,-0.12248010189845748
146.642,0.18820502365985237,-0.18820502365985237
146.643,0.23460852746417837,-0.23460852746417837
146.644,0.25159395426116393,-0.25159395426116393
146.645,0.2370915188916597,-0.2370915188916597
146.64600000000002,0.1970953463053886,-0.1970953463053886
146.64700000000002,0.1432093944956362,-0.1432093944956362
146.648,0.08867715023253642,-0.08867715023253642
146.649,0.04432433638408895,-0.04432433638408895
146.65,0.015779735468102185,-0.015779735468102185
146.651,0.0028000719174227084,-0.0028000719174227084
146.65200000000002,0.0007215495556316398,-0.0007215495556316398
146.65300000000002,0.0032917602584375816,-0.0032917602584375816
146.654,0.0056783002708866714,-0.0056783002708866714
146.655,0.0064604681873705605,-0.0064604681873705605
146.656,0.007868743776450637,-0.007868743776450637
146.657,0.01425965137226215,-0.01425965137226215
146.65800000000002,0.029523024811073606,-0.029523024811073606
146.65900000000002,0.054545941915627894,-0.054545941915627894
146.66,0.08584260300251256,-0.08584260300251256
146.661,0.11600915774240783,-0.11600915774240783
146.662,0.13594758532806384,-0.13594758532806384
146.663,0.13809384687268322,-0.13809384687268322
146.66400000000002,0.11945279490462357,-0.11945279490462357
146.66500000000002,0.08325494072650941,-0.08325494072650941
146.666,0.0385128583316241,-0.0385128583316241
146.667,0.0024952928784545136,0.0024952928784545136
146.668,0.028023237900539844,0.028023237900539844
146.669,0.03064653968330111,0.03064653968330111
146.67000000000002,0.009716551085807268,0.009716551085807268
146.67100000000002,0.028408827482507948,-0.028408827482507948
146.672,0.0724731852852305,-0.0724731852852305
146.673,0.11005614199823399,-0.11005614199823399
146.674,0.13163692341377464,-0.13163692341377464
146.675,0.13356271754259252,-0.13356271754259252
146.67600000000002,0.11888198534818561,-0.11888198534818561
146.67700000000002,0.0957669573264317,-0.0957669573264317
146.678,0.07412211697688709,-0.07412211697688709
146.679,0.06164184188291255,-0.06164184188291255
146.68,0.06079527327613654,-0.06079527327613654
146.681,0.06789377168993338,-0.06789377168993338
146.68200000000002,0.07464274612673916,-0.07464274612673916
146.68300000000002,0.07165985354718996,-0.07165985354718996
146.684,0.05268583266016269,-0.05268583266016269
146.685,0.017901187684713382,-0.017901187684713382
146.686,0.024982300530252077,0.024982300530252077
146.687,0.062436301910181013,0.062436301910181013
146.68800000000002,0.07922686782129373,0.07922686782129373
146.68900000000002,0.06362477018018353,0.06362477018018353
146.69,0.011953728382832596,0.011953728382832596
146.691,0.06915033837653306,-0.06915033837653306
146.692,0.16369000376978682,-0.16369000376978682
146.693,0.25033871583911216,-0.25033871583911216
146.69400000000002,0.30838611226082113,-0.30838611226082113
146.69500000000002,0.3237520538283144,-0.3237520538283144
146.696,0.29315228440942454,-0.29315228440942454
146.697,0.225063680943128,-0.225063680943128
146.698,0.13715861949593322,-0.13715861949593322
146.699,0.05101775851515067,-0.05101775851515067
146.70000000000002,0.01419239196678479,0.01419239196678479
146.70100000000002,0.04707036930372088,0.04707036930372088
146.702,0.04669534519827101,0.04669534519827101
146.703,0.02193261770140964,0.02193261770140964
146.704,0.012312166565756733,-0.012312166565756733
146.705,0.04053577202423375,-0.04053577202423375
146.70600000000002,0.051899123602331954,-0.051899123602331954
146.707,0.04354913878718547,-0.04354913878718547
146.708,0.02095452162775635,-0.02095452162775635
146.709,0.004735320033269819,0.004735320033269819
146.71,0.021267444656838164,0.021267444656838164
146.711,0.020104707475423478,0.020104707475423478
146.71200000000002,0.00025966410936417716,-0.00025966410936417716
146.713,0.03367914404429162,-0.03367914404429162
146.714,0.06863593114897104,-0.06863593114897104
146.715,0.09259616385510017,-0.09259616385510017
146.716,0.09685616110588713,-0.09685616110588713
146.717,0.08010517525998573,-0.08010517525998573
146.71800000000002,0.0493653565035842,-0.0493653565035842
146.719,0.017883741931449815,-0.017883741931449815
146.72,0.000628234413414086,-0.000628234413414086
146.721,0.008905351727780952,-0.008905351727780952
146.722,0.04596818572022565,-0.04596818572022565
146.723,0.10519037829500466,-0.10519037829500466
146.72400000000002,0.17153860937783305,-0.17153860937783305
146.725,0.22596491292581133,-0.22596491292581133
146.726,0.25133824996797693,-0.25133824996797693
146.727,0.23798519158276332,-0.23798519158276332
146.728,0.18700388810577917,-0.18700388810577917
146.729,0.11022784054819756,-0.11022784054819756
146.73000000000002,0.02681080869888619,-0.02681080869888619
146.731,0.04248456200909301,0.04248456200909301
146.732,0.08145704063311787,0.08145704063311787
146.733,0.08311393584610482,0.08311393584610482
146.734,0.051326497937385085,0.051326497937385085
146.735,0.0009765321332914079,-0.0009765321332914079
146.73600000000002,0.05640058813926918,-0.05640058813926918
146.737,0.09887613496386616,-0.09887613496386616
146.738,0.11869514893211608,-0.11869514893211608
146.739,0.11513423031952175,-0.11513423031952175
146.74,0.0958577054438442,-0.0958577054438442
146.741,0.07341096610774644,-0.07341096610774644
146.74200000000002,0.06011341461723152,-0.06011341461723152
146.743,0.06320040728812382,-0.06320040728812382
146.744,0.08196039282285317,-0.08196039282285317
146.745,0.10790300613335935,-0.10790300613335935
146.746,0.12792043745833181,-0.12792043745833181
146.747,0.12933766323619078,-0.12933766323619078
146.74800000000002,0.10505648400544454,-0.10505648400544454
146.749,0.05692654512389628,-0.05692654512389628
146.75,0.003944082350544553,0.003944082350544553
146.751,0.060186565850913754,0.060186565850913754
146.752,0.09357631049378967,0.09357631049378967
146.753,0.09107977389033595,0.09107977389033595
146.75400000000002,0.04949890221140851,0.04949890221140851
146.755,0.022917081576178222,-0.022917081576178222
146.756,0.10854353249163151,-0.10854353249163151
146.757,0.18556346077512675,-0.18556346077512675
146.758,0.2346310657973002,-0.2346310657973002
146.759,0.24485201231930487,-0.24485201231930487
146.76000000000002,0.21709853116864708,-0.21709853116864708
146.761,0.16352621678207224,-0.16352621678207224
146.762,0.10340294262177496,-0.10340294262177496
146.763,0.05658985527860638,-0.05658985527860638
146.764,0.03681931762939761,-0.03681931762939761
146.765,0.047019405576744555,-0.047019405576744555
146.76600000000002,0.07829223264275453,-0.07829223264275453
146.767,0.11296441533904311,-0.11296441533904311
146.768,0.1307769839293268,-0.1307769839293268
146.769,0.1162128898709005,-0.1162128898709005
146.77,0.06453044168989897,-0.06453044168989897
146.77100000000002,0.01556712644482916,0.01556712644482916
146.77200000000002,0.1036472744407777,0.1036472744407777
146.773,0.17326603156628573,0.17326603156628573
146.774,0.1999958597346001,0.1999958597346001
146.775,0.16928168742525762,0.16928168742525762
146.776,0.08163448601930323,0.08163448601930323
146.77700000000002,0.046544650172310464,-0.046544650172310464
146.77800000000002,0.1868833918129833,-0.1868833918129833
146.779,0.30660909232203737,-0.30660909232203737
146.78,0.3775470616568861,-0.3775470616568861
146.781,0.38387473123681115,-0.38387473123681115
146.782,0.32633828160899625,-0.32633828160899625
146.78300000000002,0.22171828865597643,-0.22171828865597643
146.78400000000002,0.09777067560056851,-0.09777067560056851
146.785,0.014781760835860247,0.014781760835860247
146.786,0.09078852884962108,0.09078852884962108
146.787,0.1172334860561457,0.1172334860561457
146.788,0.09598505435283311,0.09598505435283311
146.78900000000002,0.04210571627266391,0.04210571627266391
146.79000000000002,0.021557929827665467,-0.021557929827665467
146.791,0.07170867112949608,-0.07170867112949608
146.792,0.09157908132966974,-0.09157908132966974
146.793,0.07551543698226726,-0.07551543698226726
146.794,0.029961440373883597,-0.029961440373883597
146.79500000000002,0.02920728698153141,0.02920728698153141
146.79600000000002,0.08195153908536379,0.08195153908536379
146.797,0.11019131110168723,0.11019131110168723
146.798,0.10291638627593924,0.10291638627593924
146.799,0.05887759268575565,0.05887759268575565
146.8,0.013699031264366779,-0.013699031264366779
146.80100000000002,0.09999124409880888,-0.09999124409880888
146.80200000000002,0.18293826424445758,-0.18293826424445758
146.803,0.2476532681537138,-0.2476532681537138
146.804,0.2846343103676675,-0.2846343103676675
146.805,0.29105615701501153,-0.29105615701501153
146.806,0.270118564005019,-0.270118564005019
146.80700000000002,0.2290270800437234,-0.2290270800437234
146.80800000000002,0.17650129028672445,-0.17650129028672445
146.809,0.12067093653680883,-0.12067093653680883
146.81,0.06789300405646326,-0.06789300405646326
146.811,0.0225616384920595,-0.0225616384920595
146.812,0.012421321584824119,0.012421321584824119
146.81300000000002,0.03504472496600086,0.03504472496600086
146.81400000000002,0.04392046963436602,0.04392046963436602
146.815,0.03854264321586531,0.03854264321586531
146.816,0.019921167294396858,0.019921167294396858
146.817,0.008821975154670425,-0.008821975154670425
146.818,0.04236324648878198,-0.04236324648878198
146.81900000000002,0.07389024375233677,-0.07389024375233677
146.82000000000002,0.09657639769254356,-0.09657639769254356
146.821,0.10541966695363403,-0.10541966695363403
146.822,0.09882046229363706,-0.09882046229363706
146.823,0.07928350906036219,-0.07928350906036219
146.824,0.052887457766692236,-0.052887457766692236
146.82500000000002,0.02758837308577411,-0.02758837308577411
146.82600000000002,0.010853458262455207,-0.010853458262455207
146.827,0.007393801493468355,-0.007393801493468355
146.828,0.01776750194801069,-0.01776750194801069
146.829,0.03834388335700967,-0.03834388335700967
146.83,0.06264939331746366,-0.06264939331746366
146.83100000000002,0.08362484720815377,-0.08362484720815377
146.832,0.09599378016956528,-0.09599378016956528
146.833,0.09789958688960221,-0.09789958688960221
146.834,0.09123713215598417,-0.09123713215598417
146.835,0.08058907880350985,-0.08058907880350985
146.836,0.07120098878384429,-0.07120098878384429
146.83700000000002,0.06679564254938064,-0.06679564254938064
146.838,0.06809351363291083,-0.06809351363291083
146.839,0.07263993737647889,-0.07263993737647889
146.84,0.07603253471810367,-0.07603253471810367
146.841,0.07408174571654136,-0.07408174571654136
146.842,0.0650370281279723,-0.0650370281279723
146.84300000000002,0.050933000147444285,-0.050933000147444285
146.844,0.037399651359175334,-0.037399651359175334
146.845,0.03184711975565435,-0.03184711975565435
146.846,0.04057748628476743,-0.04057748628476743
146.847,0.06585344091081213,-0.06585344091081213
146.848,0.10407485719569876,-0.10407485719569876
146.84900000000002,0.14590956193334503,-0.14590956193334503
146.85,0.17857796015320515,-0.17857796015320515
146.851,0.1897173936966886,-0.1897173936966886
146.852,0.17162480389879742,-0.17162480389879742
146.853,0.12443173058295587,-0.12443173058295587
146.854,0.057015955067799995,-0.057015955067799995
146.85500000000002,0.014859005646156387,0.014859005646156387
146.856,0.07277734723293738,0.07277734723293738
146.857,0.10105266007849667,0.10105266007849667
146.858,0.09157883967275504,0.09157883967275504
146.859,0.0465605867818788,0.0465605867818788
146.86,0.02184096713598893,-0.02184096713598893
146.86100000000002,0.09494240200441573,-0.09494240200441573
146.862,0.15304748431627369,-0.15304748431627369
146.863,0.18133189507256708,-0.18133189507256708
146.864,0.17425008595060576,-0.17425008595060576
146.865,0.13706192713440657,-0.13706192713440657
146.866,0.08399113776064349,-0.08399113776064349
146.86700000000002,0.03360814052967964,-0.03360814052967964
146.868,0.002921396518575259,-0.002921396518575259
146.869,0.0020688853674343255,-0.0020688853674343255
146.87,0.03129103734824201,-0.03129103734824201
146.871,0.0811097622983078,-0.0811097622983078
146.872,0.1355884989634042,-0.1355884989634042
146.87300000000002,0.17755454319586794,-0.17755454319586794
146.874,0.19405444375555736,-0.19405444375555736
146.875,0.1802814368101494,-0.1802814368101494
146.876,0.14076029268802615,-0.14076029268802615
146.877,0.08750608541368698,-0.08750608541368698
146.878,0.03587098364975427,-0.03587098364975427
146.87900000000002,0.00047627058041777026,0.00047627058041777026
146.88,0.013765695763717556,0.013765695763717556
146.881,0.004198993261044226,0.004198993261044226
146.882,0.02068997706034048,-0.02068997706034048
146.883,0.049031298192171335,-0.049031298192171335
146.884,0.06884936054222768,-0.06884936054222768
146.88500000000002,0.07205129901517593,-0.07205129901517593
146.886,0.05685924757422178,-0.05685924757422178
146.887,0.027972516135963965,-0.027972516135963965
146.888,0.0054408259396629965,0.0054408259396629965
146.889,0.033087419176471844,0.033087419176471844
146.89,0.0469848751512707,0.0469848751512707
146.89100000000002,0.043798069652583704,0.043798069652583704
146.892,0.025349895781039633,0.025349895781039633
146.893,0.0027189944824713708,-0.0027189944824713708
146.894,0.03349459349058925,-0.03349459349058925
146.895,0.061487947756331485,-0.061487947756331485
146.89600000000002,0.08443942503448376,-0.08443942503448376
146.89700000000002,0.10357311559234617,-0.10357311559234617
146.898,0.12227204923779078,-0.12227204923779078
146.899,0.14376725239851174,-0.14376725239851174
146.9,0.1688204330851446,-0.1688204330851446
146.901,0.1943902149468255,-0.1943902149468255
146.90200000000002,0.2139044551404854,-0.2139044551404854
146.90300000000002,0.21915376047483592,-0.21915376047483592
146.904,0.20319801989790387,-0.20319801989790387
146.905,0.1632672589094668,-0.1632672589094668
146.906,0.10259096658029321,-0.10259096658029321
146.907,0.03042539390891208,-0.03042539390891208
146.90800000000002,0.03985155627730297,0.03985155627730297
146.90900000000002,0.0940543492376793,0.0940543492376793
146.91,0.12090975057536513,0.12090975057536513
146.911,0.11503887746292518,0.11503887746292518
146.912,0.07829926121825492,0.07829926121825492
146.913,0.019119390904611677,0.019119390904611677
146.91400000000002,0.04990263579644605,-0.04990263579644605
146.91500000000002,0.11533941418277338,-0.11533941418277338
146.916,0.16617636035318395,-0.16617636035318395
146.917,0.19602951878279617,-0.19602951878279617
146.918,0.20381700678052828,-0.20381700678052828
146.919,0.19290305730068136,-0.19290305730068136
146.92000000000002,0.1692169292505078,-0.1692169292505078
146.92100000000002,0.13911257644439623,-0.13911257644439623
146.922,0.10770562650253657,-0.10770562650253657
146.923,0.07813879007107116,-0.07813879007107116
146.924,0.05181260638968754,-0.05181260638968754
146.925,0.029241161527373105,-0.029241161527373105
146.92600000000002,0.010992379257616536,-0.010992379257616536
146.92700000000002,0.0017869734171593876,0.0017869734171593876
146.928,0.00751420272628045,0.00751420272628045
146.929,0.0048938967463199035,0.0048938967463199035
146.93,0.006153648217237961,-0.006153648217237961
146.931,0.023848900555737518,-0.023848900555737518
146.93200000000002,0.04458072319774142,-0.04458072319774142
146.93300000000002,0.06371247397368807,-0.06371247397368807
146.934,0.07693547146973467,-0.07693547146973467
146.935,0.08168156477531585,-0.08168156477531585
146.936,0.07804010925222571,-0.07804010925222571
146.937,0.06878301537060472,-0.06878301537060472
146.93800000000002,0.05842883550187927,-0.05842883550187927
146.93900000000002,0.051648017268491664,-0.051648017268491664
146.94,0.0515804328675078,-0.0515804328675078
146.941,0.05869322387356146,-0.05869322387356146
146.942,0.07062217931850023,-0.07062217931850023
146.943,0.08307731073945257,-0.08307731073945257
146.94400000000002,0.09148813383370868,-0.09148813383370868
146.94500000000002,0.09277199923445978,-0.09277199923445978
146.946,0.08654597393336805,-0.08654597393336805
146.947,0.07530039117342069,-0.07530039117342069
146.948,0.06344188813788243,-0.06344188813788243
146.949,0.05555119176381362,-0.05555119176381362
146.95000000000002,0.0545189887697175,-0.0545189887697175
146.95100000000002,0.060295365393624345,-0.060295365393624345
146.952,0.06977806209111992,-0.06977806209111992
146.953,0.07794245626081198,-0.07794245626081198
146.954,0.0798354588397927,-0.0798354588397927
146.955,0.07269789612377442,-0.07269789612377442
146.95600000000002,0.05738705230029417,-0.05738705230029417
146.957,0.038489857306359565,-0.038489857306359565
146.958,0.022979206490148396,-0.022979206490148396
146.959,0.017808740300731873,-0.017808740300731873
146.96,0.027266158299937615,-0.027266158299937615
146.961,0.051048813741840005,-0.051048813741840005
146.96200000000002,0.08382229049401457,-0.08382229049401457
146.963,0.11653189998177027,-0.11653189998177027
146.964,0.1391245453095028,-0.1391245453095028
146.965,0.14381998615766545,-0.14381998615766545
146.966,0.12783507371783487,-0.12783507371783487
146.967,0.09460516502430605,-0.09460516502430605
146.96800000000002,0.05302538698292758,-0.05302538698292758
146.969,0.014891840092034148,-0.014891840092034148
146.97,0.00866594417921207,0.00866594417921207
146.971,0.010617589102706937,0.010617589102706937
146.972,0.009782975097514468,-0.009782975097514468
146.973,0.046765342193189396,-0.046765342193189396
146.97400000000002,0.08982501228168371,-0.08982501228168371
146.975,0.12692186647860482,-0.12692186647860482
146.976,0.1480458869443818,-0.1480458869443818
146.977,0.1480115660627327,-0.1480115660627327
146.978,0.12763720031808423,-0.12763720031808423
146.979,0.09303387758286785,-0.09303387758286785
146.98000000000002,0.05336723695316559,-0.05336723695316559
146.981,0.017939030603607686,-0.017939030603607686
146.982,0.006398458919969485,0.006398458919969485
146.983,0.01667972368840509,0.01667972368840509
146.984,0.013774558238383028,0.013774558238383028
146.985,0.001075003804542174,0.001075003804542174
146.98600000000002,0.017404934292016505,-0.017404934292016505
146.987,0.0386786775097131,-0.0386786775097131
146.988,0.061519679587336284,-0.061519679587336284
146.989,0.08604339308626052,-0.08604339308626052
146.99,0.11242138490186426,-0.11242138490186426
146.991,0.13940428252261472,-0.13940428252261472
146.99200000000002,0.1634411707109884,-0.1634411707109884
146.993,0.1789600445244508,-0.1789600445244508
146.994,0.17989659942994063,-0.17989659942994063
146.995,0.16200946565602226,-0.16200946565602226
146.996,0.12511682030120808,-0.12511682030120808
146.997,0.0743028118320721,-0.0743028118320721
146.99800000000002,0.01942879368567063,-0.01942879368567063
146.999,0.02714012979228797,0.02714012979228797
147.0,0.05401734288800464,0.05401734288800464
147.001,0.0543991619617743,0.0543991619617743
147.002,0.02855021673476643,0.02855021673476643
147.003,0.015788598659899233,-0.015788598659899233
147.00400000000002,0.06538106974631475,-0.06538106974631475
147.005,0.10537518434218951,-0.10537518434218951
147.006,0.12390958032918742,-0.12390958032918742
147.007,0.1159602248727506,-0.1159602248727506
147.008,0.08511976510358088,-0.08511976510358088
147.009,0.04263561206499111,-0.04263561206499111
147.01000000000002,0.003921676651715278,-0.003921676651715278
147.011,0.01639178077919179,0.01639178077919179
147.012,0.009285996264280838,0.009285996264280838
147.013,0.025528869092878548,-0.025528869092878548
147.014,0.07926803340765942,-0.07926803340765942
147.015,0.13666702652684182,-0.13666702652684182
147.01600000000002,0.1807203862490646,-0.1807203862490646
147.017,0.19805033428276742,-0.19805033428276742
147.018,0.1831667268238003,-0.1831667268238003
147.019,0.14022746068841707,-0.14022746068841707
147.02,0.08171867928935961,-0.08171867928935961
147.02100000000002,0.024480364700781965,-0.024480364700781965
147.02200000000002,0.01562805888297225,0.01562805888297225
147.023,0.028684366843608533,0.028684366843608533
147.024,0.013674709839180288,0.013674709839180288
147.025,0.02146886285245253,-0.02146886285245253
147.026,0.06274346933722885,-0.06274346933722885
147.02700000000002,0.09488506233121352,-0.09488506233121352
147.02800000000002,0.10650662650508924,-0.10650662650508924
147.029,0.09386518690583223,-0.09386518690583223
147.03,0.06202572252477179,-0.06202572252477179
147.031,0.02306026382932702,-0.02306026382932702
147.032,0.008097704235246805,0.008097704235246805
147.03300000000002,0.01875458729066115,0.01875458729066115
147.03400000000002,0.002819896887322315,0.002819896887322315
147.035,0.037008386911054014,-0.037008386911054014
147.036,0.08995249768052727,-0.08995249768052727
147.037,0.14052324672714034,-0.14052324672714034
147.038,0.17344915865141286,-0.17344915865141286
147.03900000000002,0.17856896763099905,-0.17856896763099905
147.04000000000002,0.15411386678618433,-0.15411386678618433
147.041,0.10733608987924059,-0.10733608987924059
147.042,0.05229772642817132,-0.05229772642817132
147.043,0.005537278052618166,-0.005537278052618166
147.044,0.019008045455993994,0.019008045455993994
147.04500000000002,0.014233643583231315,0.014233643583231315
147.04600000000002,0.018046136606412633,-0.018046136606412633
147.047,0.06776321945056818,-0.06776321945056818
147.048,0.1197551081424365,-0.1197551081424365
147.049,0.15839953982731114,-0.15839953982731114
147.05,0.17228063068992594,-0.17228063068992594
147.05100000000002,0.1574739781078237,-0.1574739781078237
147.05200000000002,0.11850013848721597,-0.11850013848721597
147.053,0.06673085212242469,-0.06673085212242469
147.054,0.016805660713194892,-0.016805660713194892
147.055,0.017807631838512084,0.017807631838512084
147.056,0.028761521678169588,0.028761521678169588
147.05700000000002,0.015134894551302125,0.015134894551302125
147.05800000000002,0.016527797329703997,-0.016527797329703997
147.059,0.05438237938985879,-0.05438237938985879
147.06,0.08495741001151114,-0.08495741001151114
147.061,0.09722979844627933,-0.09722979844627933
147.062,0.08592937632485897,-0.08592937632485897
147.06300000000002,0.053161563794225875,-0.053161563794225875
147.06400000000002,0.007939686044974414,-0.007939686044974414
147.065,0.03619498408649302,0.03619498408649302
147.066,0.06478265444140607,0.06478265444140607
147.067,0.06630773156555181,0.06630773156555181
147.068,0.035317730383433554,0.035317730383433554
147.06900000000002,0.025963988254316783,-0.025963988254316783
147.07000000000002,0.10788529236750244,-0.10788529236750244
147.071,0.19536057739730373,-0.19536057739730373
147.072,0.2710995299236665,-0.2710995299236665
147.073,0.3193030144589619,-0.3193030144589619
147.074,0.3290021322568588,-0.3290021322568588
147.07500000000002,0.2963448077561255,-0.2963448077561255
147.07600000000002,0.22539966767999053,-0.22539966767999053
147.077,0.1273776432700211,-0.1273776432700211
147.078,0.018492445447670258,-0.018492445447670258
147.079,0.08307028674958583,0.08307028674958583
147.08,0.16046771466230014,0.16046771466230014
147.08100000000002,0.20117692641628637,0.20117692641628637
147.082,0.1991115065546516,0.1991115065546516
147.083,0.15553710724090686,0.15553710724090686
147.084,0.07867355946925092,0.07867355946925092
147.085,0.01789669269671479,-0.01789669269671479
147.086,0.11769528473523572,-0.11769528473523572
147.08700000000002,0.20423548521213963,-0.20423548521213963
147.088,0.26382185657767965,-0.26382185657767965
147.089,0.28778507359541505,-0.28778507359541505
147.09,0.2737848860035682,-0.2737848860035682
147.091,0.22598245085402702,-0.22598245085402702
147.092,0.15408140143325066,-0.15408140143325066
147.09300000000002,0.07143236176516976,-0.07143236176516976
147.094,0.0074439996746873405,0.0074439996746873405
147.095,0.06946171312964222,0.06946171312964222
147.096,0.10522910202919356,0.10522910202919356
147.097,0.11055541124390755,0.11055541124390755
147.098,0.08693741825885448,0.08693741825885448
147.09900000000002,0.04095291322899963,0.04095291322899963
147.1,0.0172988566482839,-0.0172988566482839
147.101,0.07637790868098893,-0.07637790868098893
147.102,0.12584379477821184,-0.12584379477821184
147.103,0.15825801868035005,-0.15825801868035005
147.104,0.17042406453508585,-0.17042406453508585
147.10500000000002,0.1636130940369308,-0.1636130940369308
147.106,0.1427615334532829,-0.1427615334532829
147.107,0.11487603075161934,-0.11487603075161934
147.108,0.08707845649887747,-0.08707845649887747
147.109,0.06481322882075224,-0.06481322882075224
147.11,0.05069024923156984,-0.05069024923156984
147.11100000000002,0.04425477701230196,-0.04425477701230196
147.112,0.04270556791110891,-0.04270556791110891
147.113,0.042299470676054884,-0.042299470676054884
147.114,0.039969286221459344,-0.039969286221459344
147.115,0.034611209104641105,-0.034611209104641105
147.116,0.027598499557548895,-0.027598499557548895
147.11700000000002,0.022326588002148595,-0.022326588002148595
147.118,0.022919223608310668,-0.022919223608310668
147.119,0.032522954439573426,-0.032522954439573426
147.12,0.051786918504990065,-0.051786918504990065
147.121,0.07810074605707962,-0.07810074605707962
147.122,0.10593989683462579,-0.10593989683462579
147.12300000000002,0.12830673515357804,-0.12830673515357804
147.124,0.1388703844835839,-0.1388703844835839
147.125,0.13412919452564964,-0.13412919452564964
147.126,0.11485059161641009,-0.11485059161641009
147.127,0.08622442730901891,-0.08622442730901891
147.128,0.05655545821760266,-0.05655545821760266
147.12900000000002,0.034801781392104436,-0.034801781392104436
147.13,0.027682433191370315,-0.027682433191370315
147.131,0.037282930104337586,-0.037282930104337586
147.132,0.05999716998200688,-0.05999716998200688
147.133,0.08726666157457375,-0.08726666157457375
147.134,0.10801956035108573,-0.10801956035108573
147.13500000000002,0.11214616267001876,-0.11214616267001876
147.136,0.09396142398039597,-0.09396142398039597
147.137,0.0545372093646852,-0.0545372093646852
147.138,0.0020782437946487153,-0.0020782437946487153
147.139,0.0499093896406273,0.0499093896406273
147.14,0.08622241462814628,0.08622241462814628
147.14100000000002,0.09432234853959187,0.09432234853959187
147.142,0.0681578632407045,0.0681578632407045
147.143,0.010266952168938914,0.010266952168938914
147.144,0.06852950491532339,-0.06852950491532339
147.145,0.15181029094599863,-0.15181029094599863
147.14600000000002,0.22185469048492856,-0.22185469048492856
147.14700000000002,0.2643045679520075,-0.2643045679520075
147.148,0.271819032618552,-0.271819032618552
147.149,0.24566754647798783,-0.24566754647798783
147.15,0.1948491431329511,-0.1948491431329511
147.151,0.13308938930200742,-0.13308938930200742
147.15200000000002,0.0747078560200709,-0.0747078560200709
147.15300000000002,0.030662683884373987,-0.030662683884373987
147.154,0.0059687200177668265,-0.0059687200177668265
147.155,0.0008052589016054323,0.0008052589016054323
147.156,0.004041477893498402,-0.004041477893498402
147.157,0.012321984988553747,-0.012321984988553747
147.15800000000002,0.017234836677531118,-0.017234836677531118
147.15900000000002,0.015777591528982615,-0.015777591528982615
147.16,0.009499120234523595,-0.009499120234523595
147.161,0.00340704219505239,-0.00340704219505239
147.162,0.0035134616834456844,-0.0035134616834456844
147.163,0.013986416802268975,-0.013986416802268975
147.16400000000002,0.035008696019065866,-0.035008696019065866
147.16500000000002,0.06218470791841757,-0.06218470791841757
147.166,0.08777208455472141,-0.08777208455472141
147.167,0.10334544237883625,-0.10334544237883625
147.168,0.10296050396617418,-0.10296050396617418
147.169,0.08566925829744376,-0.08566925829744376
147.17000000000002,0.05642265943194136,-0.05642265943194136
147.17100000000002,0.024929295476352586,-0.024929295476352586
147.172,0.0027389410918697843,-0.0027389410918697843
147.173,0.0005491673154922605,0.0005491673154922605
147.174,0.01928993704470261,-0.01928993704470261
147.175,0.0592268954988332,-0.0592268954988332
147.17600000000002,0.1093522149625693,-0.1093522149625693
147.17700000000002,0.15549973071217194,-0.15549973071217194
147.178,0.18338075499278927,-0.18338075499278927
147.179,0.18297943401795835,-0.18297943401795835
147.18,0.1518412157098692,-0.1518412157098692
147.181,0.09620244380541298,-0.09620244380541298
147.18200000000002,0.029561614598434538,-0.029561614598434538
147.18300000000002,0.030924746901301203,0.030924746901301203
147.184,0.06917337099742293,0.06917337099742293
147.185,0.07464400953900996,0.07464400953900996
147.186,0.04524568177681432,0.04524568177681432
147.187,0.012142451027030043,-0.012142451027030043
147.18800000000002,0.08363970403559073,-0.08363970403559073
147.18900000000002,0.15219641841194864,-0.15219641841194864
147.19,0.20214542092591758,-0.20214542092591758
147.191,0.22316732905899295,-0.22316732905899295
147.192,0.21259651820311942,-0.21259651820311942
147.193,0.17552931489712087,-0.17552931489712087
147.19400000000002,0.12285671179331659,-0.12285671179331659
147.19500000000002,0.06792559419772426,-0.06792559419772426
147.196,0.022867135647313352,-0.022867135647313352
147.197,0.0043627529139969035,0.0043627529139969035
147.198,0.011484017403509572,0.011484017403509572
147.199,0.0016749678682064228,0.0016749678682064228
147.20000000000002,0.018106868854402047,-0.018106868854402047
147.20100000000002,0.03962126318675219,-0.03962126318675219
147.202,0.05585636609484679,-0.05585636609484679
147.203,0.06284413033217595,-0.06284413033217595
147.204,0.06035696721568207,-0.06035696721568207
147.205,0.05143563720465438,-0.05143563720465438
147.20600000000002,0.04103649732711756,-0.04103649732711756
147.207,0.03429502851558153,-0.03429502851558153
147.208,0.034939915149831746,-0.034939915149831746
147.209,0.04427349370526401,-0.04427349370526401
147.21,0.060919793424841884,-0.060919793424841884
147.211,0.08130849954456476,-0.08130849954456476
147.21200000000002,0.1006804701681725,-0.1006804701681725
147.213,0.11430746544069736,-0.11430746544069736
147.214,0.11861983639982254,-0.11861983639982254
147.215,0.11200718342993021,-0.11200718342993021
147.216,0.09516154582035175,-0.09516154582035175
147.217,0.07093680746479603,-0.07093680746479603
147.21800000000002,0.0437817492344178,-0.0437817492344178
147.219,0.018863181760011782,-0.018863181760011782
147.22,0.0010351225291249655,-0.0010351225291249655
147.221,0.006164430396901732,0.006164430396901732
147.222,0.0012974509543457469,0.0012974509543457469
147.223,0.014585979254377768,-0.014585979254377768
147.22400000000002,0.03807909384996011,-0.03807909384996011
147.225,0.06409741490030474,-0.06409741490030474
147.226,0.08700513998324366,-0.08700513998324366
147.227,0.10195733987927669,-0.10195733987927669
147.228,0.10613290747919224,-0.10613290747919224
147.229,0.09951762733139935,-0.09951762733139935
147.23000000000002,0.08498087065659543,-0.08498087065659543
147.231,0.06756439686177829,-0.06756439686177829
147.232,0.053125278268084,-0.053125278268084
147.233,0.04668115858336863,-0.04668115858336863
147.234,0.05092558746630371,-0.05092558746630371
147.235,0.06536546242406249,-0.06536546242406249
147.23600000000002,0.08637329269333138,-0.08637329269333138
147.237,0.10818305415764096,-0.10818305415764096
147.238,0.12456716768821496,-0.12456716768821496
147.239,0.13070610775367508,-0.13070610775367508
147.24,0.12467875703401943,-0.12467875703401943
147.241,0.10809609150074873,-0.10809609150074873
147.24200000000002,0.08565179887907282,-0.08565179887907282
147.243,0.06369726210804016,-0.06369726210804016
147.244,0.04826083880722043,-0.04826083880722043
147.245,0.04312118568565548,-0.04312118568565548
147.246,0.04854643444861473,-0.04854643444861473
147.247,0.061118999834618326,-0.061118999834618326
147.24800000000002,0.07473575261553178,-0.07473575261553178
147.249,0.08250681764692303,-0.08250681764692303
147.25,0.07898841929253819,-0.07898841929253819
147.251,0.06206765405412684,-0.06206765405412684
147.252,0.03390854286622258,-0.03390854286622258
147.253,0.0006424733395652416,-0.0006424733395652416
147.25400000000002,0.029141426402916615,0.029141426402916615
147.255,0.0466931235983683,0.0466931235983683
147.256,0.04553865674933966,0.04553865674933966
147.257,0.023367792703459234,0.023367792703459234
147.258,0.01715852314274069,-0.01715852314274069
147.259,0.06890374027351276,-0.06890374027351276
147.26000000000002,0.12191369913722194,-0.12191369913722194
147.261,0.16578417635735176,-0.16578417635735176
147.262,0.19211019459768508,-0.19211019459768508
147.263,0.1963932298705252,-0.1963932298705252
147.264,0.17895273529598954,-0.17895273529598954
147.265,0.1446665558187734,-0.1446665558187734
147.26600000000002,0.10166738469001813,-0.10166738469001813
147.267,0.05936752551568791,-0.05936752551568791
147.268,0.02631467619204486,-0.02631467619204486
147.269,0.008377654927157807,-0.008377654927157807
147.27,0.007640968901306389,-0.007640968901306389
147.27100000000002,0.022195467381722733,-0.022195467381722733
147.27200000000002,0.046803321844337664,-0.046803321844337664
147.273,0.07423702107718033,-0.07423702107718033
147.274,0.09697473324183581,-0.09697473324183581
147.275,0.10888939117932273,-0.10888939117932273
147.276,0.10659167367885325,-0.10659167367885325
147.27700000000002,0.0901645956514796,-0.0901645956514796
147.27800000000002,0.06314416518380683,-0.06314416518380683
147.279,0.03174107233679224,-0.03174107233679224
147.28,0.0034459925753870246,-0.0034459925753870246
147.281,0.014704896425761893,0.014704896425761893
147.282,0.017833016965902893,0.017833016965902893
147.28300000000002,0.004490414636439954,0.004490414636439954
147.28400000000002,0.022835384368514955,-0.022835384368514955
147.285,0.05817002586320885,-0.05817002586320885
147.286,0.09341648441358175,-0.09341648441358175
147.287,0.12035111321444936,-0.12035111321444936
147.288,0.13276657788543755,-0.13276657788543755
147.28900000000002,0.1281860720265069,-0.1281860720265069
147.29000000000002,0.10863774074664345,-0.10863774074664345
147.291,0.08020067368345152,-0.08020067368345152
147.292,0.05136715477539611,-0.05136715477539611
147.293,0.030620924046034337,-0.030620924046034337
147.294,0.02390014893393244,-0.02390014893393244
147.29500000000002,0.03270318515263648,-0.03270318515263648
147.29600000000002,0.05345860714632733,-0.05345860714632733
147.297,0.07843961307809366,-0.07843961307809366
147.298,0.09804579065779817,-0.09804579065779817
147.299,0.10383677265919156,-0.10383677265919156
147.3,0.09142260143214764,-0.09142260143214764
147.30100000000002,0.062295332709901285,-0.062295332709901285
147.30200000000002,0.023950988469774948,-0.023950988469774948
147.303,0.011863184015866501,0.011863184015866501
147.304,0.03237235448785203,0.03237235448785203
147.305,0.027586289403809916,0.027586289403809916
147.306,0.00641590017448368,-0.00641590017448368
147.30700000000002,0.06574741618161395,-0.06574741618161395
147.30800000000002,0.13912742902067554,-0.13912742902067554
147.309,0.2104366321544756,-0.2104366321544756
147.31,0.2627684018559372,-0.2627684018559372
147.311,0.2828669966432221,-0.2828669966432221
147.312,0.264701918034305,-0.264701918034305
147.31300000000002,0.21115551154538414,-0.21115551154538414
147.31400000000002,0.13333575786128649,-0.13333575786128649
147.315,0.04770890920081117,-0.04770890920081117
147.316,0.02812888313181361,0.02812888313181361
147.317,0.07984422514584133,0.07984422514584133
147.318,0.09970806849293301,0.09970806849293301
147.31900000000002,0.08801148831871064,0.08801148831871064
147.32000000000002,0.052269871821052805,0.052269871821052805
147.321,0.0045811463921170414,0.0045811463921170414
147.322,0.041983491402963535,-0.041983491402963535
147.323,0.07685565172990139,-0.07685565172990139
147.324,0.09433597055796417,-0.09433597055796417
147.32500000000002,0.09428811542641491,-0.09428811542641491
147.32600000000002,0.08115652030105014,-0.08115652030105014
147.327,0.06181996793501554,-0.06181996793501554
147.328,0.04310355254355447,-0.04310355254355447
147.329,0.029788249756928176,-0.029788249756928176
147.33,0.023694457395347923,-0.023694457395347923
147.33100000000002,0.023981041956000038,-0.023981041956000038
147.332,0.028355499681137375,-0.028355499681137375
147.333,0.034590696169824575,-0.034590696169824575
147.334,0.041687818078706806,-0.041687818078706806
147.335,0.050221146195373545,-0.050221146195373545
147.336,0.061764465222419296,-0.061764465222419296
147.33700000000002,0.07768887434940841,-0.07768887434940841
147.338,0.0978886463331975,-0.0978886463331975
147.339,0.12003466455442369,-0.12003466455442369
147.34,0.13975728022203227,-0.13975728022203227
147.341,0.15179582695638505,-0.15179582695638505
147.342,0.15175752208319804,-0.15175752208319804
147.34300000000002,0.13785447885838553,-0.13785447885838553
147.344,0.11194262337763405,-0.11194262337763405
147.345,0.07939655359394637,-0.07939655359394637
147.346,0.047752148734120925,-0.047752148734120925
147.347,0.02449515605211039,-0.02449515605211039
147.348,0.01470763827257826,-0.01470763827257826
147.34900000000002,0.019378959331728174,-0.019378959331728174
147.35,0.03499955728944959,-0.03499955728944959
147.351,0.054639698995426644,-0.054639698995426644
147.352,0.07021026097320904,-0.07021026097320904
147.353,0.07518288546065743,-0.07518288546065743
147.354,0.0668624319790403,-0.0668624319790403
147.35500000000002,0.04742715980624057,-0.04742715980624057
147.356,0.023348010184307544,-0.023348010184307544
147.357,0.0033382625846239966,-0.0033382625846239966
147.358,0.004513621619844255,0.004513621619844255
147.359,0.004515085085809667,-0.004515085085809667
147.36,0.03008528456336368,-0.03008528456336368
147.36100000000002,0.06672723767409083,-0.06672723767409083
147.362,0.1054437549330447,-0.1054437549330447
147.363,0.13647140380412437,-0.13647140380412437
147.364,0.15229581785645918,-0.15229581785645918
147.365,0.14992986511363127,-0.14992986511363127
147.366,0.1317100426692901,-0.1317100426692901
147.36700000000002,0.10436437143759902,-0.10436437143759902
147.368,0.07668535602092696,-0.07668535602092696
147.369,0.056606687202104156,-0.056606687202104156
147.37,0.04867387401474721,-0.04867387401474721
147.371,0.05275218123764869,-0.05275218123764869
147.372,0.06438153147721415,-0.06438153147721415
147.37300000000002,0.07661737184898754,-0.07661737184898754
147.374,0.08268578784948777,-0.08268578784948777
147.375,0.07850628443029317,-0.07850628443029317
147.376,0.06419088262765071,-0.06419088262765071
147.377,0.04399353939706596,-0.04399353939706596
147.378,0.024732162007943148,-0.024732162007943148
147.37900000000002,0.013246150835966364,-0.013246150835966364
147.38,0.013797511268263452,-0.013797511268263452
147.381,0.026352637332279882,-0.026352637332279882
147.382,0.04638344945782091,-0.04638344945782091
147.383,0.0663022398482932,-0.0663022398482932
147.384,0.07807398408469679,-0.07807398408469679
147.38500000000002,0.07612904004339616,-0.07612904004339616
147.386,0.059573351310743594,-0.059573351310743594
147.387,0.03290752363944238,-0.03290752363944238
147.388,0.0049501690295808976,-0.0049501690295808976
147.389,0.013746583732929807,0.013746583732929807
147.39,0.014197876545239518,0.014197876545239518
147.39100000000002,0.00803629922604776,-0.00803629922604776
147.392,0.05114775798054294,-0.05114775798054294
147.393,0.10720804536643924,-0.10720804536643924
147.394,0.16411568552670153,-0.16411568552670153
147.395,0.20879176444788317,-0.20879176444788317
147.39600000000002,0.2306810410791621,-0.2306810410791621
147.39700000000002,0.22454302481587096,-0.22454302481587096
147.398,0.19175608311730508,-0.19175608311730508
147.399,0.13982046815415994,-0.13982046815415994
147.4,0.08027937143112551,-0.08027937143112551
147.401,0.025713486936496,-0.025713486936496
147.40200000000002,0.013321910695430539,0.013321910695430539
147.40300000000002,0.030604690074585994,0.030604690074585994
147.404,0.02527076056517208,0.02527076056517208
147.405,0.001433754909504481,0.001433754909504481
147.406,0.03333206199475902,-0.03333206199475902
147.407,0.07011509859526732,-0.07011509859526732
147.40800000000002,0.10079103162810976,-0.10079103162810976
147.40900000000002,0.11964848713362819,-0.11964848713362819
147.41,0.12423534263881963,-0.12423534263881963
147.411,0.11539065274423044,-0.11539065274423044
147.412,0.09661909364793142,-0.09661909364793142
147.413,0.07306040480996612,-0.07306040480996612
147.41400000000002,0.050308155943173394,-0.050308155943173394
147.41500000000002,0.03327759429265564,-0.03327759429265564
147.416,0.025259795112708483,-0.025259795112708483
147.417,0.02726312614146631,-0.02726312614146631
147.418,0.03773746138119105,-0.03773746138119105
147.419,0.05277650515578791,-0.05277650515578791
147.42000000000002,0.06686059928967103,-0.06686059928967103
147.42100000000002,0.07410896311201076,-0.07410896311201076
147.422,0.06986053745000198,-0.06986053745000198
147.423,0.052238991596431195,-0.052238991596431195
147.424,0.02324916603204763,-0.02324916603204763
147.425,0.011032179167059342,0.011032179167059342
147.42600000000002,0.041433331496434134,0.041433331496434134
147.42700000000002,0.057780789872968974,0.057780789872968974
147.428,0.05168667582550279,0.05168667582550279
147.429,0.01930244327575803,0.01930244327575803
147.43,0.03680955655778817,-0.03680955655778817
147.431,0.10739525249559423,-0.10739525249559423
147.43200000000002,0.1781333907278112,-0.1781333907278112
147.43300000000002,0.23292823556042797,-0.23292823556042797
147.434,0.25808706225479483,-0.25808706225479483
147.435,0.24623948883150415,-0.24623948883150415
147.436,0.1988201761711984,-0.1988201761711984
147.437,0.12626761476431725,-0.12626761476431725
147.43800000000002,0.04571467871967583,-0.04571467871967583
147.43900000000002,0.023315185145308837,0.023315185145308837
147.44,0.06406527646464033,0.06406527646464033
147.441,0.06710424557443817,0.06710424557443817
147.442,0.03295192089934895,0.03295192089934895
147.443,0.02803232422839519,-0.02803232422839519
147.44400000000002,0.09851288505619438,-0.09851288505619438
147.44500000000002,0.15899357418076043,-0.15899357418076043
147.446,0.19320117261382164,-0.19320117261382164
147.447,0.19248035966408472,-0.19248035966408472
147.448,0.15794145754145217,-0.15794145754145217
147.449,0.09978019012822636,-0.09978019012822636
147.45000000000002,0.03403648974316542,-0.03403648974316542
147.45100000000002,0.022185249339270907,0.022185249339270907
147.452,0.05558073790777529,0.05558073790777529
147.453,0.060161318457188306,0.060161318457188306
147.454,0.03844139138204472,0.03844139138204472
147.455,5.638441382660453e-05,5.638441382660453e-05
147.45600000000002,0.041645981131152254,-0.041645981131152254
147.45700000000002,0.07391151998772638,-0.07391151998772638
147.458,0.08843661300689565,-0.08843661300689565
147.459,0.08363532749756797,-0.08363532749756797
147.46,0.06471801128037225,-0.06471801128037225
147.461,0.041678135137429906,-0.041678135137429906
147.46200000000002,0.025909782413701343,-0.025909782413701343
147.463,0.026546121192169037,-0.026546121192169037
147.464,0.04762371016035827,-0.04762371016035827
147.465,0.08685935480773388,-0.08685935480773388
147.466,0.1362979051264931,-0.1362979051264931
147.467,0.184528441016379,-0.184528441016379
147.46800000000002,0.21974460510340055,-0.21974460510340055
147.469,0.23275469880870947,-0.23275469880870947
147.47,0.2191515520602525,-0.2191515520602525
147.471,0.18016711466169333,-0.18016711466169333
147.472,0.12214175589883514,-0.12214175589883514
147.473,0.05490218751834974,-0.05490218751834974
147.47400000000002,0.010433578793008547,0.010433578793008547
147.475,0.06365935785716825,0.06365935785716825
147.476,0.0972348585560967,0.0972348585560967
147.477,0.10732864130205555,0.10732864130205555
147.478,0.0940919349275613,0.0940919349275613
147.479,0.06125845903108029,0.06125845903108029
147.48000000000002,0.015244189070203529,0.015244189070203529
147.481,0.036062127402793576,-0.036062127402793576
147.482,0.08463894264628802,-0.08463894264628802
147.483,0.12363309923775878,-0.12363309923775878
147.484,0.148447874198408,-0.148447874198408
147.485,0.1574368617382319,-0.1574368617382319
147.48600000000002,0.15204370625338948,-0.15204370625338948
147.487,0.13630307788534946,-0.13630307788534946
147.488,0.11575275206461322,-0.11575275206461322
147.489,0.09597279868844744,-0.09597279868844744
147.49,0.08111113707387141,-0.08111113707387141
147.491,0.07281291103072407,-0.07281291103072407
147.49200000000002,0.06990134999407105,-0.06990134999407105
147.493,0.06895912325724951,-0.06895912325724951
147.494,0.0656811053455888,-0.0656811053455888
147.495,0.05660008716860898,-0.05660008716860898
147.496,0.04062408768747183,-0.04062408768747183
147.497,0.019838478615499366,-0.019838478615499366
147.49800000000002,0.0007679734866168353,0.0007679734866168353
147.499,0.014651279465059064,0.014651279465059064
147.5,0.01576230059857542,0.01576230059857542
147.501,0.0006567643000496837,0.0006567643000496837
147.502,0.030043281427575286,-0.030043281427575286
147.503,0.07137152946432623,-0.07137152946432623
147.50400000000002,0.11509033084802978,-0.11509033084802978
147.505,0.15183762458519934,-0.15183762458519934
147.506,0.17370101500152213,-0.17370101500152213
147.507,0.17640796456955032,-0.17640796456955032
147.508,0.16042754537890425,-0.16042754537890425
147.509,0.13062835653563754,-0.13062835653563754
147.51000000000002,0.09461485598743247,-0.09461485598743247
147.511,0.0603076733727943,-0.0603076733727943
147.512,0.03358740207522859,-0.03358740207522859
147.513,0.016793847772987203,-0.016793847772987203
147.514,0.008568938843453444,-0.008568938843453444
147.515,0.005054347322365427,-0.005054347322365427
147.51600000000002,0.0019704098511039714,-0.0019704098511039714
147.517,0.00321725292418229,0.00321725292418229
147.518,0.009876693769748535,0.009876693769748535
147.519,0.014107882364593705,0.014107882364593705
147.52,0.010062155842938347,0.010062155842938347
147.52100000000002,0.007735669645683285,-0.007735669645683285
147.52200000000002,0.04186687481642948,-0.04186687481642948
147.523,0.09021682237009987,-0.09021682237009987
147.524,0.14560208236818217,-0.14560208236818217
147.525,0.19707853713587942,-0.19707853713587942
147.526,0.23262424729047193,-0.23262424729047193
147.52700000000002,0.24242254631335602,-0.24242254631335602
147.52800000000002,0.22175099923514452,-0.22175099923514452
147.529,0.17258451552611842,-0.17258451552611842
147.53,0.10341063144935636,-0.10341063144935636
147.531,0.02730050157788544,-0.02730050157788544
147.532,0.04120011715785754,0.04120011715785754
147.53300000000002,0.08946688640248968,0.08946688640248968
147.53400000000002,0.10954769946581489,0.10954769946581489
147.535,0.09958357444064792,0.09958357444064792
147.536,0.06365144399951417,0.06365144399951417
147.537,0.010251901129331165,0.010251901129331165
147.538,0.04998367853024288,-0.04998367853024288
147.53900000000002,0.1066620036670689,-0.1066620036670689
147.54000000000002,0.15147527278030137,-0.15147527278030137
147.541,0.1792062433614624,-0.1792062433614624
147.542,0.18789526177131022,-0.18789526177131022
147.543,0.17842279794376015,-0.17842279794376015
147.544,0.1538535562986797,-0.1538535562986797
147.54500000000002,0.11881480780242348,-0.11881480780242348
147.54600000000002,0.07900279852744929,-0.07900279852744929
147.547,0.040727757227968286,-0.040727757227968286
147.548,0.010316281082763168,-0.010316281082763168
147.549,0.006760704851503041,0.006760704851503041
147.55,0.0069944866986613174,0.0069944866986613174
147.55100000000002,0.0100742394459985,-0.0100742394459985
147.55200000000002,0.04118947700651043,-0.04118947700651043
147.553,0.07953044462207404,-0.07953044462207404
147.554,0.11588213259387847,-0.11588213259387847
147.555,0.14070171014927813,-0.14070171014927813
147.556,0.14660553428881484,-0.14660553428881484
147.55700000000002,0.13056480789334723,-0.13056480789334723
147.55800000000002,0.0950843902297176,-0.0950843902297176
147.559,0.047883162667504586,-0.047883162667504586
147.56,3.55903289344095e-05,-3.55903289344095e-05
147.561,0.03696666349512756,0.03696666349512756
147.562,0.05438934526822581,0.05438934526822581
147.56300000000002,0.04869594816328826,0.04869594816328826
147.56400000000002,0.02247535217252894,0.02247535217252894
147.565,0.016459751619912977,-0.016459751619912977
147.566,0.0575350367821964,-0.0575350367821964
147.567,0.09065647041672054,-0.09065647041672054
147.568,0.10918960934171473,-0.10918960934171473
147.56900000000002,0.11171882444292858,-0.11171882444292858
147.57000000000002,0.10203796631087936,-0.10203796631087936
147.571,0.08742112696096416,-0.08742112696096416
147.572,0.0758037422804797,-0.0758037422804797
147.573,0.07286915487729517,-0.07286915487729517
147.574,0.08005619665172925,-0.08005619665172925
147.57500000000002,0.09417099568367482,-0.09417099568367482
147.57600000000002,0.10871628575502179,-0.10871628575502179
147.577,0.11644328164250706,-0.11644328164250706
147.578,0.11219834467916268,-0.11219834467916268
147.579,0.09503192568166574,-0.09503192568166574
147.58,0.06879818907533042,-0.06879818907533042
147.58100000000002,0.041008942063733955,-0.041008942063733955
147.58200000000002,0.02032660931390884,-0.02032660931390884
147.583,0.013568839746040506,-0.013568839746040506
147.584,0.023279295916723397,-0.023279295916723397
147.585,0.04673015008225612,-0.04673015008225612
147.586,0.07672718310526205,-0.07672718310526205
147.58700000000002,0.10396097767234791,-0.10396097767234791
147.588,0.12010690917546651,-0.12010690917546651
147.589,0.1206113653805082,-0.1206113653805082
147.59,0.10620425531501909,-0.10620425531501909
147.591,0.08261246120035493,-0.08261246120035493
147.592,0.05856449931665919,-0.05856449931665919
147.59300000000002,0.04276068053703541,-0.04276068053703541
147.594,0.04083548585151786,-0.04083548585151786
147.595,0.05334120777162621,-0.05334120777162621
147.596,0.07543683168700877,-0.07543683168700877
147.597,0.09839454211639775,-0.09839454211639775
147.598,0.11243360824670479,-0.11243360824670479
147.59900000000002,0.10995947701274533,-0.10995947701274533
147.6,0.0881640469014412,-0.0881640469014412
147.601,0.05016303955681145,-0.05016303955681145
147.602,0.004325234232395392,-0.004325234232395392
147.603,0.037979098747570994,0.037979098747570994
147.604,0.06550544435995564,0.06550544435995564
147.60500000000002,0.07019758471887294,0.07019758471887294
147.606,0.04931236572847997,0.04931236572847997
147.607,0.006061446667906312,0.006061446667906312
147.608,0.05130988720328755,-0.05130988720328755
147.609,0.11164073608652725,-0.11164073608652725
147.61,0.16351203585336105,-0.16351203585336105
147.61100000000002,0.19772058113631374,-0.19772058113631374
147.612,0.20899670021711803,-0.20899670021711803
147.613,0.19667930190388916,-0.19667930190388916
147.614,0.16437395130676735,-0.16437395130676735
147.615,0.11885606066937626,-0.11885606066937626
147.616,0.06858615337578655,-0.06858615337578655
147.61700000000002,0.02217929973266697,-0.02217929973266697
147.618,0.012934878864202082,0.012934878864202082
147.619,0.03154391649714472,0.03154391649714472
147.62,0.031335318325615535,0.031335318325615535
147.621,0.013206950322481203,0.013206950322481203
147.622,0.01883993335554257,-0.01883993335554257
147.62300000000002,0.058283466869393674,-0.058283466869393674
147.624,0.09715963667460437,-0.09715963667460437
147.625,0.1275497724144935,-0.1275497724144935
147.626,0.14324113425430418,-0.14324113425430418
147.627,0.14119242592231063,-0.14119242592231063
147.628,0.12239076378944835,-0.12239076378944835
147.62900000000002,0.09177619747318122,-0.09177619747318122
147.63,0.057134065348173224,-0.057134065348173224
147.631,0.02715771114092691,-0.02715771114092691
147.632,0.009166517392782292,-0.009166517392782292
147.633,0.007121682158759524,-0.007121682158759524
147.634,0.020542932901645217,-0.020542932901645217
147.63500000000002,0.04468652036000065,-0.04468652036000065
147.636,0.07196518401610319,-0.07196518401610319
147.637,0.09419608745747887,-0.09419608745747887
147.638,0.10498857138621231,-0.10498857138621231
147.639,0.10153033766886521,-0.10153033766886521
147.64,0.08522479491340429,-0.08522479491340429
147.64100000000002,0.061013065799175425,-0.061013065799175425
147.642,0.03565228954265187,-0.03565228954265187
147.643,0.015564190859364668,-0.015564190859364668
147.644,0.004992607293370255,-0.004992607293370255
147.645,0.005070719201488272,-0.005070719201488272
147.64600000000002,0.01404818270802799,-0.01404818270802799
147.64700000000002,0.028493956747183136,-0.028493956747183136
147.648,0.04493354840772723,-0.04493354840772723
147.649,0.06123386871476999,-0.06123386871476999
147.65,0.07717118226909414,-0.07717118226909414
147.651,0.09396318719038266,-0.09396318719038266
147.65200000000002,0.11298408733928933,-0.11298408733928933
147.65300000000002,0.1342416659374983,-0.1342416659374983
147.654,0.15533257000319312,-0.15533257000319312
147.655,0.17144204667487306,-0.17144204667487306
147.656,0.17656168290342322,-0.17656168290342322
147.657,0.1656039130802469,-0.1656039130802469
147.65800000000002,0.13668264387381535,-0.13668264387381535
147.65900000000002,0.09267060465812005,-0.09267060465812005
147.66,0.04131549778706267,-0.04131549778706267
147.661,0.006341800504503725,0.006341800504503725
147.662,0.03890440851116228,0.03890440851116228
147.663,0.048043977650332303,0.048043977650332303
147.66400000000002,0.03129054775176465,0.03129054775176465
147.66500000000002,0.006807201171581956,-0.006807201171581956
147.666,0.055659855897210564,-0.055659855897210564
147.667,0.10156816400810309,-0.10156816400810309
147.668,0.1317536006381319,-0.1317536006381319
147.669,0.13822697278068463,-0.13822697278068463
147.67000000000002,0.12023739383288257,-0.12023739383288257
147.67100000000002,0.08447421131570121,-0.08447421131570121
147.672,0.04291716258727363,-0.04291716258727363
147.673,0.009006067477832502,-0.009006067477832502
147.674,0.00663290005602768,0.00663290005602768
147.675,0.0004911307316882718,-0.0004911307316882718
147.67600000000002,0.027450251908392675,-0.027450251908392675
147.67700000000002,0.06506068249330266,-0.06506068249330266
147.678,0.101081026163936,-0.101081026163936
147.679,0.12435251539325531,-0.12435251539325531
147.68,0.12847604168755444,-0.12847604168755444
147.681,0.11378735284171249,-0.11378735284171249
147.68200000000002,0.08698082887363068,-0.08698082887363068
147.68300000000002,0.058542256880422916,-0.058542256880422916
147.684,0.03890394322170454,-0.03890394322170454
147.685,0.03467240601655719,-0.03467240601655719
147.686,0.04624941978088071,-0.04624941978088071
147.687,0.0676815721402988,-0.0676815721402988
147.68800000000002,0.08879912914485721,-0.08879912914485721
147.68900000000002,0.09890869082627507,-0.09890869082627507
147.69,0.09076005535695786,-0.09076005535695786
147.691,0.06340311821595002,-0.06340311821595002
147.692,0.02292159666464244,-0.02292159666464244
147.693,0.019250068527185693,0.019250068527185693
147.69400000000002,0.049897958581603064,0.049897958581603064
147.69500000000002,0.05831434370633448,0.05831434370633448
147.696,0.03987471932194042,0.03987471932194042
147.697,0.002287508927907078,-0.002287508927907078
147.698,0.05807398384539009,-0.05807398384539009
147.699,0.11343318656054269,-0.11343318656054269
147.70000000000002,0.1546159969675137,-0.1546159969675137
147.70100000000002,0.17230217709667905,-0.17230217709667905
147.702,0.16428290343730034,-0.16428290343730034
147.703,0.13587154829542158,-0.13587154829542158
147.704,0.09796249744134466,-0.09796249744134466
147.705,0.06341483929275715,-0.06341483929275715
147.70600000000002,0.04295639147750696,-0.04295639147750696
147.70700000000002,0.04192127217422992,-0.04192127217422992
147.708,0.05882524770149733,-0.05882524770149733
147.709,0.08616220338829417,-0.08616220338829417
147.71,0.11308476405991086,-0.11308476405991086
147.711,0.1290486704945193,-0.1290486704945193
147.71200000000002,0.1272355245852369,-0.1272355245852369
147.713,0.10669165337202224,-0.10669165337202224
147.714,0.07257273531475728,-0.07257273531475728
147.715,0.034502352487119636,-0.034502352487119636
147.716,0.0036317419634143144,-0.0036317419634143144
147.717,0.010652345114538608,0.010652345114538608
147.71800000000002,0.0033818062616686184,0.0033818062616686184
147.719,0.024704113855892995,-0.024704113855892995
147.72,0.0675030989928962,-0.0675030989928962
147.721,0.11529801196361644,-0.11529801196361644
147.722,0.1573041470209321,-0.1573041470209321
147.723,0.18425718594048257,-0.18425718594048257
147.72400000000002,0.1903722281010023,-0.1903722281010023
147.725,0.17427432051841474,-0.17427432051841474
147.726,0.13884149966520298,-0.13884149966520298
147.727,0.09019505529859939,-0.09019505529859939
147.728,0.03623550605066894,-0.03623550605066894
147.729,0.014868106937204084,0.014868106937204084
147.73000000000002,0.055940029400859625,0.055940029400859625
147.731,0.08167797171222668,0.08167797171222668
147.732,0.0891580907159677,0.0891580907159677
147.733,0.07803828381509836,0.07803828381509836
147.734,0.05052215398804849,0.05052215398804849
147.735,0.011089773669938685,0.011089773669938685
147.73600000000002,0.0340471318520541,-0.0340471318520541
147.737,0.07780325191700899,-0.07780325191700899
147.738,0.11335517289813823,-0.11335517289813823
147.739,0.13539914703238753,-0.13539914703238753
147.74,0.14126372133759635,-0.14126372133759635
147.741,0.13156441091102677,-0.13156441091102677
147.74200000000002,0.11014910386332577,-0.11014910386332577
147.743,0.08325114459594851,-0.08325114459594851
147.744,0.057997181538016696,-0.057997181538016696
147.745,0.04063283064801271,-0.04063283064801271
147.746,0.03495093427994633,-0.03495093427994633
147.747,0.04138129344135422,-0.04138129344135422
147.74800000000002,0.05702288568382763,-0.05702288568382763
147.749,0.0766195840162609,-0.0766195840162609
147.75,0.09418740273369497,-0.09418740273369497
147.751,0.10479368499221475,-0.10479368499221475
147.752,0.10593931427221126,-0.10593931427221126
147.753,0.09812464318186875,-0.09812464318186875
147.75400000000002,0.08444795106188485,-0.08444795106188485
147.755,0.06940299149494855,-0.06940299149494855
147.756,0.05730236307346526,-0.05730236307346526
147.757,0.05086758910184863,-0.05086758910184863
147.758,0.05045625651882624,-0.05045625651882624
147.759,0.05416630719269844,-0.05416630719269844
147.76000000000002,0.058747850878085095,-0.058747850878085095
147.761,0.06097145742320054,-0.06097145742320054
147.762,0.058946567585205,-0.058946567585205
147.763,0.05290808351524812,-0.05290808351524812
147.764,0.04518410151182628,-0.04518410151182628
147.765,0.039354159715178305,-0.039354159715178305
147.76600000000002,0.03890067814025555,-0.03890067814025555
147.767,0.04584275854261888,-0.04584275854261888
147.768,0.05985466359698233,-0.05985466359698233
147.769,0.07820514851037685,-0.07820514851037685
147.77,0.09656531571876525,-0.09656531571876525
147.77100000000002,0.11042212551191011,-0.11042212551191011
147.77200000000002,0.11661117620137074,-0.11661117620137074
147.773,0.11442583674201767,-0.11442583674201767
147.774,0.1058931935104156,-0.1058931935104156
147.775,0.09508794562401912,-0.09508794562401912
147.776,0.08668913960211844,-0.08668913960211844
147.77700000000002,0.0842573465350216,-0.0842573465350216
147.77800000000002,0.08882620879740477,-0.08882620879740477
147.779,0.09831830751974036,-0.09831830751974036
147.78,0.10803412291248882,-0.10803412291248882
147.781,0.11210779156099582,-0.11210779156099582
147.782,0.10549096842346573,-0.10549096842346573
147.78300000000002,0.0858279115624816,-0.0858279115624816
147.78400000000002,0.05459047045625831,-0.05459047045625831
147.785,0.017055032146232274,-0.017055032146232274
147.786,0.01893906857159,0.01893906857159
147.787,0.04512045099240036,0.04512045099240036
147.788,0.055179180326398125,0.055179180326398125
147.78900000000002,0.04668825081916883,0.04668825081916883
147.79000000000002,0.021939128429660615,0.021939128429660615
147.791,0.01260596555321658,-0.01260596555321658
147.792,0.04812444928344384,-0.04812444928344384
147.793,0.07599442703612314,-0.07599442703612314
147.794,0.09035075554027128,-0.09035075554027128
147.79500000000002,0.08986216605995245,-0.08986216605995245
147.79600000000002,0.07817177195504688,-0.07817177195504688
147.797,0.06283221231998148,-0.06283221231998148
147.798,0.05301340671599508,-0.05301340671599508
147.799,0.05663233956685565,-0.05663233956685565
147.8,0.07773913216450667,-0.07773913216450667
147.80100000000002,0.11493567432531615,-0.11493567432531615
147.80200000000002,0.16131782661545968,-0.16131782661545968
147.803,0.2060021293783061,-0.2060021293783061
147.804,0.23684771993787346,-0.23684771993787346
147.805,0.24364362483418,-0.24364362483418
147.806,0.22089773283026937,-0.22089773283026937
147.80700000000002,0.16947276637498987,-0.16947276637498987
147.80800000000002,0.09663229842463217,-0.09663229842463217
147.809,0.01449302674864461,-0.01449302674864461
147.81,0.06269597472269517,0.06269597472269517
147.811,0.12172870422768489,0.12172870422768489
147.812,0.15326177867287027,0.15326177867287027
147.81300000000002,0.15359780559108427,0.15359780559108427
147.81400000000002,0.12505867771479262,0.12505867771479262
147.815,0.0749630091403708,0.0749630091403708
147.816,0.013579314861458469,0.013579314861458469
147.817,0.04834389837064823,-0.04834389837064823
147.818,0.10182240676923393,-0.10182240676923393
147.81900000000002,0.14113864834647283,-0.14113864834647283
147.82000000000002,0.16434449665707296,-0.16434449665707296
147.821,0.172805191587586,-0.172805191587586
147.822,0.17007345313296807,-0.17007345313296807
147.823,0.16051444918369373,-0.16051444918369373
147.824,0.14809304131451106,-0.14809304131451106
147.82500000000002,0.13560632723375465,-0.13560632723375465
147.82600000000002,0.12445359738867645,-0.12445359738867645
147.827,0.11485245896622409,-0.11485245896622409
147.828,0.1062931138119052,-0.1062931138119052
147.829,0.09800183650395788,-0.09800183650395788
147.83,0.08925166394581285,-0.08925166394581285
147.83100000000002,0.07947421155644907,-0.07947421155644907
147.83200000000002,0.0682380797919423,-0.0682380797919423
147.833,0.0552198262981497,-0.0552198262981497
147.834,0.04028037041389121,-0.04028037041389121
