Czas,AbsSum,Sum
146.436,0.11630899033882447,-0.11630899033882447
146.437,0.1356102369433807,-0.1356102369433807
146.43800000000002,0.12295736112353006,-0.12295736112353006
146.43900000000002,0.08121352549678751,-0.08121352549678751
146.44,0.022259141652211545,-0.022259141652211545
146.441,0.03593509653590088,0.03593509653590088
146.442,0.07435391270392211,0.07435391270392211
146.443,0.07865702844823197,0.07865702844823197
146.44400000000002,0.043812190580082344,0.043812190580082344
146.44500000000002,0.023876863965174855,-0.023876863965174855
146.446,0.10811482799653493,-0.10811482799653493
146.447,0.18706091462534347,-0.18706091462534347
146.448,0.23961019037149267,-0.23961019037149267
146.449,0.251619161394144,-0.251619161394144
146.45000000000002,0.22014853801093537,-0.22014853801093537
146.45100000000002,0.1543774004727193,-0.1543774004727193
146.452,0.07286709522478807,-0.07286709522478807
146.453,0.0020043261923237132,0.0020043261923237132
146.454,0.05072423579445484,0.05072423579445484
146.455,0.06238041300069219,0.06238041300069219
146.45600000000002,0.03769095699485714,0.03769095699485714
146.457,0.011565870156764246,-0.011565870156764246
146.458,0.06647835016372361,-0.06647835016372361
146.459,0.10699668497498016,-0.10699668497498016
146.46,0.11809374284917773,-0.11809374284917773
146.461,0.09419075145567224,-0.09419075145567224
146.46200000000002,0.040552252339865924,-0.040552252339865924
146.463,0.028651359599192405,0.028651359599192405
146.464,0.09486552252550817,0.09486552252550817
146.465,0.140743627831466,0.140743627831466
146.466,0.15504807545710397,0.15504807545710397
146.467,0.13542245400761166,0.13542245400761166
146.46800000000002,0.08835536614842376,0.08835536614842376
146.469,0.026577151704758606,0.026577151704758606
146.47,0.03509544899001171,-0.03509544899001171
146.471,0.0840649847647249,-0.0840649847647249
146.472,0.11310219977568925,-0.11310219977568925
146.473,0.1215327193986242,-0.1215327193986242
146.47400000000002,0.11436021861221524,-0.11436021861221524
146.475,0.09987694937636094,-0.09987694937636094
146.476,0.08670141533706943,-0.08670141533706943
146.477,0.08121110629001815,-0.08121110629001815
146.478,0.08604592357749286,-0.08604592357749286
146.479,0.09989516073056537,-0.09989516073056537
146.48000000000002,0.11834013705073387,-0.11834013705073387
146.481,0.13526312031754184,-0.13526312031754184
146.482,0.14431528836262242,-0.14431528836262242
146.483,0.14011707579601274,-0.14011707579601274
146.484,0.11911852807691747,-0.11911852807691747
146.485,0.08023227979555492,-0.08023227979555492
146.48600000000002,0.025373145992194535,-0.025373145992194535
146.487,0.040106120112531674,0.040106120112531674
146.488,0.10731204369494352,0.10731204369494352
146.489,0.16441911565496325,0.16441911565496325
146.49,0.19832084880084033,0.19832084880084033
146.491,0.19736365446781146,0.19736365446781146
146.49200000000002,0.1547409991234212,0.1547409991234212
146.493,0.07166202696778745,0.07166202696778745
146.494,0.04084166160073888,-0.04084166160073888
146.495,0.16247799347294778,-0.16247799347294778
146.496,0.26708045129161206,-0.26708045129161206
146.497,0.3284197707468529,-0.3284197707468529
146.49800000000002,0.3271473690613924,-0.3271473690613924
146.499,0.25695864319396544,-0.25695864319396544
146.5,0.12798999339195327,-0.12798999339195327
146.501,0.03396026638711258,0.03396026638711258
146.502,0.19267991725431033,0.19267991725431033
146.503,0.31020583805063384,0.31020583805063384
146.50400000000002,0.35669434611011397,0.35669434611011397
146.505,0.3187280142486426,0.3187280142486426
146.506,0.20354895013224028,0.20354895013224028
146.507,0.037771116150619344,0.037771116150619344
146.508,0.13929930482588504,-0.13929930482588504
146.509,0.285989318328158,-0.285989318328158
146.51000000000002,0.36933693229626685,-0.36933693229626685
146.511,0.3737319528639077,-0.3737319528639077
146.512,0.3046062694542393,-0.3046062694542393
146.513,0.18612006142022863,-0.18612006142022863
146.514,0.05359014556400299,-0.05359014556400299
146.515,0.05701493258044121,0.05701493258044121
146.51600000000002,0.11932918823304517,0.11932918823304517
146.517,0.12354026828423792,0.12354026828423792
146.518,0.07806158017816167,0.07806158017816167
146.519,0.005624242891580478,0.005624242891580478
146.52,0.064778141879269,-0.064778141879269
146.52100000000002,0.10741692567085448,-0.10741692567085448
146.52200000000002,0.10778960630689582,-0.10778960630689582
146.523,0.06658759236812739,-0.06658759236812739
146.524,0.001391878821267012,0.001391878821267012
146.525,0.07279489360491431,0.07279489360491431
146.526,0.12372178057359284,0.12372178057359284
146.52700000000002,0.1374966882148505,0.1374966882148505
146.52800000000002,0.10969521525104375,0.10969521525104375
146.529,0.04893956323800053,0.04893956323800053
146.53,0.02657377429805463,-0.02657377429805463
146.531,0.09544538750997034,-0.09544538750997034
146.532,0.1400869975646889,-0.1400869975646889
146.53300000000002,0.1520241860578514,-0.1520241860578514
146.53400000000002,0.13382714913621963,-0.13382714913621963
146.535,0.09722785289082658,-0.09722785289082658
146.536,0.05829394512319486,-0.05829394512319486
146.537,0.03148640684201731,-0.03148640684201731
146.538,0.024718000595533307,-0.024718000595533307
146.53900000000002,0.03708028653726014,-0.03708028653726014
146.54000000000002,0.059900853584610725,-0.059900853584610725
146.541,0.08059651990722394,-0.08059651990722394
146.542,0.0878224705265176,-0.0878224705265176
146.543,0.07600849655390851,-0.07600849655390851
146.544,0.047646062381179854,-0.047646062381179854
146.54500000000002,0.012529061115141515,-0.012529061115141515
146.54600000000002,0.015750536914123092,0.015750536914123092
146.547,0.024781848085694058,0.024781848085694058
146.548,0.008012342688300755,0.008012342688300755
146.549,0.032532196637478195,-0.032532196637478195
146.55,0.08644701824703727,-0.08644701824703727
146.55100000000002,0.13801468063941313,-0.13801468063941313
146.55200000000002,0.17110588642363445,-0.17110588642363445
146.553,0.17427157421353157,-0.17427157421353157
146.554,0.14434129975843402,-0.14434129975843402
146.555,0.0873712810143149,-0.0873712810143149
146.556,0.016690493609023305,-0.016690493609023305
146.55700000000002,0.05124119755904055,0.05124119755904055
146.55800000000002,0.10175038114873969,0.10175038114873969
146.559,0.12602655567642995,0.12602655567642995
146.56,0.12308522412336553,0.12308522412336553
146.561,0.09910283041389878,0.09910283041389878
146.562,0.06451042181050282,0.06451042181050282
146.56300000000002,0.02996872267509132,0.02996872267509132
146.56400000000002,0.0026735438831129166,0.0026735438831129166
146.565,0.01573988733438536,-0.01573988733438536
146.566,0.029034098083556392,-0.029034098083556392
146.567,0.044105081749360564,-0.044105081749360564
146.568,0.06751276353775992,-0.06751276353775992
146.56900000000002,0.1021133313156154,-0.1021133313156154
146.57000000000002,0.1450502707627236,-0.1450502707627236
146.571,0.1878760283535078,-0.1878760283535078
146.572,0.21882941833656833,-0.21882941833656833
146.573,0.22654243174776345,-0.22654243174776345
146.574,0.2039476097101115,-0.2039476097101115
146.57500000000002,0.15106921555470398,-0.15106921555470398
146.57600000000002,0.07573286083432196,-0.07573286083432196
146.577,0.00810187474410684,0.00810187474410684
146.578,0.08391629593355865,0.08391629593355865
146.579,0.1370355802114387,0.1370355802114387
146.58,0.15852101611396052,0.15852101611396052
146.58100000000002,0.14738124427854538,0.14738124427854538
146.582,0.11046764371198159,0.11046764371198159
146.583,0.06014365552286716,0.06014365552286716
146.584,0.010498084237169358,0.010498084237169358
146.585,0.026705464625405684,-0.026705464625405684
146.586,0.04511313752570456,-0.04511313752570456
146.58700000000002,0.04501727869252403,-0.04501727869252403
146.588,0.03247490889867699,-0.03247490889867699
146.589,0.016713599232600074,-0.016713599232600074
146.59,0.0067523390172932185,-0.0067523390172932185
146.591,0.008372594726170246,-0.008372594726170246
146.592,0.022410322182151998,-0.022410322182151998
146.59300000000002,0.044865985760098814,-0.044865985760098814
146.594,0.0687071918222919,-0.0687071918222919
146.595,0.0866728247841615,-0.0866728247841615
146.596,0.0940627396197139,-0.0940627396197139
146.597,0.09051727074593419,-0.09051727074593419
146.598,0.08014738130081378,-0.08014738130081378
146.59900000000002,0.06995079612203792,-0.06995079612203792
146.6,0.0670517913485742,-0.0670517913485742
146.601,0.07573149890315178,-0.07573149890315178
146.602,0.09532469910317654,-0.09532469910317654
146.603,0.11980358630033372,-0.11980358630033372
146.604,0.13932318618672168,-0.13932318618672168
146.60500000000002,0.1433388350168987,-0.1433388350168987
146.606,0.12433983392123238,-0.12433983392123238
146.607,0.08096734328995292,-0.08096734328995292
146.608,0.019403796869264966,-0.019403796869264966
146.609,0.04758390705417659,0.04758390705417659
146.61,0.10383710792591527,0.10383710792591527
146.61100000000002,0.1343873988037798,0.1343873988037798
146.612,0.13007514429408884,0.13007514429408884
146.613,0.09075085182687825,0.09075085182687825
146.614,0.025963673183795555,0.025963673183795555
146.615,0.04723323146626701,-0.04723323146626701
146.616,0.10885076443641073,-0.10885076443641073
146.61700000000002,0.1416331303455307,-0.1416331303455307
146.618,0.13615719417265004,-0.13615719417265004
146.619,0.0937969190112713,-0.0937969190112713
146.62,0.026585054185789825,-0.026585054185789825
146.621,0.04607716762565328,0.04607716762565328
146.622,0.10294915124383874,0.10294915124383874
146.62300000000002,0.12709990275690397,0.12709990275690397
146.624,0.1108368560321733,0.1108368560321733
146.625,0.05791928330149321,0.05791928330149321
146.626,0.017624877092419555,-0.017624877092419555
146.627,0.09572363229547554,-0.09572363229547554
146.628,0.15623581199742875,-0.15623581199742875
146.62900000000002,0.18484524978475025,-0.18484524978475025
146.63,0.17707375484348553,-0.17707375484348553
146.631,0.13920719748028876,-0.13920719748028876
146.632,0.08590200752193256,-0.08590200752193256
146.633,0.03528185809173301,-0.03528185809173301
146.634,0.003113875047148884,-0.003113875047148884
146.63500000000002,0.002078296995209339,0.002078296995209339
146.636,0.018565386174899223,-0.018565386174899223
146.637,0.055004177152988776,-0.055004177152988776
146.638,0.09192439739778913,-0.09192439739778913
146.639,0.11399700266919632,-0.11399700266919632
146.64,0.1110251334347333,-0.1110251334347333
146.64100000000002,0.08130994556966298,-0.08130994556966298
146.642,0.03217377410606892,-0.03217377410606892
146.643,0.022474286598845428,0.022474286598845428
146.644,0.06667920004640715,0.06667920004640715
146.645,0.08756731298266018,0.08756731298266018
146.64600000000002,0.07938339223435609,0.07938339223435609
146.64700000000002,0.04515689670273204,0.04515689670273204
146.648,0.004476177894344402,-0.004476177894344402
146.649,0.05482843955889882,-0.05482843955889882
146.65,0.09186525004976098,-0.09186525004976098
146.651,0.10649716654367491,-0.10649716654367491
146.65200000000002,0.0970929990358913,-0.0970929990358913
146.65300000000002,0.06948385868161822,-0.06948385868161822
146.654,0.03458378489134162,-0.03458378489134162
146.655,0.0045309852604084044,-0.0045309852604084044
146.656,0.011302999875087316,0.011302999875087316
146.657,0.009116741141609097,0.009116741141609097
146.65800000000002,0.008554672780097805,-0.008554672780097805
146.65900000000002,0.03422703459164922,-0.03422703459164922
146.66,0.05839118643390595,-0.05839118643390595
146.661,0.07287405088390331,-0.07287405088390331
146.662,0.07345927463634838,-0.07345927463634838
146.663,0.060925331516762604,-0.060925331516762604
146.66400000000002,0.04026870642490643,-0.04026870642490643
146.66500000000002,0.01853562374897022,-0.01853562374897022
146.666,0.002152488394231322,-0.002152488394231322
146.667,0.005235086622915386,0.005235086622915386
146.668,0.0036588815629854388,0.0036588815629854388
146.669,0.0037769747511211538,-0.0037769747511211538
146.67000000000002,0.012658525646394359,-0.012658525646394359
146.67100000000002,0.019410920365272588,-0.019410920365272588
146.672,0.022944002105103722,-0.022944002105103722
146.673,0.0251295431918791,-0.0251295431918791
146.674,0.02992018765301141,-0.02992018765301141
146.675,0.041461293495785756,-0.041461293495785756
146.67600000000002,0.06194863656330707,-0.06194863656330707
146.67700000000002,0.09009713804841313,-0.09009713804841313
146.678,0.12086814206993757,-0.12086814206993757
146.679,0.14663828973852644,-0.14663828973852644
146.68,0.15945563961889597,-0.15945563961889597
146.681,0.15361784883207685,-0.15361784883207685
146.68200000000002,0.12767406774917966,-0.12767406774917966
146.68300000000002,0.08514435177182034,-0.08514435177182034
146.684,0.0336957457946484,-0.0336957457946484
146.685,0.016951067278441867,0.016951067278441867
146.686,0.057680646946351555,0.057680646946351555
146.687,0.08233069341159593,0.08233069341159593
146.68800000000002,0.08899317519271888,0.08899317519271888
146.68900000000002,0.07992729804772591,0.07992729804772591
146.69,0.06024004191185517,0.06024004191185517
146.691,0.03590524339580403,0.03590524339580403
146.692,0.011876646960737869,0.011876646960737869
146.693,0.009054493209139536,-0.009054493209139536
146.69400000000002,0.026348772790176445,-0.026348772790176445
146.69500000000002,0.04088514154722922,-0.04088514154722922
146.696,0.053695843136574495,-0.053695843136574495
146.697,0.06490440500368111,-0.06490440500368111
146.698,0.07337448606283226,-0.07337448606283226
146.699,0.07723597851620445,-0.07723597851620445
146.70000000000002,0.0750404819794519,-0.0750404819794519
146.70100000000002,0.06698382187515639,-0.06698382187515639
146.702,0.05555437115634798,-0.05555437115634798
146.703,0.04516651770404079,-0.04516651770404079
146.704,0.04075065551630552,-0.04075065551630552
146.705,0.04573724558534342,-0.04573724558534342
146.70600000000002,0.06020432371109563,-0.06020432371109563
146.707,0.08000809019779953,-0.08000809019779953
146.708,0.09743847650415283,-0.09743847650415283
146.709,0.10341403616074063,-0.10341403616074063
146.71,0.0906336806534278,-0.0906336806534278
146.711,0.05665770375864154,-0.05665770375864154
146.71200000000002,0.005778663395949568,-0.005778663395949568
146.713,0.05116368957094686,0.05116368957094686
146.714,0.09924025593587871,0.09924025593587871
146.715,0.12361159775683506,0.12361159775683506
146.716,0.11422785603179841,0.11422785603179841
146.717,0.06955500104080503,0.06955500104080503
146.71800000000002,0.0019805531179971636,-0.0019805531179971636
146.719,0.08350004292999602,-0.08350004292999602
146.72,0.1539019260150818,-0.1539019260150818
146.721,0.19369723293155994,-0.19369723293155994
146.722,0.19075886163164202,-0.19075886163164202
146.723,0.14422640584363655,-0.14422640584363655
146.72400000000002,0.06529377826495886,-0.06529377826495886
146.725,0.02548968601363555,0.02548968601363555
146.726,0.10372513815127093,0.10372513815127093
146.727,0.14792865943691536,0.14792865943691536
146.728,0.1455914547402284,0.1455914547402284
146.729,0.09674952730076569,0.09674952730076569
146.73000000000002,0.01399698582734632,0.01399698582734632
146.731,0.08107489677303648,-0.08107489677303648
146.732,0.1639737054306697,-0.1639737054306697
146.733,0.2141529748113108,-0.2141529748113108
146.734,0.22061817554188812,-0.22061817554188812
146.735,0.1846870085251735,-0.1846870085251735
146.73600000000002,0.1191599685746425,-0.1191599685746425
146.737,0.04422593072812009,-0.04422593072812009
146.738,0.01861912874080418,0.01861912874080418
146.739,0.052807429256792604,0.052807429256792604
146.74,0.051257433407741804,0.051257433407741804
146.741,0.017968552152915818,0.017968552152915818
146.74200000000002,0.033720152461096276,-0.033720152461096276
146.743,0.08557952804942326,-0.08557952804942326
146.744,0.12023331451537267,-0.12023331451537267
146.745,0.12643490532536128,-0.12643490532536128
146.746,0.10230711707788642,-0.10230711707788642
146.747,0.0556270002588648,-0.0556270002588648
146.74800000000002,0.0011485953134824367,-0.0011485953134824367
146.749,0.0441519473669183,0.0441519473669183
146.75,0.06641742781710192,0.06641742781710192
146.751,0.05919765136612165,0.05919765136612165
146.752,0.02539192765557008,0.02539192765557008
146.753,0.023717590466079463,-0.023717590466079463
146.75400000000002,0.07201740173479965,-0.07201740173479965
146.755,0.10359471870456716,-0.10359471870456716
146.756,0.1077053447232662,-0.1077053447232662
146.757,0.08215991874981787,-0.08215991874981787
146.758,0.034094699911837,-0.034094699911837
146.759,0.022113834545775868,0.022113834545775868
146.76000000000002,0.06916689916473984,0.06916689916473984
146.761,0.09209335957012676,0.09209335957012676
146.762,0.08284514921839436,0.08284514921839436
146.763,0.04284279841778349,0.04284279841778349
146.764,0.017311522604050222,-0.017311522604050222
146.765,0.0808845082992028,-0.0808845082992028
146.76600000000002,0.1299223006597976,-0.1299223006597976
146.767,0.1505527360992407,-0.1505527360992407
146.768,0.1370884362942142,-0.1370884362942142
146.769,0.09369986853829404,-0.09369986853829404
146.77,0.03316259016048184,-0.03316259016048184
146.77100000000002,0.026930186475085494,0.026930186475085494
146.77200000000002,0.06933191993901255,0.06933191993901255
146.773,0.08211690277089367,0.08211690277089367
146.774,0.061972924080172964,0.061972924080172964
146.775,0.014858259614497937,0.014858259614497937
146.776,0.04610183315516336,-0.04610183315516336
146.77700000000002,0.10474542648669782,-0.10474542648669782
146.77800000000002,0.14668331894722797,-0.14668331894722797
146.779,0.16326622257821166,-0.16326622257821166
146.78,0.1535088735106932,-0.1535088735106932
146.781,0.12347634366760685,-0.12347634366760685
146.782,0.08349328107623222,-0.08349328107623222
146.78300000000002,0.04425408818331,-0.04425408818331
146.78400000000002,0.01324851491392276,-0.01324851491392276
146.785,0.007242066653689205,0.007242066653689205
146.786,0.019922876753851293,0.019922876753851293
146.787,0.03021683369317496,0.03021683369317496
146.788,0.04289929899404488,0.04289929899404488
146.78900000000002,0.05901999285359305,0.05901999285359305
146.79000000000002,0.0744233280651383,0.0744233280651383
146.791,0.0806106916316931,0.0806106916316931
146.792,0.06781264204613757,0.06781264204613757
146.793,0.029261594498272814,0.029261594498272814
146.794,0.03490283231937774,-0.03490283231937774
146.79500000000002,0.11568055414158951,-0.11568055414158951
146.79600000000002,0.19622942418114708,-0.19622942418114708
146.797,0.25589224699611535,-0.25589224699611535
146.798,0.27619146613829126,-0.27619146613829126
146.799,0.246952206501187,-0.246952206501187
146.8,0.17049434370303118,-0.17049434370303118
146.80100000000002,0.062307589386750184,-0.062307589386750184
146.80200000000002,0.05232800523058678,0.05232800523058678
146.803,0.14501249648374803,0.14501249648374803
146.804,0.1922953598933972,0.1922953598933972
146.805,0.18268421393362533,0.18268421393362533
146.806,0.12034457834286072,0.12034457834286072
146.80700000000002,0.024197459033668434,0.024197459033668434
146.80800000000002,0.07746351016118092,-0.07746351016118092
146.809,0.1552868218051784,-0.1552868218051784
146.81,0.18758946698847823,-0.18758946698847823
146.811,0.16678870156541703,-0.16678870156541703
146.812,0.10151330374573175,-0.10151330374573175
146.81300000000002,0.013712235962399122,-0.013712235962399122
146.81400000000002,0.0683391468403669,0.0683391468403669
146.815,0.11892549271905395,0.11892549271905395
146.816,0.12285258848209746,0.12285258848209746
146.817,0.0799633523231138,0.0799633523231138
146.818,0.004801908230096963,0.004801908230096963
146.81900000000002,0.07841182266606794,-0.07841182266606794
146.82000000000002,0.14382007554819287,-0.14382007554819287
146.821,0.17233588058802607,-0.17233588058802607
146.822,0.15768065574655699,-0.15768065574655699
146.823,0.10810558111857793,-0.10810558111857793
146.824,0.043281103536628396,-0.043281103536628396
146.82500000000002,0.012569931276234847,0.012569931276234847
146.82600000000002,0.0389905936232926,0.0389905936232926
146.827,0.02628950783620776,0.02628950783620776
146.828,0.02109997145008502,-0.02109997145008502
146.829,0.08601290665793582,-0.08601290665793582
146.83,0.1442400542432969,-0.1442400542432969
146.83100000000002,0.17263803564438307,-0.17263803564438307
146.832,0.15699708076809704,-0.15699708076809704
146.833,0.09708146813124685,-0.09708146813124685
146.834,0.007180249287035423,-0.007180249287035423
146.835,0.08803646279544708,0.08803646279544708
146.836,0.16104500255458376,0.16104500255458376
146.83700000000002,0.18998628566341758,0.18998628566341758
146.838,0.16547558614448565,0.16547558614448565
146.839,0.09356419220169543,0.09356419220169543
146.84,0.006053789338714699,-0.006053789338714699
146.841,0.10599298875479835,-0.10599298875479835
146.842,0.17939868777579748,-0.17939868777579748
146.84300000000002,0.20787540527218096,-0.20787540527218096
146.844,0.18669798306126217,-0.18669798306126217
146.845,0.1257725170055619,-0.1257725170055619
146.846,0.04615985256438526,-0.04615985256438526
146.847,0.02665811123267292,0.02665811123267292
146.848,0.07062452158985844,0.07062452158985844
146.84900000000002,0.07364537338702948,0.07364537338702948
146.85,0.03687325888658188,0.03687325888658188
146.851,0.026154686555743933,-0.026154686555743933
146.852,0.09412652946898337,-0.09412652946898337
146.853,0.14479080695942492,-0.14479080695942492
146.854,0.16187154803265524,-0.16187154803265524
146.85500000000002,0.13996297652672318,-0.13996297652672318
146.856,0.08597874641758907,-0.08597874641758907
146.857,0.0168080375721813,-0.0168080375721813
146.858,0.04602526280812014,0.04602526280812014
146.859,0.0830341002494781,0.0830341002494781
146.86,0.08275262699331876,0.08275262699331876
146.86100000000002,0.04526444777930827,0.04526444777930827
146.862,0.017739261672050977,-0.017739261672050977
146.863,0.08635957248933646,-0.08635957248933646
146.864,0.1383389643647016,-0.1383389643647016
146.865,0.15566414279192853,-0.15566414279192853
146.866,0.13003098773579613,-0.13003098773579613
146.86700000000002,0.06561529883032813,-0.06561529883032813
146.868,0.021646902806401247,0.021646902806401247
146.869,0.10809766705195045,0.10809766705195045
146.87,0.1686317964616666,0.1686317964616666
146.871,0.18351631763726872,0.18351631763726872
146.872,0.14391311999052459,0.14391311999052459
146.87300000000002,0.05460752467099894,0.05460752467099894
146.874,0.06681052689614575,-0.06681052689614575
146.875,0.19412126729657686,-0.19412126729657686
146.876,0.29891997385312674,-0.29891997385312674
146.877,0.3576401363473638,-0.3576401363473638
146.878,0.3573095723564159,-0.3573095723564159
146.87900000000002,0.29853752393773814,-0.29853752393773814
146.88,0.19498226766524818,-0.19498226766524818
146.881,0.0695064861217135,-0.0695064861217135
146.882,0.05187152240034254,0.05187152240034254
146.883,0.14653193641277862,0.14653193641277862
146.884,0.2005044548489825,0.2005044548489825
146.88500000000002,0.21101671277707923,0.21101671277707923
146.886,0.18575409293642275,0.18575409293642275
146.887,0.13922704786149676,0.13922704786149676
146.888,0.0874993550679044,0.0874993550679044
146.889,0.043000051781313164,0.043000051781313164
146.89,0.011072485786008723,0.011072485786008723
146.89100000000002,0.01068039630323625,-0.01068039630323625
146.892,0.030134305439531772,-0.030134305439531772
146.893,0.05633214707364498,-0.05633214707364498
146.894,0.09470266932466687,-0.09470266932466687
146.895,0.14358464936024873,-0.14358464936024873
146.89600000000002,0.19342802055593333,-0.19342802055593333
146.89700000000002,0.2291532873797677,-0.2291532873797677
146.898,0.2350548662492531,-0.2350548662492531
146.899,0.20069400683367355,-0.20069400683367355
146.9,0.1257681337307106,-0.1257681337307106
146.901,0.02214485860715376,-0.02214485860715376
146.90200000000002,0.08792335335795909,0.08792335335795909
146.90300000000002,0.1771789085899751,0.1771789085899751
146.904,0.22090170065680215,0.22090170065680215
146.905,0.2043791238911774,0.2043791238911774
146.906,0.12795059861470826,0.12795059861470826
146.907,0.00791199732265424,0.00791199732265424
146.90800000000002,0.12721733454106865,-0.12721733454106865
146.90900000000002,0.2441382607580881,-0.2441382607580881
146.91,0.3138202273258891,-0.3138202273258891
146.911,0.31949810399675993,-0.31949810399675993
146.912,0.2612300313849203,-0.2612300313849203
146.913,0.15564587350571046,-0.15564587350571046
146.91400000000002,0.03096876086897804,-0.03096876086897804
146.91500000000002,0.08117476079045494,0.08117476079045494
146.916,0.15467936106699343,0.15467936106699343
146.917,0.17595630776249394,0.17595630776249394
146.918,0.14697534880782115,0.14697534880782115
146.919,0.08358450182963661,0.08358450182963661
146.92000000000002,0.009804963913811138,0.009804963913811138
146.92100000000002,0.04999229622160717,-0.04999229622160717
146.922,0.07854413623265721,-0.07854413623265721
146.923,0.07052119889937536,-0.07052119889937536
146.924,0.033374926070695254,-0.033374926070695254
146.925,0.015840334286482127,0.015840334286482127
146.92600000000002,0.05646111508783691,0.05646111508783691
146.92700000000002,0.0710041672896502,0.0710041672896502
146.928,0.050600132566607225,0.050600132566607225
146.929,0.00252457931983463,-0.00252457931983463
146.93,0.0760899630180788,-0.0760899630180788
146.931,0.15176564278001592,-0.15176564278001592
146.93200000000002,0.21069774474457825,-0.21069774474457825
146.93300000000002,0.2387712381373227,-0.2387712381373227
146.934,0.23006495143650074,-0.23006495143650074
146.935,0.18766831028919984,-0.18766831028919984
146.936,0.12193277408724368,-0.12193277408724368
146.937,0.04701143613856229,-0.04701143613856229
146.93800000000002,0.023048436425586516,0.023048436425586516
146.93900000000002,0.07744976123171732,0.07744976123171732
146.94,0.11026364835110813,0.11026364835110813
146.941,0.1203935332690016,0.1203935332690016
146.942,0.11033321721164713,0.11033321721164713
146.943,0.08448106499025032,0.08448106499025032
146.94400000000002,0.04774440957960846,0.04774440957960846
146.94500000000002,0.004854742157641256,0.004854742157641256
146.946,0.039621231231579235,-0.039621231231579235
146.947,0.08094987226723083,-0.08094987226723083
146.948,0.114088163690651,-0.114088163690651
146.949,0.13410439886780112,-0.13410439886780112
146.95000000000002,0.13720266448686647,-0.13720266448686647
146.95100000000002,0.12201931661569487,-0.12201931661569487
146.952,0.09062210023935713,-0.09062210023935713
146.953,0.04865678026701292,-0.04865678026701292
146.954,0.004362109722407581,-0.004362109722407581
146.955,0.03339114037887558,0.03339114037887558
146.95600000000002,0.05746288957477885,0.05746288957477885
146.957,0.06440943727240755,0.06440943727240755
146.958,0.0553295564865377,0.0553295564865377
146.959,0.0352353296520973,0.0352353296520973
146.96,0.011122212518772434,0.011122212518772434
146.961,0.010592727069809182,-0.010592727069809182
146.96200000000002,0.026331254380635216,-0.026331254380635216
146.963,0.03645973443370509,-0.03645973443370509
146.964,0.04479596156507404,-0.04479596156507404
146.965,0.05666898269463916,-0.05666898269463916
146.966,0.07624730213900188,-0.07624730213900188
146.967,0.10416557011394112,-0.10416557011394112
146.96800000000002,0.13641608713636044,-0.13641608713636044
146.969,0.16503788503470596,-0.16503788503470596
146.97,0.18048115375769613,-0.18048115375769613
146.971,0.17488507980957968,-0.17488507980957968
146.972,0.14512181903853028,-0.14512181903853028
146.973,0.09448066715450831,-0.09448066715450831
146.97400000000002,0.032301083280379284,-0.032301083280379284
146.975,0.028434380154635397,0.028434380154635397
146.976,0.07481354712528576,0.07481354712528576
146.977,0.09779896006010902,0.09779896006010902
146.978,0.09484577700751551,0.09484577700751551
146.979,0.07044463607281348,0.07044463607281348
146.98000000000002,0.0344083314478596,0.0344083314478596
146.981,0.0015012487702763533,-0.0015012487702763533
146.982,0.02743821793429091,-0.02743821793429091
146.983,0.03850186894653751,-0.03850186894653751
146.984,0.035910919862551016,-0.035910919862551016
146.985,0.0259716772719758,-0.0259716772719758
146.98600000000002,0.01727620788888473,-0.01727620788888473
146.987,0.017190616738409048,-0.017190616738409048
146.988,0.028930826855539493,-0.028930826855539493
146.989,0.05029042611178791,-0.05029042611178791
146.99,0.07446900174059079,-0.07446900174059079
146.991,0.0926752667336106,-0.0926752667336106
146.99200000000002,0.09752902187987689,-0.09752902187987689
146.993,0.08599537994210238,-0.08599537994210238
146.994,0.06075783713878036,-0.06075783713878036
146.995,0.029508691174232715,-0.029508691174232715
146.996,0.0023960317492807137,-0.0023960317492807137
146.997,0.011461786870027524,0.011461786870027524
146.99800000000002,0.007144852428869974,0.007144852428869974
146.999,0.014349311163269651,-0.014349311163269651
147.0,0.04644285347459154,-0.04644285347459154
147.001,0.07923477562732084,-0.07923477562732084
147.002,0.10285553356618815,-0.10285553356618815
147.003,0.11071519250517103,-0.11071519250517103
147.00400000000002,0.10150151039728428,-0.10150151039728428
147.005,0.07925943537867508,-0.07925943537867508
147.006,0.051594775028215856,-0.051594775028215856
147.007,0.0267280227076655,-0.0267280227076655
147.008,0.010527585088457303,-0.010527585088457303
147.009,0.00462832755969067,-0.00462832755969067
147.01000000000002,0.006304083758762458,-0.006304083758762458
147.011,0.010078474307756546,-0.010078474307756546
147.012,0.010386099914430957,-0.010386099914430957
147.013,0.004190695771412067,-0.004190695771412067
147.014,0.007516492436481226,0.007516492436481226
147.015,0.01997883082277596,0.01997883082277596
147.01600000000002,0.02664361161745088,0.02664361161745088
147.017,0.022094580573295275,0.022094580573295275
147.018,0.004781453045935802,0.004781453045935802
147.019,0.021603797991574303,-0.021603797991574303
147.02,0.048790479270599096,-0.048790479270599096
147.02100000000002,0.06656611372749077,-0.06656611372749077
147.02200000000002,0.06654927957671841,-0.06654927957671841
147.023,0.04575928062987655,-0.04575928062987655
147.024,0.008610341270244404,-0.008610341270244404
147.025,0.03357166033414671,0.03357166033414671
147.026,0.06558391245692241,0.06558391245692241
147.02700000000002,0.07310097750637135,0.07310097750637135
147.02800000000002,0.04765089974839132,0.04765089974839132
147.029,0.009866216542297024,-0.009866216542297024
147.03,0.088410174670569,-0.088410174670569
147.031,0.16923234713693147,-0.16923234713693147
147.032,0.23092481442085233,-0.23092481442085233
147.03300000000002,0.25562611543816527,-0.25562611543816527
147.03400000000002,0.23449260797145954,-0.23449260797145954
147.035,0.17071390350210447,-0.17071390350210447
147.036,0.0790745665674204,-0.0790745665674204
147.037,0.017885201308789345,0.017885201308789345
147.038,0.09601421388147013,0.09601421388147013
147.03900000000002,0.13620025784013867,0.13620025784013867
147.04000000000002,0.12957930094296444,0.12957930094296444
147.041,0.07980887823353888,0.07980887823353888
147.042,0.001807169244175455,0.001807169244175455
147.043,0.08258679044092299,-0.08258679044092299
147.044,0.15069390638688696,-0.15069390638688696
147.04500000000002,0.18503128656869483,-0.18503128656869483
147.04600000000002,0.17762198218625602,-0.17762198218625602
147.047,0.13149060954712932,-0.13149060954712932
147.048,0.0591332856198844,-0.0591332856198844
147.049,0.021375358411862333,0.021375358411862333
147.05,0.09136601619173668,0.09136601619173668
147.05100000000002,0.1361945039708503,0.1361945039708503
147.05200000000002,0.14830236770491045,0.14830236770491045
147.053,0.12810280663511087,0.12810280663511087
147.054,0.08276565418743131,0.08276565418743131
147.055,0.02355134673843562,0.02355134673843562
147.056,0.037355095782888426,-0.037355095782888426
147.05700000000002,0.08958828279396458,-0.08958828279396458
147.05800000000002,0.1263046205226177,-0.1263046205226177
147.059,0.14465701310373125,-0.14465701310373125
147.06,0.14526094494340858,-0.14526094494340858
147.061,0.13111489207983384,-0.13111489207983384
147.062,0.10646737744339374,-0.10646737744339374
147.06300000000002,0.07596820719283248,-0.07596820719283248
147.06400000000002,0.04419677096041752,-0.04419677096041752
147.065,0.015441156853862936,-0.015441156853862936
147.066,0.006501624683337592,0.006501624683337592
147.067,0.018689730035790664,0.018689730035790664
147.068,0.019592391780111074,0.019592391780111074
147.06900000000002,0.009675825201509891,0.009675825201509891
147.07000000000002,0.008269018375708481,-0.008269018375708481
147.071,0.029340955487156983,-0.029340955487156983
147.072,0.04742225728685656,-0.04742225728685656
147.073,0.05664578478212212,-0.05664578478212212
147.074,0.053082113206929904,-0.053082113206929904
147.07500000000002,0.03613950181836256,-0.03613950181836256
147.07600000000002,0.009180036557120963,-0.009180036557120963
147.077,0.02095640730991022,0.02095640730991022
147.078,0.04551258564936256,0.04551258564936256
147.079,0.056105234428155626,0.056105234428155626
147.08,0.047132715540944004,0.047132715540944004
147.08100000000002,0.017598778915816293,0.017598778915816293
147.082,0.028220551801909854,-0.028220551801909854
147.083,0.08153039187895561,-0.08153039187895561
147.084,0.13105132466392577,-0.13105132466392577
147.085,0.16581948488330522,-0.16581948488330522
147.086,0.17800231169304004,-0.17800231169304004
147.08700000000002,0.16495798364772574,-0.16495798364772574
147.088,0.1299661919658226,-0.1299661919658226
147.089,0.08142185271743407,-0.08142185271743407
147.09,0.030706388582993904,-0.030706388582993904
147.091,0.010688050993475251,0.010688050993475251
147.092,0.034009320685425726,0.034009320685425726
147.09300000000002,0.03531902147060628,0.03531902147060628
147.094,0.016264438507178847,0.016264438507178847
147.095,0.016610407948436823,-0.016610407948436823
147.096,0.053774984161438444,-0.053774984161438444
147.097,0.08528437561575197,-0.08528437561575197
147.098,0.10329955765525511,-0.10329955765525511
147.09900000000002,0.10389024868491348,-0.10389024868491348
147.1,0.08768484641121954,-0.08768484641121954
147.101,0.05927257897380844,-0.05927257897380844
147.102,0.02561406544908884,-0.02561406544908884
147.103,0.006021902547163727,0.006021902547163727
147.104,0.029976613191597723,0.029976613191597723
147.10500000000002,0.04343868269529283,0.04343868269529283
147.106,0.04669976030932865,0.04669976030932865
147.107,0.042441783791085985,0.042441783791085985
147.108,0.03436471074601499,0.03436471074601499
147.109,0.025653004455263417,0.025653004455263417
147.11,0.017806860007423264,0.017806860007423264
147.11100000000002,0.010224832136186413,0.010224832136186413
147.112,0.0006639817438520712,0.0006639817438520712
147.113,0.013595099930833188,-0.013595099930833188
147.114,0.03429318670834003,-0.03429318670834003
147.115,0.0609701755706511,-0.0609701755706511
147.116,0.090436946532506,-0.090436946532506
147.11700000000002,0.11718831306499689,-0.11718831306499689
147.118,0.13470288862544977,-0.13470288862544977
147.119,0.13728160622554275,-0.13728160622554275
147.12,0.12188283715686243,-0.12188283715686243
147.121,0.0893817845538325,-0.0893817845538325
147.122,0.04482817115683002,-0.04482817115683002
147.12300000000002,0.0034423897459081587,0.0034423897459081587
147.124,0.04565523400247584,0.04565523400247584
147.125,0.07292946736763195,0.07292946736763195
147.126,0.07947432963848233,0.07947432963848233
147.127,0.06405494243513754,0.06405494243513754
147.128,0.030330725221392463,0.030330725221392463
147.12900000000002,0.014023017617062705,-0.014023017617062705
147.13,0.05917309355236455,-0.05917309355236455
147.131,0.09547548256751737,-0.09547548256751737
147.132,0.11570903022918799,-0.11570903022918799
147.133,0.11664678709338261,-0.11664678709338261
147.134,0.09961055692949738,-0.09961055692949738
147.13500000000002,0.06992793785179285,-0.06992793785179285
147.136,0.03548549258838707,-0.03548549258838707
147.137,0.004775559938390073,-0.004775559938390073
147.138,0.015076858656472014,0.015076858656472014
147.139,0.019855707502514308,0.019855707502514308
147.14,0.009047805947852705,0.009047805947852705
147.14100000000002,0.014235995555378245,-0.014235995555378245
147.142,0.044140265108100984,-0.044140265108100984
147.143,0.07351085931971557,-0.07351085931971557
147.144,0.09557204066807024,-0.09557204066807024
147.145,0.10546924414827707,-0.10546924414827707
147.14600000000002,0.10134935581726068,-0.10134935581726068
147.14700000000002,0.08474588023057261,-0.08474588023057261
147.148,0.060175828460879655,-0.060175828460879655
147.149,0.034019775969850286,-0.034019775969850286
147.15,0.012920764240231586,-0.012920764240231586
147.151,0.00206863223899445,-0.00206863223899445
147.15200000000002,0.0037977452246292787,-0.0037977452246292787
147.15300000000002,0.0168881130330788,-0.0168881130330788
147.154,0.036812125933616935,-0.036812125933616935
147.155,0.056931647325320744,-0.056931647325320744
147.156,0.07037659872997437,-0.07037659872997437
147.157,0.07210434462138049,-0.07210434462138049
147.15800000000002,0.06052985630821106,-0.06052985630821106
147.15900000000002,0.038185244566489085,-0.038185244566489085
147.16,0.011118840355442972,-0.011118840355442972
147.161,0.01287833271010319,0.01287833271010319
147.162,0.02673670521497451,0.02673670521497451
147.163,0.02650219600078718,0.02650219600078718
147.16400000000002,0.012846549215008496,0.012846549215008496
147.16500000000002,0.008900159790333761,-0.008900159790333761
147.166,0.030340481006849496,-0.030340481006849496
147.167,0.04282150670495677,-0.04282150670495677
147.168,0.04059783448344101,-0.04059783448344101
147.169,0.023262080054411105,-0.023262080054411105
147.17000000000002,0.00349709217014893,0.00349709217014893
147.17100000000002,0.029260429173189495,0.029260429173189495
147.172,0.04211831045042036,0.04211831045042036
147.173,0.03285013515204094,0.03285013515204094
147.174,0.0013243584947905118,-0.0013243584947905118
147.175,0.05478816735886416,-0.05478816735886416
147.17600000000002,0.11425404746246648,-0.11425404746246648
147.17700000000002,0.16223121614571245,-0.16223121614571245
147.178,0.18235099557715473,-0.18235099557715473
147.179,0.16494502718149073,-0.16494502718149073
147.18,0.11102350343399148,-0.11102350343399148
147.181,0.03316097848403832,-0.03316097848403832
147.18200000000002,0.047306607555321456,0.047306607555321456
147.18300000000002,0.10619692319207541,0.10619692319207541
147.184,0.12385437697888757,0.12385437697888757
147.185,0.09171468575629338,0.09171468575629338
147.186,0.015883672137847693,0.015883672137847693
147.187,0.08363652831859025,-0.08363652831859025
147.18800000000002,0.178130262157979,-0.178130262157979
147.18900000000002,0.2384064998413653,-0.2384064998413653
147.19,0.2436848425672541,-0.2436848425672541
147.191,0.18838666913561442,-0.18838666913561442
147.192,0.08461587029295803,-0.08461587029295803
147.193,0.04062894667534356,0.04062894667534356
147.19400000000002,0.1528571133116745,0.1528571133116745
147.19500000000002,0.21998867475867012,0.21998867475867012
147.196,0.2218049192410576,0.2218049192410576
147.197,0.15606464230703798,0.15606464230703798
147.198,0.03938073372149997,0.03938073372149997
147.199,0.09745936189445659,-0.09745936189445659
147.20000000000002,0.21834037352129076,-0.21834037352129076
147.20100000000002,0.2921620759111083,-0.2921620759111083
147.202,0.3015569750735033,-0.3015569750735033
147.203,0.24738661521485739,-0.24738661521485739
147.204,0.14775165709118265,-0.14775165709118265
147.205,0.031960922763290434,-0.031960922763290434
147.20600000000002,0.06855308053701403,0.06855308053701403
147.207,0.1294972799881653,0.1294972799881653
147.208,0.14032267195782766,0.14032267195782766
147.209,0.1062639499203768,0.1062639499203768
147.21,0.04541135534831109,0.04541135534831109
147.211,0.018008917920758982,-0.018008917920758982
147.21200000000002,0.061824556028908906,-0.061824556028908906
147.213,0.07289954799412979,-0.07289954799412979
147.214,0.05075017210315047,-0.05075017210315047
147.215,0.006827191984669079,-0.006827191984669079
147.216,0.0400536560607474,0.0400536560607474
147.217,0.07042800790089387,0.07042800790089387
147.21800000000002,0.0707356057067492,0.0707356057067492
147.219,0.03758102293435717,0.03758102293435717
147.22,0.021554532768760182,-0.021554532768760182
147.221,0.09116943620293916,-0.09116943620293916
147.222,0.15301108790770446,-0.15301108790770446
147.223,0.19188177057511635,-0.19188177057511635
147.22400000000002,0.20005049146492326,-0.20005049146492326
147.225,0.1789348968136697,-0.1789348968136697
147.226,0.1377211272851403,-0.1377211272851403
147.227,0.08963742571187139,-0.08963742571187139
147.228,0.047329615036897144,-0.047329615036897144
147.229,0.018972426485350247,-0.018972426485350247
147.23000000000002,0.0063614122366366654,-0.0063614122366366654
147.231,0.005438623055069924,-0.005438623055069924
147.232,0.008814548779957021,-0.008814548779957021
147.233,0.00917912541721233,-0.00917912541721233
147.234,0.0022690216349975367,-0.0022690216349975367
147.235,0.011671038263000755,0.011671038263000755
147.23600000000002,0.02835716420387624,0.02835716420387624
147.237,0.04153816507125696,0.04153816507125696
147.238,0.0457595255784895,0.0457595255784895
147.239,0.038698331494747995,0.038698331494747995
147.24,0.02216936043850848,0.02216936043850848
147.241,0.0014522490789852238,0.0014522490789852238
147.24200000000002,0.016752412421406238,-0.016752412421406238
147.243,0.02691482030172998,-0.02691482030172998
147.244,0.02680707276472405,-0.02680707276472405
147.245,0.018367462826835323,-0.018367462826835323
147.246,0.00699195044499612,-0.00699195044499612
147.247,0.0004530022236362008,0.0004530022236362008
147.24800000000002,0.001869193865145502,-0.001869193865145502
147.249,0.01668609623809436,-0.01668609623809436
147.25,0.04270508084376223,-0.04270508084376223
147.251,0.07515430737567685,-0.07515430737567685
147.252,0.10750544306499021,-0.10750544306499021
147.253,0.13367485365730292,-0.13367485365730292
147.25400000000002,0.14985057084465025,-0.14985057084465025
147.255,0.1552768018822468,-0.1552768018822468
147.256,0.1517675365546487,-0.1517675365546487
147.257,0.14224035710308025,-0.14224035710308025
147.258,0.12895635809716655,-0.12895635809716655
147.259,0.11226708977080946,-0.11226708977080946
147.26000000000002,0.09045821200130955,-0.09045821200130955
147.261,0.06082208140109535,-0.06082208140109535
147.262,0.021564251161851344,-0.021564251161851344
147.263,0.026241640190635795,0.026241640190635795
147.264,0.0775313414705534,0.0775313414705534
147.265,0.1235906170842831,0.1235906170842831
147.26600000000002,0.15397416969075817,0.15397416969075817
147.267,0.15951858111978345,0.15951858111978345
147.268,0.13550126333579704,0.13550126333579704
147.269,0.083846841388725,0.083846841388725
147.27,0.01351524682582661,0.01351524682582661
147.27100000000002,0.06124235949079382,-0.06124235949079382
147.27200000000002,0.12438182523812369,-0.12438182523812369
147.273,0.16234104276324002,-0.16234104276324002
147.274,0.16781382436424686,-0.16781382436424686
147.275,0.14185146299815066,-0.14185146299815066
147.276,0.0936084022206477,-0.0936084022206477
147.27700000000002,0.03776340445682391,-0.03776340445682391
147.27800000000002,0.00963883716456948,0.00963883716456948
147.279,0.03569662893426928,0.03569662893426928
147.28,0.034179683330287425,0.034179683330287425
147.281,0.007054376905647475,0.007054376905647475
147.282,0.03640017739397039,-0.03640017739397039
147.28300000000002,0.08256371224352199,-0.08256371224352199
147.28400000000002,0.11760049598831335,-0.11760049598831335
147.285,0.1314925247530473,-0.1314925247530473
147.286,0.12080400746843156,-0.12080400746843156
147.287,0.08941843866110133,-0.08941843866110133
147.288,0.0471140390739625,-0.0471140390739625
147.28900000000002,0.006479326636968263,-0.006479326636968263
147.29000000000002,0.020870221732366856,0.020870221732366856
147.291,0.027655894771133394,0.027655894771133394
147.292,0.012933840394344642,0.012933840394344642
147.293,0.017785413481764434,-0.017785413481764434
147.294,0.05425500893636637,-0.05425500893636637
147.29500000000002,0.08449552831534313,-0.08449552831534313
147.29600000000002,0.09820432991272765,-0.09820432991272765
147.297,0.08962242116552188,-0.08962242116552188
147.298,0.059103752729570025,-0.059103752729570025
147.299,0.013015478842741568,-0.013015478842741568
147.3,0.037942843324561215,0.037942843324561215
147.30100000000002,0.08150339920419336,0.08150339920419336
147.30200000000002,0.10692247685186285,0.10692247685186285
147.303,0.10759691578737995,0.10759691578737995
147.304,0.08255974382697162,0.08255974382697162
147.305,0.036525719392913825,0.036525719392913825
147.306,0.021457798326524724,-0.021457798326524724
147.30700000000002,0.08034538403917868,-0.08034538403917868
147.30800000000002,0.1297696226462376,-0.1297696226462376
147.309,0.16235573521043212,-0.16235573521043212
147.31,0.1750991229736567,-0.1750991229736567
147.311,0.1695071541229497,-0.1695071541229497
147.312,0.15055687074003443,-0.15055687074003443
147.31300000000002,0.12484731793427362,-0.12484731793427362
147.31400000000002,0.09853693738226188,-0.09853693738226188
147.315,0.07569159545433302,-0.07569159545433302
147.316,0.05751590259609951,-0.05751590259609951
147.317,0.04264421726277412,-0.04264421726277412
147.318,0.02831860587064927,-0.02831860587064927
147.31900000000002,0.01198975438005434,-0.01198975438005434
147.32000000000002,0.007260007747993624,0.007260007747993624
147.321,0.028004962817306245,0.028004962817306245
147.322,0.046753856372177216,0.046753856372177216
147.323,0.05913483724039725,0.05913483724039725
147.324,0.06156155664334895,0.06156155664334895
147.32500000000002,0.052752544541983415,0.052752544541983415
147.32600000000002,0.03449652553483995,0.03449652553483995
147.327,0.011305255101465184,0.011305255101465184
147.328,0.011004141303129655,-0.011004141303129655
147.329,0.02734135142511096,-0.02734135142511096
147.33,0.03525918682098883,-0.03525918682098883
147.33100000000002,0.03600223053904117,-0.03600223053904117
147.332,0.034196564708321,-0.034196564708321
147.333,0.0361587464474693,-0.0361587464474693
147.334,0.04732420334067333,-0.04732420334067333
147.335,0.06968093652176732,-0.06968093652176732
147.336,0.10018912068047203,-0.10018912068047203
147.33700000000002,0.13090967989310243,-0.13090967989310243
147.338,0.15101734056000427,-0.15101734056000427
147.339,0.15020862473572727,-0.15020862473572727
147.34,0.12246185182254077,-0.12246185182254077
147.341,0.06887172808743747,-0.06887172808743747
147.342,0.0015250287698274079,0.0015250287698274079
147.34300000000002,0.07342872199511818,0.07342872199511818
147.344,0.12914990551044236,0.12914990551044236
147.345,0.15360590977194422,0.15360590977194422
147.346,0.13891973755677656,0.13891973755677656
147.347,0.08713339411667964,0.08713339411667964
147.348,0.010078941949181575,0.010078941949181575
147.34900000000002,0.07367529536049511,-0.07367529536049511
147.35,0.14394871429016376,-0.14394871429016376
147.351,0.18460019945117712,-0.18460019945117712
147.352,0.18796569245051753,-0.18796569245051753
147.353,0.15670788744546904,-0.15670788744546904
147.354,0.10252912467462982,-0.10252912467462982
147.35500000000002,0.042210347322695685,-0.042210347322695685
147.356,0.007700244850712412,0.007700244850712412
147.357,0.0358068920741097,0.0358068920741097
147.358,0.038819686082073535,0.038819686082073535
147.359,0.021663180198531196,0.021663180198531196
147.36,0.005153002253722949,-0.005153002253722949
147.36100000000002,0.029861077368319222,-0.029861077368319222
147.362,0.04386085754209412,-0.04386085754209412
147.363,0.04465620713086027,-0.04465620713086027
147.364,0.03628690716406324,-0.03628690716406324
147.365,0.027170745126522622,-0.027170745126522622
147.366,0.02622543609849337,-0.02622543609849337
147.36700000000002,0.03877662394077186,-0.03877662394077186
147.368,0.06384562840063446,-0.06384562840063446
147.369,0.09391294004954975,-0.09391294004954975
147.37,0.11734481416909814,-0.11734481416909814
147.371,0.12267468863273423,-0.12267468863273423
147.372,0.1032082600887223,-0.1032082600887223
147.37300000000002,0.060238041360397565,-0.060238041360397565
147.374,0.0035879349837610874,-0.0035879349837610874
147.375,0.05088105850751923,0.05088105850751923
147.376,0.0861005222921265,0.0861005222921265
147.377,0.08939924649995135,0.08939924649995135
147.378,0.056988239240033156,0.056988239240033156
147.37900000000002,0.0042512676037279595,-0.0042512676037279595
147.38,0.07838367634947907,-0.07838367634947907
147.381,0.1450138011795593,-0.1450138011795593
147.382,0.18542841899181095,-0.18542841899181095
147.383,0.1883157494088763,-0.1883157494088763
147.384,0.15321365891699124,-0.15321365891699124
147.38500000000002,0.09057472019460255,-0.09057472019460255
147.386,0.018441911567291358,-0.018441911567291358
147.387,0.04317066374884604,0.04317066374884604
147.388,0.07837046470285802,0.07837046470285802
147.389,0.08001453910187117,0.08001453910187117
147.39,0.05145613511052449,0.05145613511052449
147.39100000000002,0.004963739111961463,0.004963739111961463
147.392,0.04254889465516565,-0.04254889465516565
147.393,0.0750081041168923,-0.0750081041168923
147.394,0.08208960756925987,-0.08208960756925987
147.395,0.062042751946388974,-0.062042751946388974
147.39600000000002,0.021680620438029652,-0.021680620438029652
147.39700000000002,0.026254505032680342,0.026254505032680342
147.398,0.06731530588365309,0.06731530588365309
147.399,0.08970382433082458,0.08970382433082458
147.4,0.08738833284178193,0.08738833284178193
147.401,0.06115250613570633,0.06115250613570633
147.40200000000002,0.017510551527450513,0.017510551527450513
147.40300000000002,0.03387090543806892,-0.03387090543806892
147.404,0.08319442865087223,-0.08319442865087223
147.405,0.12295238682354803,-0.12295238682354803
147.406,0.149078265833262,-0.149078265833262
147.407,0.1607312367747198,-0.1607312367747198
147.40800000000002,0.15914727420574004,-0.15914727420574004
147.40900000000002,0.14627965536164456,-0.14627965536164456
147.41,0.12390771291536684,-0.12390771291536684
147.411,0.09356163368726123,-0.09356163368726123
147.412,0.057152908542227876,-0.057152908542227876
147.413,0.017819831036828493,-0.017819831036828493
147.41400000000002,0.019638971069303013,0.019638971069303013
147.41500000000002,0.04920291244466357,0.04920291244466357
147.416,0.06499895021381508,0.06499895021381508
147.417,0.06319762766068582,0.06319762766068582
147.418,0.04370618322691611,0.04370618322691611
147.419,0.010894059511019405,0.010894059511019405
147.42000000000002,0.027122818730272114,-0.027122818730272114
147.42100000000002,0.060591807964587074,-0.060591807964587074
147.422,0.08102505185895925,-0.08102505185895925
147.423,0.08392151364180689,-0.08392151364180689
147.424,0.07031485112679259,-0.07031485112679259
147.425,0.046507354080080776,-0.046507354080080776
147.42600000000002,0.021971696375724603,-0.021971696375724603
147.42700000000002,0.006070748236685519,-0.006070748236685519
147.428,0.004712782615537092,-0.004712782615537092
147.429,0.018140807743803222,-0.018140807743803222
147.43,0.04070188792106777,-0.04070188792106777
147.431,0.06276535326770638,-0.06276535326770638
147.43200000000002,0.07419131914013144,-0.07419131914013144
147.43300000000002,0.06816790476965917,-0.06816790476965917
147.434,0.044053955665883326,-0.044053955665883326
147.435,0.008162435278399327,-0.008162435278399327
147.436,0.027893876823404273,0.027893876823404273
147.437,0.050831036014537645,0.050831036014537645
147.43800000000002,0.05012985063769837,0.05012985063769837
147.43900000000002,0.021796148438417706,0.021796148438417706
147.44,0.029848191742971486,-0.029848191742971486
147.441,0.09300085856654239,-0.09300085856654239
147.442,0.1516305694203539,-0.1516305694203539
147.443,0.19012981565028197,-0.19012981565028197
147.44400000000002,0.19788965614994392,-0.19788965614994392
147.44500000000002,0.17234860326184387,-0.17234860326184387
147.446,0.11958008238549533,-0.11958008238549533
147.447,0.05229677787199305,-0.05229677787199305
147.448,0.01401484204697434,0.01401484204697434
147.449,0.06554231404687849,0.06554231404687849
147.45000000000002,0.09376214919591908,0.09376214919591908
147.45100000000002,0.09715334038633738,0.09715334038633738
147.452,0.08062526473226628,0.08062526473226628
147.453,0.05305082622149904,0.05305082622149904
147.454,0.023892183533626543,0.023892183533626543
147.455,0.0001288386798310448,0.0001288386798310448
147.45600000000002,0.01551004222564678,-0.01551004222564678
147.45700000000002,0.024548065042117928,-0.024548065042117928
147.458,0.031201414449169018,-0.031201414449169018
147.459,0.04000169842954038,-0.04000169842954038
147.46,0.053582135548911114,-0.053582135548911114
147.461,0.071466622259993,-0.071466622259993
147.46200000000002,0.09025807712089096,-0.09025807712089096
147.463,0.10505752461869133,-0.10505752461869133
147.464,0.11147613500467135,-0.11147613500467135
147.465,0.10740150686412209,-0.10740150686412209
147.466,0.09381213186317594,-0.09381213186317594
147.467,0.07433732548103655,-0.07433732548103655
147.46800000000002,0.053770344370224765,-0.053770344370224765
147.469,0.03615989061175007,-0.03615989061175007
147.47,0.02326953563867795,-0.02326953563867795
147.471,0.014045164713804126,-0.014045164713804126
147.472,0.005327537785264402,-0.005327537785264402
147.473,0.006452924858677989,0.006452924858677989
147.47400000000002,0.023266160356669507,0.023266160356669507
147.475,0.043976459160147696,0.043976459160147696
147.476,0.06399873124592004,0.06399873124592004
147.477,0.07635788554000866,0.07635788554000866
147.478,0.07387068400686236,0.07387068400686236
147.479,0.051735747698685275,0.051735747698685275
147.48000000000002,0.009631874185613176,0.009631874185613176
147.481,0.04744217172045895,-0.04744217172045895
147.482,0.10994644366502349,-0.10994644366502349
147.483,0.16601940034655405,-0.16601940034655405
147.484,0.2044800809276367,-0.2044800809276367
147.485,0.21769772150821864,-0.21769772150821864
147.48600000000002,0.20346530339174174,-0.20346530339174174
147.487,0.165349327484405,-0.165349327484405
147.488,0.11148557484467914,-0.11148557484467914
147.489,0.05227524333484168,-0.05227524333484168
147.49,0.002255595080012718,0.002255595080012718
147.491,0.04463264451319415,0.04463264451319415
147.49200000000002,0.0710746993862934,0.0710746993862934
147.493,0.0814268609537856,0.0814268609537856
147.494,0.07813003228455573,0.07813003228455573
147.495,0.06475854160410055,0.06475854160410055
147.496,0.04472368322581599,0.04472368322581599
147.497,0.02058016000604934,0.02058016000604934
147.49800000000002,0.005936359779030953,-0.005936359779030953
147.499,0.03333980168686923,-0.03333980168686923
147.5,0.059708657540138876,-0.059708657540138876
147.501,0.08232817661124314,-0.08232817661124314
147.502,0.09793573941625278,-0.09793573941625278
147.503,0.10355825784019579,-0.10355825784019579
147.50400000000002,0.09764191754371765,-0.09764191754371765
147.505,0.08100274865962964,-0.08100274865962964
147.506,0.05714346877787513,-0.05714346877787513
147.507,0.031686765565733355,-0.031686765565733355
147.508,0.010994276245465007,-0.010994276245465007
147.509,0.00035593401070743713,-0.00035593401070743713
147.51000000000002,0.0023273725029125947,-0.0023273725029125947
147.511,0.015788092187447478,-0.015788092187447478
147.512,0.03608517867583294,-0.03608517867583294
147.513,0.05628404669471265,-0.05628404669471265
147.514,0.06918473098436762,-0.06918473098436762
147.515,0.06950275636727221,-0.06950275636727221
147.51600000000002,0.055545321144020665,-0.055545321144020665
147.517,0.029859325767922607,-0.029859325767922607
147.518,0.0013606233581546778,0.0013606233581546778
147.519,0.029940174859952595,0.029940174859952595
147.52,0.04798426083113583,0.04798426083113583
147.52100000000002,0.05007433387926019,0.05007433387926019
147.52200000000002,0.034781608097639305,0.034781608097639305
147.523,0.005085461494723109,0.005085461494723109
147.524,0.032393595514742746,-0.032393595514742746
147.525,0.06910738247033277,-0.06910738247033277
147.526,0.09675654559324076,-0.09675654559324076
147.52700000000002,0.10934913602168661,-0.10934913602168661
147.52800000000002,0.10462357056483618,-0.10462357056483618
147.529,0.08451024025469422,-0.08451024025469422
147.53,0.05456373779743262,-0.05456373779743262
147.531,0.02254927671730722,-0.02254927671730722
147.532,0.003447575139603254,0.003447575139603254
147.53300000000002,0.01693391401053157,0.01693391401053157
147.53400000000002,0.014513234443610079,0.014513234443610079
147.535,0.0033412634489370374,-0.0033412634489370374
147.536,0.0323969134993799,-0.0323969134993799
147.537,0.06561977542906594,-0.06561977542906594
147.538,0.09477012580898492,-0.09477012580898492
147.53900000000002,0.1122922471148633,-0.1122922471148633
147.54000000000002,0.11308842023925336,-0.11308842023925336
147.541,0.09577976163474611,-0.09577976163474611
147.542,0.06315272408209616,-0.06315272408209616
147.543,0.021658377030531528,-0.021658377030531528
147.544,0.019956847447340387,0.019956847447340387
147.54500000000002,0.05260001998135122,0.05260001998135122
147.54600000000002,0.06891476469746372,0.06891476469746372
147.547,0.06499701577956474,0.06499701577956474
147.548,0.04131201530911244,0.04131201530911244
147.549,0.002569867102369283,0.002569867102369283
147.55,0.04341864222043523,-0.04341864222043523
147.55100000000002,0.0876143856872551,-0.0876143856872551
147.55200000000002,0.12186137742246905,-0.12186137742246905
147.553,0.14068461250542863,-0.14068461250542863
147.554,0.1423149912470013,-0.1423149912470013
147.555,0.12870843923282904,-0.12870843923282904
147.556,0.1046185743893423,-0.1046185743893423
147.55700000000002,0.07605081444055295,-0.07605081444055295
147.55800000000002,0.048587355668711085,-0.048587355668711085
147.559,0.02607770936781162,-0.02607770936781162
147.56,0.010040203591767605,-0.010040203591767605
147.561,0.00013131970914836977,0.00013131970914836977
147.562,0.006328626300187823,0.006328626300187823
147.56300000000002,0.010624699167901541,0.010624699167901541
147.56400000000002,0.014327937106976663,0.014327937106976663
147.565,0.017526038922237586,0.017526038922237586
147.566,0.01924572081100573,0.01924572081100573
147.567,0.018114336088229877,0.018114336088229877
147.568,0.013221525817380453,0.013221525817380453
147.56900000000002,0.004809665653018325,0.004809665653018325
147.57000000000002,0.005506691618729631,-0.005506691618729631
147.571,0.015109072628814668,-0.015109072628814668
147.572,0.021221904700051253,-0.021221904700051253
147.573,0.02194326559108739,-0.02194326559108739
147.574,0.017086588189259233,-0.017086588189259233
147.57500000000002,0.008516032983336808,-0.008516032983336808
147.57600000000002,0.00017383492284395174,0.00017383492284395174
147.577,0.004564451477193865,0.004564451477193865
147.578,0.0006433993627996681,0.0006433993627996681
147.579,0.014005465377110005,-0.014005465377110005
147.58,0.03939570675947479,-0.03939570675947479
147.58100000000002,0.07293221062638389,-0.07293221062638389
147.58200000000002,0.10983710149749704,-0.10983710149749704
147.583,0.1440637500689702,-0.1440637500689702
147.584,0.16944456618419013,-0.16944456618419013
147.585,0.18080020804414798,-0.18080020804414798
147.586,0.17480220653288214,-0.17480220653288214
147.58700000000002,0.15048866231341518,-0.15048866231341518
147.588,0.10943395812477297,-0.10943395812477297
147.589,0.05562991118160221,-0.05562991118160221
147.59,0.00486404969118337,0.00486404969118337
147.591,0.06448169596823039,0.06448169596823039
147.592,0.11493894778723401,0.11493894778723401
147.59300000000002,0.14826630176771993,0.14826630176771993
147.594,0.15804054676185442,0.15804054676185442
147.595,0.1406668391826955,0.1406668391826955
147.596,0.09645395507585697,0.09645395507585697
147.597,0.03016881362720647,0.03016881362720647
147.598,0.049203872907329416,-0.049203872907329416
147.59900000000002,0.12962152443305064,-0.12962152443305064
147.6,0.19795790220656995,-0.19795790220656995
147.601,0.24244150970712286,-0.24244150970712286
147.602,0.25502985850101956,-0.25502985850101956
147.603,0.23314761427730846,-0.23314761427730846
147.604,0.1803359496260244,-0.1803359496260244
147.60500000000002,0.1056182190448911,-0.1056182190448911
147.606,0.021711356273435123,-0.021711356273435123
147.607,0.05749346102755104,0.05749346102755104
147.608,0.11958220663103236,0.11958220663103236
147.609,0.1557974817319141,0.1557974817319141
147.61,0.16230222512976766,0.16230222512976766
147.61100000000002,0.14035223783701123,0.14035223783701123
147.612,0.09548994469316363,0.09548994469316363
147.613,0.036090245059403614,0.036090245059403614
147.614,0.028319779953133617,-0.028319779953133617
147.615,0.08859126242208015,-0.08859126242208015
147.616,0.13710118205532607,-0.13710118205532607
147.61700000000002,0.1684562159502262,-0.1684562159502262
147.618,0.17982285137373677,-0.17982285137373677
147.619,0.17100161536072433,-0.17100161536072433
147.62,0.14432746961249932,-0.14432746961249932
147.621,0.1043978459663375,-0.1043978459663375
147.622,0.05756288780522256,-0.05756288780522256
147.62300000000002,0.011109360839248295,-0.011109360839248295
147.624,0.027852051255827126,0.027852051255827126
147.625,0.0536520299116392,0.0536520299116392
147.626,0.06320547219594896,0.06320547219594896
147.627,0.05669813599329965,0.05669813599329965
147.628,0.037544223677608235,0.037544223677608235
147.62900000000002,0.011524534193261271,0.011524534193261271
147.63,0.014731545681634373,-0.014731545681634373
147.631,0.03552001818843997,-0.03552001818843997
147.632,0.047565234021917924,-0.047565234021917924
147.633,0.050769910567005416,-0.050769910567005416
147.634,0.04794941704579225,-0.04794941704579225
147.63500000000002,0.043616888811243815,-0.043616888811243815
147.636,0.04221427777000519,-0.04221427777000519
147.637,0.04639264245115404,-0.04639264245115404
147.638,0.055949500893551884,-0.055949500893551884
147.639,0.06781862441144726,-0.06781862441144726
147.64,0.07714426726707513,-0.07714426726707513
147.64100000000002,0.079082622461642,-0.079082622461642
147.642,0.07069887525815854,-0.07069887525815854
147.643,0.052273096630626736,-0.052273096630626736
147.644,0.027520332059952635,-0.027520332059952635
147.645,0.0026074880100817044,-0.0026074880100817044
147.64600000000002,0.015720509527796356,0.015720509527796356
147.64700000000002,0.022266444560044896,0.022266444560044896
147.648,0.015019154148047331,0.015019154148047331
147.649,0.004267278645402994,-0.004267278645402994
147.65,0.030746301688453936,-0.030746301688453936
147.651,0.0581428446471417,-0.0581428446471417
147.65200000000002,0.08078734428493461,-0.08078734428493461
147.65300000000002,0.09526863854265033,-0.09526863854265033
147.654,0.10110785264963351,-0.10110785264963351
147.655,0.10023914407540735,-0.10023914407540735
147.656,0.09555492980967972,-0.09555492980967972
147.657,0.08915253569068204,-0.08915253569068204
147.65800000000002,0.08105514004771053,-0.08105514004771053
147.65900000000002,0.06900980908505994,-0.06900980908505994
147.66,0.04954251772905449,-0.04954251772905449
147.661,0.01992787546080288,-0.01992787546080288
147.662,0.019690400542996755,0.019690400542996755
147.663,0.06494145731065903,0.06494145731065903
147.66400000000002,0.10734441286036045,0.10734441286036045
147.66500000000002,0.13611462974820476,0.13611462974820476
147.666,0.14124426074621965,0.14124426074621965
147.667,0.11691050660292124,0.11691050660292124
147.668,0.06403624133431118,0.06403624133431118
147.669,0.008991814240571716,-0.008991814240571716
147.67000000000002,0.08788943804753202,-0.08788943804753202
147.67100000000002,0.1560171915815568,-0.1560171915815568
147.672,0.19889654154270442,-0.19889654154270442
147.673,0.2083088458585931,-0.2083088458585931
147.674,0.18465307564688593,-0.18465307564688593
147.675,0.13675763585728573,-0.13675763585728573
147.67600000000002,0.07915201861383359,-0.07915201861383359
147.67700000000002,0.02763659144468278,-0.02763659144468278
147.678,0.005440769895353581,0.005440769895353581
147.679,0.014685051256215553,0.014685051256215553
147.68,0.0028159425172904484,0.0028159425172904484
147.681,0.020845197458518094,-0.020845197458518094
147.68200000000002,0.044003924088505064,-0.044003924088505064
147.68300000000002,0.05587070671645589,-0.05587070671645589
147.684,0.05094732058314866,-0.05094732058314866
147.685,0.030833213621983768,-0.030833213621983768
147.686,0.003457296066882165,-0.003457296066882165
147.687,0.01996345183274384,0.01996345183274384
147.68800000000002,0.02914874766335873,0.02914874766335873
147.68900000000002,0.018665064501078188,0.018665064501078188
147.69,0.009864527834801406,-0.009864527834801406
147.691,0.04804289071229284,-0.04804289071229284
147.692,0.08339848042844789,-0.08339848042844789
147.693,0.10358661774263833,-0.10358661774263833
147.69400000000002,0.10065414816601626,-0.10065414816601626
147.69500000000002,0.07390328753029651,-0.07390328753029651
147.696,0.030367355811277252,-0.030367355811277252
147.697,0.017276564271092365,0.017276564271092365
147.698,0.054666748439198276,0.054666748439198276
147.699,0.07027307837807428,0.07027307837807428
147.70000000000002,0.05898461513636488,0.05898461513636488
147.70100000000002,0.02361454433689958,0.02361454433689958
147.702,0.02611919115274086,-0.02611919115274086
147.703,0.07673682635514278,-0.07673682635514278
147.704,0.11517876366764956,-0.11517876366764956
147.705,0.13264373831190168,-0.13264373831190168
147.70600000000002,0.1268752973351669,-0.1268752973351669
147.70700000000002,0.10225990085044423,-0.10225990085044423
147.708,0.06785672840510837,-0.06785672840510837
147.709,0.034155284660010166,-0.034155284660010166
147.71,0.00972462969361032,-0.00972462969361032
147.711,0.0011331828962450885,0.0011331828962450885
147.71200000000002,0.000957281021589762,-0.000957281021589762
147.713,0.011517628430290028,-0.011517628430290028
147.714,0.024457607425339867,-0.024457607425339867
147.715,0.03455727247272222,-0.03455727247272222
147.716,0.03925452073608737,-0.03925452073608737
147.717,0.03913886164658986,-0.03913886164658986
147.71800000000002,0.037087990728179365,-0.037087990728179365
147.719,0.03651114719998849,-0.03651114719998849
147.72,0.039485913683503626,-0.039485913683503626
147.721,0.04558028906301448,-0.04558028906301448
147.722,0.05184925567508114,-0.05184925567508114
147.723,0.05400952873602993,-0.05400952873602993
147.72400000000002,0.04831806160876062,-0.04831806160876062
147.725,0.03339237929885164,-0.03339237929885164
147.726,0.011221653725594027,-0.011221653725594027
147.727,0.013080003901523751,0.013080003901523751
147.728,0.03274892509411975,0.03274892509411975
147.729,0.04157566068119367,0.04157566068119367
147.73000000000002,0.03604999737560477,0.03604999737560477
147.731,0.01666532000652743,0.01666532000652743
147.732,0.012103869029264192,-0.012103869029264192
147.733,0.04316103381161074,-0.04316103381161074
147.734,0.06901218387015506,-0.06901218387015506
147.735,0.08407665325634073,-0.08407665325634073
147.73600000000002,0.08628177957917327,-0.08628177957917327
147.737,0.07740811534172176,-0.07740811534172176
147.738,0.06211184798215241,-0.06211184798215241
147.739,0.04603163923397824,-0.04603163923397824
147.74,0.03371094133891395,-0.03371094133891395
147.741,0.02711558148129667,-0.02711558148129667
147.74200000000002,0.025283767417461966,-0.025283767417461966
147.743,0.025203293922401726,-0.025203293922401726
147.744,0.023534261770327025,-0.023534261770327025
147.745,0.018463701859193327,-0.018463701859193327
147.746,0.010916989264476706,-0.010916989264476706
147.747,0.004586324605464376,-0.004586324605464376
147.74800000000002,0.004685512066182618,-0.004685512066182618
147.749,0.015839118000508856,-0.015839118000508856
147.75,0.03987777525898195,-0.03987777525898195
147.751,0.07440054031381838,-0.07440054031381838
147.752,0.11273742412385035,-0.11273742412385035
147.753,0.14547206119159928,-0.14547206119159928
147.75400000000002,0.1631278882906263,-0.1631278882906263
147.755,0.15917749264374426,-0.15917749264374426
147.756,0.13236581090028243,-0.13236581090028243
147.757,0.08751339382107015,-0.08751339382107015
147.758,0.034437531203658,-0.034437531203658
147.759,0.014755507486456931,0.014755507486456931
147.76000000000002,0.04919991082056541,0.04919991082056541
147.761,0.0625111542217307,0.0625111542217307
147.762,0.054684538535925364,0.054684538535925364
147.763,0.03200445284963793,0.03200445284963793
147.764,0.004947735710750578,0.004947735710750578
147.765,0.015284143257800253,-0.015284143257800253
147.76600000000002,0.020509849617739273,-0.020509849617739273
147.767,0.00838121147518156,-0.00838121147518156
147.768,0.016670477176047305,0.016670477176047305
147.769,0.04470983281605401,0.04470983281605401
147.77,0.06344424627993495,0.06344424627993495
147.77100000000002,0.062284863849356276,0.062284863849356276
147.77200000000002,0.03604920807809986,0.03604920807809986
147.773,0.012886555774897168,-0.012886555774897168
147.774,0.0747215966372563,-0.0747215966372563
147.775,0.1346923467916109,-0.1346923467916109
147.776,0.1771843931781244,-0.1771843931781244
147.77700000000002,0.1902929842680967,-0.1902929842680967
147.77800000000002,0.16946661098721005,-0.16946661098721005
147.779,0.11911687765641332,-0.11911687765641332
147.78,0.05166784324592666,-0.05166784324592666
147.781,0.01572638746302557,0.01572638746302557
147.782,0.06587213969280303,0.06587213969280303
147.78300000000002,0.08628569186353507,0.08628569186353507
147.78400000000002,0.07262566530728098,0.07262566530728098
147.785,0.02981282829512044,0.02981282829512044
147.786,0.029481725898605537,-0.029481725898605537
147.787,0.08852771672824533,-0.08852771672824533
147.788,0.1313169878856698,-0.1313169878856698
147.78900000000002,0.14703320750735271,-0.14703320750735271
147.79000000000002,0.13291277516737487,-0.13291277516737487
147.791,0.09468985640067418,-0.09468985640067418
147.792,0.044546537922763974,-0.044546537922763974
147.793,0.0027643391620313373,0.0027643391620313373
147.794,0.034416629087137274,0.034416629087137274
147.79500000000002,0.043252529497247005,0.043252529497247005
147.79600000000002,0.029644696417326033,0.029644696417326033
147.797,0.0009509008160257792,0.0009509008160257792
147.798,0.031211540182715214,-0.031211540182715214
147.799,0.05496429563955929,-0.05496429563955929
147.8,0.062139966489877074,-0.062139966489877074
147.80100000000002,0.05094742309174216,-0.05094742309174216
147.80200000000002,0.026477261973320565,-0.026477261973320565
147.803,0.0011055783719939871,0.0011055783719939871
147.804,0.020083373940834592,0.020083373940834592
147.805,0.02126106138197037,0.02126106138197037
147.806,0.0012470075707426975,0.0012470075707426975
147.80700000000002,0.03615925216968985,-0.03615925216968985
147.80800000000002,0.08095823234269228,-0.08095823234269228
147.809,0.12002755224472894,-0.12002755224472894
147.81,0.14129940578808908,-0.14129940578808908
147.811,0.13767662577976192,-0.13767662577976192
147.812,0.10939404391284735,-0.10939404391284735
147.81300000000002,0.06402947110392376,-0.06402947110392376
147.81400000000002,0.014136934179857397,-0.014136934179857397
147.815,0.026737494991321276,0.026737494991321276
147.816,0.048352165659282464,0.048352165659282464
147.817,0.04695748755376061,0.04695748755376061
147.818,0.02631187901101195,0.02631187901101195
147.81900000000002,0.0038173048293018708,-0.0038173048293018708
147.82000000000002,0.031167004854649738,-0.031167004854649738
147.821,0.04531903471742349,-0.04531903471742349
147.822,0.041387873756902116,-0.041387873756902116
147.823,0.021780528778309827,-0.021780528778309827
147.824,0.004604817936403549,0.004604817936403549
147.82500000000002,0.0255066472194605,0.0255066472194605
147.82600000000002,0.02971675632161097,0.02971675632161097
147.827,0.011284299554848998,0.011284299554848998
147.828,0.027955244047319305,-0.027955244047319305
147.829,0.07845144149300187,-0.07845144149300187
147.83,0.12567409560378018,-0.12567409560378018
147.83100000000002,0.15467564130890654,-0.15467564130890654
147.83200000000002,0.15500900291373765,-0.15500900291373765
147.833,0.12437660338462553,-0.12437660338462553
147.834,0.06977354069241593,-0.06977354069241593
147.835,0.005691356195248964,-0.005691356195248964
147.836,0.05009604632892972,0.05009604632892972
147.83700000000002,0.08185232987951419,0.08185232987951419
147.838,0.08062874843578394,0.08062874843578394
147.839,0.04695090196137297,0.04695090196137297
147.84,0.009385418978601456,-0.009385418978601456
147.841,0.0723107703592113,-0.0723107703592113
147.842,0.12429256394401289,-0.12429256394401289
147.84300000000002,0.1514342387261648,-0.1514342387261648
147.844,0.1472947112430224,-0.1472947112430224
147.845,0.11432042171195445,-0.11432042171195445
147.846,0.06257975988324382,-0.06257975988324382
147.847,0.006350501750556514,-0.006350501750556514
147.848,0.04024937506035142,0.04024937506035142
147.84900000000002,0.06717769386825134,0.06717769386825134
147.85,0.07077160860750586,0.07077160860750586
147.851,0.05388919449079976,0.05388919449079976
147.852,0.02408273716432796,0.02408273716432796
147.853,0.009384632819297689,-0.009384632819297689
147.854,0.038574284546109006,-0.038574284546109006
147.85500000000002,0.058961737908085454,-0.058961737908085454
147.856,0.07002087429631298,-0.07002087429631298
147.857,0.07433124494548926,-0.07433124494548926
147.858,0.07575455531978403,-0.07575455531978403
147.859,0.07749350105096342,-0.07749350105096342
147.86,0.08078725396918407,-0.08078725396918407
147.86100000000002,0.08466309348550183,-0.08466309348550183
147.862,0.08670246560355799,-0.08670246560355799
147.863,0.08437913557513299,-0.08437913557513299
147.864,0.07633838737290599,-0.07633838737290599
147.865,0.06306871810133485,-0.06306871810133485
147.866,0.046719935860934814,-0.046719935860934814
147.86700000000002,0.030207323137264375,-0.030207323137264375
147.868,0.016046243843146124,-0.016046243843146124
147.869,0.005460297886839438,-0.005460297886839438
147.87,0.001836981176457364,0.001836981176457364
147.871,0.0071055590803486,0.0071055590803486
147.872,0.01156046848628245,0.01156046848628245
147.87300000000002,0.015379315913021774,0.015379315913021774
147.874,0.017253021560911463,0.017253021560911463
147.875,0.014769873352048712,0.014769873352048712
147.876,0.005548912477543855,0.005548912477543855
147.877,0.011325837509994496,-0.011325837509994496
147.878,0.034213794207791914,-0.034213794207791914
147.87900000000002,0.0587410255969113,-0.0587410255969113
147.88,0.07878215012118617,-0.07878215012118617
147.881,0.08837736981752742,-0.08837736981752742
147.882,0.08393800699430898,-0.08393800699430898
147.883,0.06589393399222176,-0.06589393399222176
147.884,0.03906051227093532,-0.03906051227093532
147.88500000000002,0.011429053213940499,-0.011429053213940499
147.886,0.008330963579761708,0.008330963579761708
147.887,0.013845046934712002,0.013845046934712002
147.888,0.0034140769658486114,0.0034140769658486114
147.889,0.019132423641526786,-0.019132423641526786
147.89,0.045543947518480676,-0.045543947518480676
147.89100000000002,0.065948878848762,-0.065948878848762
147.892,0.07242593579398904,-0.07242593579398904
147.893,0.06207468428560636,-0.06207468428560636
147.894,0.038412595813408945,-0.038412595813408945
147.895,0.010469064692139263,-0.010469064692139263
147.89600000000002,0.010242225098376245,0.010242225098376245
147.89700000000002,0.013896833278081333,0.013896833278081333
147.898,0.0037802739667951446,-0.0037802739667951446
147.899,0.03940456510665313,-0.03940456510665313
147.9,0.08246013940585173,-0.08246013940585173
147.901,0.11845260595062346,-0.11845260595062346
147.90200000000002,0.13372642249402578,-0.13372642249402578
147.90300000000002,0.12033528492427914,-0.12033528492427914
147.904,0.07924675047962582,-0.07924675047962582
147.905,0.02066191348301205,-0.02066191348301205
147.906,0.03881433219763486,0.03881433219763486
147.907,0.08132771438116104,0.08132771438116104
147.90800000000002,0.09358561573659818,0.09358561573659818
147.90900000000002,0.07136537169864487,0.07136537169864487
147.91,0.0211419981874319,0.0211419981874319
147.911,0.04180126020918029,-0.04180126020918029
147.912,0.09822840649481035,-0.09822840649481035
147.913,0.13119436993262268,-0.13119436993262268
147.91400000000002,0.13159405203557784,-0.13159405203557784
147.91500000000002,0.10113618597056928,-0.10113618597056928
147.916,0.051713277108367706,-0.051713277108367706
147.917,0.0013552831395734488,-0.0013552831395734488
147.918,0.031880118231824905,0.031880118231824905
147.919,0.03601671200414236,0.03601671200414236
147.92000000000002,0.009196528990276898,0.009196528990276898
147.92100000000002,0.03972514697942908,-0.03972514697942908
147.922,0.09422217134230515,-0.09422217134230515
147.923,0.13573126120023282,-0.13573126120023282
147.924,0.14994914140118532,-0.14994914140118532
147.925,0.13164671090696556,-0.13164671090696556
147.92600000000002,0.08637228822528686,-0.08637228822528686
147.92700000000002,0.028489889392458334,-0.028489889392458334
147.928,0.0237450515353701,0.0237450515353701
147.929,0.05436496583200401,0.05436496583200401
147.93,0.05500693730192818,0.05500693730192818
147.931,0.027569954516029505,0.027569954516029505
147.93200000000002,0.016652058869668362,-0.016652058869668362
147.93300000000002,0.06101037103935614,-0.06101037103935614
147.934,0.08928655853834644,-0.08928655853834644
147.935,0.09122401874370645,-0.09122401874370645
147.936,0.06593079097393939,-0.06593079097393939
147.937,0.02204061828790549,-0.02204061828790549
147.93800000000002,0.025354783364196054,0.025354783364196054
147.93900000000002,0.059893403076833884,0.059893403076833884
147.94,0.06945076801271055,0.06945076801271055
147.941,0.05010819647107079,0.05010819647107079
147.942,0.007295621362769067,0.007295621362769067
147.943,0.04618453114737886,-0.04618453114737886
147.94400000000002,0.09448783903309199,-0.09448783903309199
147.94500000000002,0.12388797994707357,-0.12388797994707357
147.946,0.12702753250901033,-0.12702753250901033
147.947,0.10490342357756366,-0.10490342357756366
147.948,0.06605400071728851,-0.06605400071728851
147.949,0.023376322205163502,-0.023376322205163502
147.95000000000002,0.010233092194193771,0.010233092194193771
147.95100000000002,0.025904208296353648,0.025904208296353648
147.952,0.021190762193352475,0.021190762193352475
147.953,0.00018335390732815426,0.00018335390732815426
147.954,0.028499568732697766,-0.028499568732697766
147.955,0.05497994446275345,-0.05497994446275345
147.95600000000002,0.0714355337156447,-0.0714355337156447
147.95700000000002,0.07434853333588431,-0.07434853333588431
147.958,0.06504904772602671,-0.06504904772602671
147.959,0.04856961722217856,-0.04856961722217856
147.96,0.03141227027637872,-0.03141227027637872
147.961,0.019141717171751615,-0.019141717171751615
147.96200000000002,0.014669290635953236,-0.014669290635953236
147.963,0.01773421289064725,-0.01773421289064725
147.964,0.02558468716679685,-0.02558468716679685
147.965,0.03441562704666634,-0.03441562704666634
147.966,0.04089756413186785,-0.04089756413186785
147.967,0.04319693036745309,-0.04319693036745309
147.96800000000002,0.04118690490075949,-0.04118690490075949
147.969,0.03593581490823872,-0.03593581490823872
147.97,0.02886572659526243,-0.02886572659526243
147.971,0.02107139208278419,-0.02107139208278419
147.972,0.013148683158629049,-0.013148683158629049
147.973,0.00557691200892918,-0.00557691200892918
147.97400000000002,0.0006229272400122277,0.0006229272400122277
147.975,0.0034182711693921952,0.0034182711693921952
147.976,9.659958182273165e-05,-9.659958182273165e-05
147.977,0.012801920190447125,-0.012801920190447125
147.978,0.03612460592508793,-0.03612460592508793
147.979,0.06864232269024784,-0.06864232269024784
147.98000000000002,0.10540008702255,-0.10540008702255
147.981,0.13844957152164816,-0.13844957152164816
147.982,0.158698718794284,-0.158698718794284
147.983,0.15863252430069752,-0.15863252430069752
147.984,0.13504047190298507,-0.13504047190298507
147.985,0.0907461757847221,-0.0907461757847221
147.98600000000002,0.03456751165579064,-0.03456751165579064
147.987,0.020710579193640388,0.020710579193640388
147.988,0.06187368578395902,0.06187368578395902
147.989,0.07926218449671363,0.07926218449671363
147.99,0.0698865184218802,0.0698865184218802
147.991,0.0385589582330077,0.0385589582330077
147.99200000000002,0.003460180208479824,-0.003460180208479824
147.993,0.04197485135323631,-0.04197485135323631
147.994,0.06443615643525014,-0.06443615643525014
147.995,0.06408954461826155,-0.06408954461826155
147.996,0.04226890411345008,-0.04226890411345008
147.997,0.008006024308523041,-0.008006024308523041
147.99800000000002,0.024980450378409236,0.024980450378409236
147.999,0.0429509662495029,0.0429509662495029
148.0,0.03690847866317282,0.03690847866317282
148.001,0.005834887855784343,0.005834887855784343
148.002,0.04273050096961051,-0.04273050096961051
148.003,0.09500807567837721,-0.09500807567837721
148.00400000000002,0.1354388333084876,-0.1354388333084876
148.005,0.15179489935815216,-0.15179489935815216
148.006,0.1392110076695553,-0.1392110076695553
148.007,0.10176841970270367,-0.10176841970270367
148.008,0.05109677500094911,-0.05109677500094911
148.009,0.0024799314533229255,-0.0024799314533229255
148.01000000000002,0.030195257886109772,0.030195257886109772
148.011,0.03892001654447652,0.03892001654447652
148.012,0.023958648010576455,0.023958648010576455
148.013,0.006622605606607768,-0.006622605606607768
148.014,0.040071497183490457,-0.040071497183490457
148.015,0.06357391624089992,-0.06357391624089992
148.01600000000002,0.06874118104170823,-0.06874118104170823
148.017,0.05438994195032798,-0.05438994195032798
148.018,0.026671527201797773,-0.026671527201797773
148.019,0.003437685444930505,0.003437685444930505
148.02,0.02433172233416614,0.02433172233416614
148.02100000000002,0.028109479697253192,0.028109479697253192
148.02200000000002,0.013465723249855621,0.013465723249855621
148.023,0.013910488379341834,-0.013910488379341834
148.024,0.04356845132598375,-0.04356845132598375
148.025,0.0643365555137112,-0.0643365555137112
148.026,0.06868080684916988,-0.06868080684916988
148.02700000000002,0.05575863291458505,-0.05575863291458505
148.02800000000002,0.03199951977431503,-0.03199951977431503
148.029,0.008926779464284218,-0.008926779464284218
148.03,0.0010649624853249495,0.0010649624853249495
148.031,0.01050042186474387,-0.01050042186474387
148.032,0.04455045184073736,-0.04455045184073736
148.03300000000002,0.09336183838873824,-0.09336183838873824
148.03400000000002,0.14250333962165262,-0.14250333962165262
148.035,0.17528748603144217,-0.17528748603144217
148.036,0.17830288806595151,-0.17830288806595151
148.037,0.14617922009708217,-0.14617922009708217
148.038,0.0839411028033561,-0.0839411028033561
148.03900000000002,0.006073654672305695,-0.006073654672305695
148.04000000000002,0.06750198473210633,0.06750198473210633
148.041,0.11731972510404276,0.11731972510404276
148.042,0.13027139806013666,0.13027139806013666
148.043,0.1036405615717857,0.1036405615717857
148.044,0.045974752036993305,0.045974752036993305
148.04500000000002,0.025488215505278355,-0.025488215505278355
148.04600000000002,0.0900284091596234,-0.0900284091596234
148.047,0.12964845029349426,-0.12964845029349426
148.048,0.13434380214920394,-0.13434380214920394
148.049,0.10483399178910902,-0.10483399178910902
148.05,0.05197808657747349,-0.05197808657747349
148.05100000000002,0.006849589487002206,0.006849589487002206
148.05200000000002,0.053212463157813694,0.053212463157813694
148.053,0.07315899554295124,0.07315899554295124
148.054,0.061169821238646005,0.061169821238646005
148.055,0.021379149843711698,0.021379149843711698
148.056,0.03416022985137135,-0.03416022985137135
148.05700000000002,0.0894761900756279,-0.0894761900756279
148.05800000000002,0.12959104239792285,-0.12959104239792285
148.059,0.14480147116402498,-0.14480147116402498
148.06,0.13307303211395516,-0.13307303211395516
148.061,0.09996600391647548,-0.09996600391647548
148.062,0.05631399793651182,-0.05631399793651182
148.06300000000002,0.014553421543753498,-0.014553421543753498
148.06400000000002,0.015055079979006791,0.015055079979006791
148.065,0.02714709029861062,0.02714709029861062
148.066,0.02218747827827494,0.02218747827827494
148.067,0.005516429061110273,0.005516429061110273
148.068,0.014986890010520448,-0.014986890010520448
148.06900000000002,0.03173225794739698,-0.03173225794739698
148.07000000000002,0.03978499229361021,-0.03978499229361021
148.071,0.03807077398213321,-0.03807077398213321
148.072,0.0291732400764787,-0.0291732400764787
148.073,0.01796680773843884,-0.01796680773843884
148.074,0.00968261651279656,-0.00968261651279656
148.07500000000002,0.00812228098356993,-0.00812228098356993
148.07600000000002,0.014596569842896923,-0.014596569842896923
148.077,0.027846654201772902,-0.027846654201772902
148.078,0.04483278974536575,-0.04483278974536575
148.079,0.06198488233490773,-0.06198488233490773
148.08,0.07639622023272963,-0.07639622023272963
148.08100000000002,0.0865296494780724,-0.0865296494780724
148.08200000000002,0.092244377579074,-0.092244377579074
148.083,0.09424023581289054,-0.09424023581289054
148.084,0.09324235302409933,-0.09324235302409933
148.085,0.08933090758677198,-0.08933090758677198
148.086,0.08173467814719315,-0.08173467814719315
148.08700000000002,0.06919456105386279,-0.06919456105386279
148.088,0.050751503875238635,-0.050751503875238635
148.089,0.02662213848175199,-0.02662213848175199
148.09,0.0012306834711193204,0.0012306834711193204
148.091,0.029124130667485648,0.029124130667485648
148.092,0.05234953553427113,0.05234953553427113
148.09300000000002,0.06634867064246674,0.06634867064246674
148.094,0.06799055133217635,0.06799055133217635
148.095,0.056508055359660636,0.056508055359660636
148.096,0.03375709082093392,0.03375709082093392
148.097,0.0036928686658501686,0.0036928686658501686
148.098,0.02876448816115318,-0.02876448816115318
148.09900000000002,0.0590808613435847,-0.0590808613435847
148.1,0.08419929397154113,-0.08419929397154113
148.101,0.10298789675553488,-0.10298789675553488
148.102,0.1159007269467397,-0.1159007269467397
148.103,0.12401114736654006,-0.12401114736654006
148.104,0.12783337145800067,-0.12783337145800067
148.10500000000002,0.12645795300772356,-0.12645795300772356
148.106,0.11743988268351713,-0.11743988268351713
148.107,0.09761185188002053,-0.09761185188002053
148.108,0.06463506854078094,-0.06463506854078094
148.109,0.018771369191686982,-0.018771369191686982
148.11,0.035812414205749876,0.035812414205749876
148.11100000000002,0.09083488774336557,0.09083488774336557
148.112,0.13511323402677866,0.13511323402677866
148.113,0.15707143436102755,0.15707143436102755
148.114,0.14794646393387967,0.14794646393387967
148.115,0.10477179021004379,0.10477179021004379
148.116,0.032164133512412985,0.032164133512412985
148.11700000000002,0.057799796817111004,-0.057799796817111004
148.118,0.14781204994603125,-0.14781204994603125
148.119,0.2192345168091362,-0.2192345168091362
148.12,0.25669314364212314,-0.25669314364212314
148.121,0.252102525650302,-0.252102525650302
148.122,0.20694409687131976,-0.20694409687131976
148.12300000000002,0.1320716217529111,-0.1320716217529111
148.124,0.04501127823785711,-0.04501127823785711
148.125,0.03454421692785403,0.03454421692785403
148.126,0.08980283249142507,0.08980283249142507
148.127,0.11107403887117817,0.11107403887117817
148.128,0.09792062237722376,0.09792062237722376
148.12900000000002,0.05868503913709189,0.05868503913709189
148.13,0.0075976786807199215,0.0075976786807199215
148.131,0.03960721274531209,-0.03960721274531209
148.132,0.07021503327819112,-0.07021503327819112
148.133,0.07783973481934925,-0.07783973481934925
148.134,0.06358764865282263,-0.06358764865282263
148.13500000000002,0.034854771718595745,-0.034854771718595745
148.136,0.0022980162829492334,-0.0022980162829492334
148.137,0.023914198149716626,0.023914198149716626
148.138,0.03728314067038618,0.03728314067038618
148.139,0.03655807946301959,0.03655807946301959
148.14,0.02527725985713336,0.02527725985713336
148.14100000000002,0.00957375040044961,0.00957375040044961
148.142,0.004835386699590716,-0.004835386699590716
148.143,0.015278264186792012,-0.015278264186792012
148.144,0.023333613979940937,-0.023333613979940937
148.145,0.03411003263056922,-0.03411003263056922
148.14600000000002,0.053830033805224664,-0.053830033805224664
148.14700000000002,0.08661534563241668,-0.08661534563241668
148.148,0.13172372584525138,-0.13172372584525138
148.149,0.1823912717039814,-0.1823912717039814
148.15,0.2269061617620851,-0.2269061617620851
148.151,0.25175336025666384,-0.25175336025666384
148.15200000000002,0.24589683892669822,-0.24589683892669822
148.15300000000002,0.20478363370720576,-0.20478363370720576
148.154,0.13264767717182313,-0.13264767717182313
148.155,0.04218539721133152,-0.04218539721133152
148.156,0.04848066522125083,0.04848066522125083
148.157,0.12071797650607263,0.12071797650607263
148.15800000000002,0.1606738930966869,0.1606738930966869
148.15900000000002,0.16324332791731977,0.16324332791731977
148.16,0.1333948540706391,0.1333948540706391
148.161,0.08436994158855082,0.08436994158855082
148.162,0.033292117332548,0.033292117332548
148.163,0.004408333989022628,-0.004408333989022628
148.16400000000002,0.01993100001021675,-0.01993100001021675
148.16500000000002,0.013765649574813632,-0.013765649574813632
148.166,0.00482285703167995,0.00482285703167995
148.167,0.021331101615259973,0.021331101615259973
148.168,0.02140335889372147,0.02140335889372147
148.169,0.003742945772570727,-0.003742945772570727
148.17000000000002,0.05370207568025376,-0.05370207568025376
148.17100000000002,0.11834267089776929,-0.11834267089776929
148.172,0.18060112539232753,-0.18060112539232753
148.173,0.22174709182821561,-0.22174709182821561
148.174,0.22742606071053217,-0.22742606071053217
148.175,0.19250417403412023,-0.19250417403412023
148.17600000000002,0.1231137025472474,-0.1231137025472474
148.17700000000002,0.03520166992816054,-0.03520166992816054
148.178,0.04998110562063407,0.04998110562063407
148.179,0.11202450091620952,0.11202450091620952
148.18,0.13719476110525197,0.13719476110525197
148.181,0.12214187258784759,0.12214187258784759
148.18200000000002,0.07437313980032267,0.07437313980032267
148.18300000000002,0.009448000694815883,0.009448000694815883
148.184,0.05410039739393102,-0.05410039739393102
148.185,0.10041792197754384,-0.10041792197754384
148.186,0.12074190036799215,-0.12074190036799215
148.187,0.11524307774534115,-0.11524307774534115
148.18800000000002,0.09187151647739766,-0.09187151647739766
148.18900000000002,0.06278936104341082,-0.06278936104341082
148.19,0.03974334645673827,-0.03974334645673827
148.191,0.030010153495801384,-0.030010153495801384
148.192,0.03426160056604044,-0.03426160056604044
148.193,0.046963627510196115,-0.046963627510196115
148.19400000000002,0.0590119473102475,-0.0590119473102475
148.19500000000002,0.061539432958927054,-0.061539432958927054
148.196,0.04946681437852163,-0.04946681437852163
148.197,0.02352098285908677,-0.02352098285908677
148.198,0.0099577506971249,0.0099577506971249
148.199,0.04128198110628034,0.04128198110628034
148.20000000000002,0.060879799259446754,0.060879799259446754
148.20100000000002,0.06267239901697663,0.06267239901697663
148.202,0.04615095651897927,0.04615095651897927
148.203,0.01643555271492092,0.01643555271492092
148.204,0.01765864282911489,-0.01765864282911489
148.205,0.04680725511494088,-0.04680725511494088
148.20600000000002,0.06444022686716344,-0.06444022686716344
148.20700000000002,0.0689049796051715,-0.0689049796051715
148.208,0.06376983121982338,-0.06376983121982338
148.209,0.05619106809096086,-0.05619106809096086
148.21,0.0539654214221752,-0.0539654214221752
148.211,0.062354748539359184,-0.062354748539359184
148.21200000000002,0.08184059458407011,-0.08184059458407011
148.213,0.10762514718461513,-0.10762514718461513
148.214,0.131070069169807,-0.131070069169807
148.215,0.14258122651495464,-0.14258122651495464
148.216,0.13494612148085516,-0.13494612148085516
148.217,0.10598265205601376,-0.10598265205601376
148.21800000000002,0.059605322525038695,-0.059605322525038695
148.219,0.004961627774265787,-0.004961627774265787
148.22,0.04606048942077634,0.04606048942077634
148.221,0.0821291303492726,0.0821291303492726
148.222,0.09551758025444657,0.09551758025444657
148.223,0.08398904679684516,0.08398904679684516
148.22400000000002,0.05102952697757179,0.05102952697757179
148.225,0.00450190085048785,0.00450190085048785
148.226,0.04571448772040565,-0.04571448772040565
148.227,0.09027613821268943,-0.09027613821268943
148.228,0.12234149142292428,-0.12234149142292428
148.229,0.1384771673485201,-0.1384771673485201
148.23000000000002,0.1384614454591654,-0.1384614454591654
148.231,0.12432954368006144,-0.12432954368006144
148.232,0.09920911591243342,-0.09920911591243342
148.233,0.06645490546845378,-0.06645490546845378
148.234,0.029347864302714743,-0.029347864302714743
148.235,0.008705774183609405,0.008705774183609405
148.23600000000002,0.04380922320009306,0.04380922320009306
148.237,0.07147016385785143,0.07147016385785143
148.238,0.08705986243251451,0.08705986243251451
148.239,0.08685507215744614,0.08685507215744614
148.24,0.06935701543557715,0.06935701543557715
148.241,0.03636156782663624,0.03636156782663624
148.24200000000002,0.006755678650824604,-0.006755678650824604
148.243,0.05185308804469202,-0.05185308804469202
148.244,0.08986431641830939,-0.08986431641830939
148.245,0.11319086756666907,-0.11319086756666907
148.246,0.11790213432593044,-0.11790213432593044
148.247,0.10498504302867939,-0.10498504302867939
148.24800000000002,0.08014932438693934,-0.08014932438693934
148.249,0.052157495366739304,-0.052157495366739304
148.25,0.030153295678432057,-0.030153295678432057
148.251,0.02082788822224657,-0.02082788822224657
148.252,0.026351726195614322,-0.026351726195614322
148.253,0.04376868540308487,-0.04376868540308487
148.25400000000002,0.06606864289530812,-0.06606864289530812
148.255,0.0845873657445314,-0.0845873657445314
148.256,0.09192594457190739,-0.09192594457190739
148.257,0.08439891814698353,-0.08439891814698353
148.258,0.06317978316262529,-0.06317978316262529
148.259,0.03376366473788117,-0.03376366473788117
148.26000000000002,0.0039543988739494385,-0.0039543988739494385
148.261,0.018898462005846994,0.018898462005846994
148.262,0.03042195320568153,0.03042195320568153
148.263,0.03059481231239025,0.03059481231239025
148.264,0.023476711957086005,0.023476711957086005
148.265,0.015383542793883764,0.015383542793883764
148.26600000000002,0.012167052317950677,0.012167052317950677
148.267,0.016598088124209376,0.016598088124209376
148.268,0.02684370349242471,0.02684370349242471
148.269,0.036666098942090386,0.036666098942090386
148.27,0.037376014708297545,0.037376014708297545
148.27100000000002,0.020947940959091804,0.020947940959091804
148.27200000000002,0.01673412503823679,-0.01673412503823679
148.273,0.07362843850806977,-0.07362843850806977
148.274,0.14112756675317362,-0.14112756675317362
148.275,0.20575537802847887,-0.20575537802847887
148.276,0.2525514617875385,-0.2525514617875385
148.27700000000002,0.2691644607372049,-0.2691644607372049
148.27800000000002,0.24942165004420624,-0.24942165004420624
148.279,0.19527951323315818,-0.19527951323315818
148.28,0.11654523600666233,-0.11654523600666233
148.281,0.028435387870444417,-0.028435387870444417
148.282,0.0523109458209996,0.0523109458209996
148.28300000000002,0.11162656125570836,0.11162656125570836
148.28400000000002,0.14141656740068287,0.14141656740068287
148.285,0.14106738020007503,0.14106738020007503
148.286,0.11683196670998264,0.11683196670998264
148.287,0.0794004720369137,0.0794004720369137
148.288,0.04048186076477589,0.04048186076477589
148.28900000000002,0.00946092584286351,0.00946092584286351
148.29000000000002,0.008902229656705063,-0.008902229656705063
148.291,0.015146401696304546,-0.015146401696304546
148.292,0.014106492906032164,-0.014106492906032164
148.293,0.012691988073030291,-0.012691988073030291
148.294,0.017235199325605355,-0.017235199325605355
148.29500000000002,0.03126161569810593,-0.03126161569810593
148.29600000000002,0.05433399378417325,-0.05433399378417325
148.297,0.08224039609318667,-0.08224039609318667
148.298,0.10836682129586395,-0.10836682129586395
148.299,0.12575287795864587,-0.12575287795864587
148.3,0.12916977889501957,-0.12916977889501957
148.30100000000002,0.11661349566472134,-0.11661349566472134
148.30200000000002,0.08983346922430491,-0.08983346922430491
148.303,0.05383112071476881,-0.05383112071476881
148.304,0.015558813966249585,-0.015558813966249585
148.305,0.01775665097946444,0.01775665097946444
148.306,0.040194564034881086,0.040194564034881086
148.30700000000002,0.04824505631321774,0.04824505631321774
148.30800000000002,0.041241142384236706,0.041241142384236706
148.309,0.021127543018878425,0.021127543018878425
148.31,0.008257616574268267,-0.008257616574268267
148.311,0.04212562355500582,-0.04212562355500582
148.312,0.07564438843303856,-0.07564438843303856
148.31300000000002,0.10462222751908634,-0.10462222751908634
148.31400000000002,0.1258867930127443,-0.1258867930127443
148.315,0.13738044082272294,-0.13738044082272294
148.316,0.138064343893602,-0.138064343893602
148.317,0.12775060191530374,-0.12775060191530374
148.318,0.106967102177294,-0.106967102177294
148.31900000000002,0.07691653645796392,-0.07691653645796392
148.32000000000002,0.0395350057158228,-0.0395350057158228
148.321,0.0023978584154158433,0.0023978584154158433
148.322,0.045184473786907375,0.045184473786907375
148.323,0.08427389518095518,0.08427389518095518
148.324,0.11455578946148481,0.11455578946148481
148.32500000000002,0.13092980281340805,0.13092980281340805
148.32600000000002,0.1291239148890786,0.1291239148890786
148.327,0.10664694015199028,0.10664694015199028
148.328,0.06367735945695352,0.06367735945695352
148.329,0.003641039617850783,0.003641039617850783
148.33,0.06675916813379024,-0.06675916813379024
148.33100000000002,0.13821340258797643,-0.13821340258797643
148.33200000000002,0.2001712514668087,-0.2001712514668087
148.333,0.2427096172589549,-0.2427096172589549
148.334,0.25852986903391206,-0.25852986903391206
148.335,0.24460963894768784,-0.24460963894768784
148.336,0.20305383480375427,-0.20305383480375427
148.33700000000002,0.14084612803285945,-0.14084612803285945
148.338,0.06846930575727328,-0.06846930575727328
148.339,0.0023272751512903866,0.0023272751512903866
148.34,0.061073834300165775,0.061073834300165775
148.341,0.1007758633178395,0.1007758633178395
148.342,0.11916023790557273,0.11916023790557273
148.34300000000002,0.11862434408222855,0.11862434408222855
148.344,0.10491508545368555,0.10491508545368555
148.345,0.08495115727528102,0.08495115727528102
148.346,0.06447717380093132,0.06447717380093132
148.347,0.04630561781387321,0.04630561781387321
148.348,0.029727356762531798,0.029727356762531798
148.34900000000002,0.011297025081129064,0.011297025081129064
148.35,0.013261400957061187,-0.013261400957061187
148.351,0.046682108514728315,-0.046682108514728315
148.352,0.0881701448982326,-0.0881701448982326
148.353,0.1325716590045133,-0.1325716590045133
148.354,0.17112562876812543,-0.17112562876812543
148.35500000000002,0.19370473537681632,-0.19370473537681632
148.356,0.19193202671634935,-0.19193202671634935
148.357,0.16220858092919266,-0.16220858092919266
148.358,0.107633316521903,-0.107633316521903
148.359,0.03807545922213107,-0.03807545922213107
148.36,0.031799453719244086,0.031799453719244086
148.36100000000002,0.08611003483193702,0.08611003483193702
148.362,0.11197080043907448,0.11197080043907448
148.363,0.10310692645772868,0.10310692645772868
148.364,0.0617666736897271,0.0617666736897271
148.365,0.0016989422157781542,-0.0016989422157781542
148.366,0.07153142187546468,-0.07153142187546468
148.36700000000002,0.13078730240312186,-0.13078730240312186
148.368,0.16586684207171487,-0.16586684207171487
148.369,0.1700248423423456,-0.1700248423423456
148.37,0.14484554142462702,-0.14484554142462702
148.371,0.09928658133736246,-0.09928658133736246
148.372,0.0466427004006853,-0.0466427004006853
148.37300000000002,0.00041233271351992506,-0.00041233271351992506
148.374,0.029631259296921453,0.029631259296921453
148.375,0.039959037949927056,0.039959037949927056
148.376,0.03366830624972761,0.03366830624972761
148.377,0.018704155353824525,0.018704155353824525
148.378,0.004595648383955986,0.004595648383955986
148.37900000000002,0.001150413157239738,-0.001150413157239738
148.38,0.004229698448082964,0.004229698448082964
148.381,0.017827180791851527,0.017827180791851527
148.382,0.03220961076701245,0.03220961076701245
148.383,0.03822703198512012,0.03822703198512012
148.384,0.02849316731809326,0.02849316731809326
148.38500000000002,0.00033291316047034947,0.00033291316047034947
148.386,0.042830788575375145,-0.042830788575375145
148.387,0.09214925375856575,-0.09214925375856575
148.388,0.1358817248027222,-0.1358817248027222
148.389,0.1629628812969217,-0.1629628812969217
148.39,0.16642572059929173,-0.16642572059929173
148.39100000000002,0.1455473415544949,-0.1455473415544949
148.392,0.10601245519414493,-0.10601245519414493
148.393,0.05805358842912345,-0.05805358842912345
148.394,0.013203303845109926,-0.013203303845109926
148.395,0.01924668076070235,0.01924668076070235
148.39600000000002,0.0348976226622979,0.0348976226622979
148.39700000000002,0.03514038128548291,0.03514038128548291
148.398,0.026039577665881053,0.026039577665881053
148.399,0.015644482199357768,0.015644482199357768
148.4,0.01070953113223938,0.01070953113223938
148.401,0.014010602465670763,0.014010602465670763
148.40200000000002,0.023233390206151894,0.023233390206151894
148.40300000000002,0.03185621606718092,0.03185621606718092
148.404,0.03173954130592427,0.03173954130592427
148.405,0.01651276491886633,0.01651276491886633
148.406,0.015466508030310022,-0.015466508030310022
148.407,0.059698379376963984,-0.059698379376963984
148.40800000000002,0.1062864156904818,-0.1062864156904818
148.40900000000002,0.14272232186938105,-0.14272232186938105
148.41,0.15786708111516923,-0.15786708111516923
148.411,0.14582661099183647,-0.14582661099183647
148.412,0.10838768827746459,-0.10838768827746459
148.413,0.055099642959185235,-0.055099642959185235
148.41400000000002,0.0008322350132736744,-0.0008322350132736744
148.41500000000002,0.038529066874606555,0.038529066874606555
148.416,0.05094655573008633,0.05094655573008633
148.417,0.03211255164504112,0.03211255164504112
148.418,0.012929920478576329,-0.012929920478576329
148.419,0.07102505567179296,-0.07102505567179296
148.42000000000002,0.1247027268576667,-0.1247027268576667
148.42100000000002,0.1574176756189518,-0.1574176756189518
148.422,0.1586273884890944,-0.1586273884890944
148.423,0.12712433378523158,-0.12712433378523158
148.424,0.0715576681295238,-0.0715576681295238
148.425,0.007941686598158637,-0.007941686598158637
148.42600000000002,0.04511653530072213,0.04511653530072213
148.42700000000002,0.07202427196338457,0.07202427196338457
148.428,0.06493248104069238,0.06493248104069238
148.429,0.02613981422834355,0.02613981422834355
148.43,0.032562619334189025,-0.032562619334189025
148.431,0.09340114432456703,-0.09340114432456703
148.43200000000002,0.13790885002091147,-0.13790885002091147
148.43300000000002,0.15238564736865556,-0.15238564736865556
148.434,0.1318853339824464,-0.1318853339824464
148.435,0.08155381159480457,-0.08155381159480457
148.436,0.014961753500883579,-0.014961753500883579
148.437,0.05001207463526436,0.05001207463526436
148.43800000000002,0.09646528931924259,0.09646528931924259
148.43900000000002,0.11332212027060007,0.11332212027060007
148.44,0.0983193655912955,0.0983193655912955
148.441,0.05829694724162682,0.05829694724162682
148.442,0.0067936124355707506,0.0067936124355707506
148.443,0.04024625652031155,-0.04024625652031155
148.44400000000002,0.06931195410999202,-0.06931195410999202
148.44500000000002,0.07325319576528477,-0.07325319576528477
148.446,0.05315985757782027,-0.05315985757782027
148.447,0.017710545918111276,-0.017710545918111276
148.448,0.01972520648159315,0.01972520648159315
148.449,0.045292464059043525,0.045292464059043525
148.45000000000002,0.04887554656074067,0.04887554656074067
148.45100000000002,0.027096883142609496,0.027096883142609496
148.452,0.015748669163396345,-0.015748669163396345
148.453,0.06902994185797207,-0.06902994185797207
148.454,0.11892734927332238,-0.11892734927332238
148.455,0.15243102131963138,-0.15243102131963138
148.45600000000002,0.16102225833621675,-0.16102225833621675
148.45700000000002,0.14300631711309308,-0.14300631711309308
148.458,0.10388344840326813,-0.10388344840326813
148.459,0.05471530661820956,-0.05471530661820956
148.46,0.008998882536329189,-0.008998882536329189
148.461,0.021051586705070235,0.021051586705070235
148.46200000000002,0.027788850814957966,0.027788850814957966
148.463,0.010113455303540242,0.010113455303540242
148.464,0.026337944510950728,-0.026337944510950728
148.465,0.07079400818103165,-0.07079400818103165
148.466,0.11026844527363289,-0.11026844527363289
148.467,0.13300103361012094,-0.13300103361012094
148.46800000000002,0.13151641881019704,-0.13151641881019704
148.469,0.10452614122003534,-0.10452614122003534
148.47,0.05722022103135027,-0.05722022103135027
148.471,8.152441729913917e-05,8.152441729913917e-05
148.472,0.054531874390062685,0.054531874390062685
148.473,0.09392103465542223,0.09392103465542223
148.47400000000002,0.10959264833860827,0.10959264833860827
148.475,0.09838960286549958,0.09838960286549958
148.476,0.06317988527305562,0.06317988527305562
148.477,0.011892335075291527,0.011892335075291527
148.478,0.04462117394060994,-0.04462117394060994
148.479,0.09528899831070714,-0.09528899831070714
148.48000000000002,0.13136042955376148,-0.13136042955376148
148.481,0.148137641224947,-0.148137641224947
148.482,0.14551020952226967,-0.14551020952226967
148.483,0.12726079552966196,-0.12726079552966196
148.484,0.09946217243807287,-0.09946217243807287
148.485,0.06852730372903892,-0.06852730372903892
148.48600000000002,0.03953387712766332,-0.03953387712766332
148.487,0.01530673838075347,-0.01530673838075347
148.488,0.0035470472188863233,0.0035470472188863233
148.489,0.01779863376676305,0.01779863376676305
148.49,0.028382179402351104,0.028382179402351104
148.491,0.03535372119244773,0.03535372119244773
148.49200000000002,0.03749001014422215,0.03749001014422215
148.493,0.03273029820061857,0.03273029820061857
148.494,0.01931319523701358,0.01931319523701358
148.495,0.00285065001994822,-0.00285065001994822
148.496,0.031180684361065136,-0.031180684361065136
148.497,0.06033603232379803,-0.06033603232379803
148.49800000000002,0.08326814849267994,-0.08326814849267994
148.499,0.09322852961485473,-0.09322852961485473
148.5,0.08614032959542994,-0.08614032959542994
148.501,0.06251276405003081,-0.06251276405003081
148.502,0.028123710551641645,-0.028123710551641645
148.503,0.006968806848426379,0.006968806848426379
148.50400000000002,0.030992404273056717,0.030992404273056717
148.505,0.033948745375638634,0.033948745375638634
148.506,0.010976949006958447,0.010976949006958447
148.507,0.0355272869356168,-0.0355272869356168
148.508,0.09585255943708682,-0.09585255943708682
148.509,0.1551818301431237,-0.1551818301431237
148.51000000000002,0.19755415472447313,-0.19755415472447313
148.511,0.21045118358503567,-0.21045118358503567
148.512,0.18860358643800768,-0.18860358643800768
148.513,0.13578106785465727,-0.13578106785465727
148.514,0.06391507738097013,-0.06391507738097013
148.515,0.010266901424041075,0.010266901424041075
148.51600000000002,0.07010703770987226,0.07010703770987226
148.517,0.10387613321557332,0.10387613321557332
148.518,0.10807789036278459,0.10807789036278459
148.519,0.08811896779901662,0.08811896779901662
148.52,0.056105959694817464,0.056105959694817464
148.52100000000002,0.026474613775973266,0.026474613775973266
148.52200000000002,0.010890969255609395,0.010890969255609395
148.523,0.014135355217604006,0.014135355217604006
148.524,0.03238331328973021,0.03238331328973021
148.525,0.054516409707087155,0.054516409707087155
148.526,0.06608095932912761,0.06608095932912761
148.52700000000002,0.05460070798439465,0.05460070798439465
148.52800000000002,0.014451782739981267,0.014451782739981267
148.529,0.05039603783465341,-0.05039603783465341
148.53,0.12679564357814554,-0.12679564357814554
148.531,0.19598479193552099,-0.19598479193552099
148.532,0.23922396992522066,-0.23922396992522066
148.53300000000002,0.2437143069508313,-0.2437143069508313
148.53400000000002,0.2068585914347093,-0.2068585914347093
148.535,0.13743003303648227,-0.13743003303648227
148.536,0.053201331346731884,-0.053201331346731884
148.537,0.024261760166233604,0.024261760166233604
148.538,0.07600492262200231,0.07600492262200231
148.53900000000002,0.09124873975922121,0.09124873975922121
148.54000000000002,0.07034008598916852,0.07034008598916852
148.541,0.024172540202054504,0.024172540202054504
148.542,0.029688542901397663,-0.029688542901397663
148.543,0.07286793904200772,-0.07286793904200772
148.544,0.09208741490119943,-0.09208741490119943
148.54500000000002,0.0831906462446722,-0.0831906462446722
148.54600000000002,0.05201437230827477,-0.05201437230827477
148.547,0.011904748890037009,-0.011904748890037009
148.548,0.02119892184503236,0.02119892184503236
148.549,0.03439395629828934,0.03439395629828934
148.55,0.02223321469501105,0.02223321469501105
148.55100000000002,0.011542016168904157,-0.011542016168904157
148.55200000000002,0.05548729375876238,-0.05548729375876238
148.553,0.0945806472599724,-0.0945806472599724
148.554,0.11551498211463185,-0.11551498211463185
148.555,0.11130601747644386,-0.11130601747644386
148.556,0.08362846362869958,-0.08362846362869958
148.55700000000002,0.04210081518658537,-0.04210081518658537
148.55800000000002,0.0008066806117741354,-0.0008066806117741354
148.559,0.026702659356139913,0.026702659356139913
148.56,0.032162961977023174,0.032162961977023174
148.561,0.015445377338376032,0.015445377338376032
148.562,0.015491261049908833,-0.015491261049908833
148.56300000000002,0.04752092339025693,-0.04752092339025693
148.56400000000002,0.06712029209481662,-0.06712029209481662
148.565,0.06532247908504918,-0.06532247908504918
148.566,0.04112365015372632,-0.04112365015372632
148.567,0.0021425165602455554,-0.0021425165602455554
148.568,0.037725850269501704,0.037725850269501704
148.56900000000002,0.06289286299990882,0.06289286299990882
148.57000000000002,0.06136425403506052,0.06136425403506052
148.571,0.028960567328689013,0.028960567328689013
148.572,0.028944117742098152,-0.028944117742098152
148.573,0.09875061232611626,-0.09875061232611626
148.574,0.16260036402885247,-0.16260036402885247
148.57500000000002,0.20369028036760528,-0.20369028036760528
148.57600000000002,0.21123032194708347,-0.21123032194708347
148.577,0.18348918923613144,-0.18348918923613144
148.578,0.12802975687877483,-0.12802975687877483
148.579,0.05916458298885641,-0.05916458298885641
148.58,0.0064536048183494454,0.0064536048183494454
148.58100000000002,0.05464203261006273,0.05464203261006273
148.58200000000002,0.07738764521449659,0.07738764521449659
148.583,0.07437431503127323,0.07437431503127323
148.584,0.05204551252869494,0.05204551252869494
148.585,0.020727878540867994,0.020727878540867994
148.586,0.009071000661599937,-0.009071000661599937
148.58700000000002,0.029903434471926338,-0.029903434471926338
148.588,0.03914694135087682,-0.03914694135087682
148.589,0.038877141239266666,-0.038877141239266666
148.59,0.03412465570435386,-0.03412465570435386
148.591,0.030333174409904462,-0.030333174409904462
148.592,0.03104325649374995,-0.03104325649374995
148.59300000000002,0.036648382955574155,-0.036648382955574155
148.594,0.04459510741390327,-0.04459510741390327
148.595,0.05081924450584463,-0.05081924450584463
148.596,0.051745067934103606,-0.051745067934103606
148.597,0.04599214997779477,-0.04599214997779477
148.598,0.035090640762693304,-0.035090640762693304
148.59900000000002,0.02292796726640811,-0.02292796726640811
148.6,0.01416820062022095,-0.01416820062022095
148.601,0.01229819903835816,-0.01229819903835816
148.602,0.01810489314018371,-0.01810489314018371
148.603,0.029220741575913478,-0.029220741575913478
148.604,0.040955657748430796,-0.040955657748430796
148.60500000000002,0.048124844385124876,-0.048124844385124876
148.606,0.047178173977024285,-0.047178173977024285
148.607,0.03779401590158371,-0.03779401590158371
148.608,0.023277276503480437,-0.023277276503480437
148.609,0.009536887525989246,-0.009536887525989246
148.61,0.0029534928637777735,-0.0029534928637777735
148.61100000000002,0.00788539670203936,-0.00788539670203936
148.612,0.024734618206261216,-0.024734618206261216
148.613,0.049333684772973285,-0.049333684772973285
148.614,0.07396718667800406,-0.07396718667800406
148.615,0.08976434578696169,-0.08976434578696169
148.616,0.08969454714741709,-0.08969454714741709
148.61700000000002,0.07114924292336511,-0.07114924292336511
148.618,0.037195537147749924,-0.037195537147749924
148.619,0.00398849126168388,0.00398849126168388
148.62,0.04138056569766557,0.04138056569766557
148.621,0.06438638137104347,0.06438638137104347
148.622,0.06606615199174004,0.06606615199174004
148.62300000000002,0.04526113404860266,0.04526113404860266
148.624,0.006918373390393029,0.006918373390393029
148.625,0.03949618142586231,-0.03949618142586231
148.626,0.08297386912838833,-0.08297386912838833
148.627,0.11434731320202773,-0.11434731320202773
148.628,0.12896959807012942,-0.12896959807012942
148.62900000000002,0.12781708954947668,-0.12781708954947668
148.63,0.11667640070954777,-0.11667640070954777
148.631,0.10372010501965678,-0.10372010501965678
148.632,0.09631611659546901,-0.09631611659546901
148.633,0.0981719370669305,-0.0981719370669305
148.634,0.10780252686527936,-0.10780252686527936
148.63500000000002,0.11886774042729908,-0.11886774042729908
148.636,0.12229965298463241,-0.12229965298463241
148.637,0.10953868779631815,-0.10953868779631815
148.638,0.07581783604445214,-0.07581783604445214
148.639,0.022399993232858018,-0.022399993232858018
148.64,0.04300539038069706,0.04300539038069706
148.64100000000002,0.10784858513798579,0.10784858513798579
148.642,0.1579335290657713,0.1579335290657713
148.643,0.18126392889496068,0.18126392889496068
148.644,0.1713994313495686,0.1713994313495686
148.645,0.12932780178582126,0.12932780178582126
148.64600000000002,0.06330983196430795,0.06330983196430795
148.64700000000002,0.013238117289852136,-0.013238117289852136
148.648,0.08518411780824842,-0.08518411780824842
148.649,0.1394366797975185,-0.1394366797975185
148.65,0.16795677967942613,-0.16795677967942613
148.651,0.1692306610984593,-0.1692306610984593
148.65200000000002,0.14789785631984154,-0.14789785631984154
148.65300000000002,0.1127848327128782,-0.1127848327128782
148.654,0.07404445810628801,-0.07404445810628801
148.655,0.04031293942636738,-0.04031293942636738
148.656,0.016716455496863847,-0.016716455496863847
148.657,0.004229420217803481,-0.004229420217803481
148.65800000000002,0.00042153970724712053,-0.00042153970724712053
148.65900000000002,0.001184856711293869,-0.001184856711293869
148.66,0.0027456114534070153,-0.0027456114534070153
148.661,0.0032235376451529296,-0.0032235376451529296
148.662,0.003206674147559041,-0.003206674147559041
148.663,0.005186685210138986,-0.005186685210138986
148.66400000000002,0.012118296873051326,-0.012118296873051326
148.66500000000002,0.02568591685194821,-0.02568591685194821
148.666,0.044974024624655606,-0.044974024624655606
148.667,0.06610672384347271,-0.06610672384347271
148.668,0.08308752186582602,-0.08308752186582602
148.669,0.08964194175457196,-0.08964194175457196
148.67000000000002,0.0814851909574218,-0.0814851909574218
148.67100000000002,0.058235187963168844,-0.058235187963168844
148.672,0.024244230545909407,-0.024244230545909407
148.673,0.012073153736841036,0.012073153736841036
148.674,0.040368597405282536,0.040368597405282536
148.675,0.05140470840320677,0.05140470840320677
148.67600000000002,0.04012086775929635,0.04012086775929635
148.67700000000002,0.007730143573521753,0.007730143573521753
148.678,0.03792647986971076,-0.03792647986971076
148.679,0.08406157937572589,-0.08406157937572589
148.68,0.11633810660488397,-0.11633810660488397
148.681,0.12309763063626578,-0.12309763063626578
148.68200000000002,0.09920163113870872,-0.09920163113870872
148.68300000000002,0.04828227499702287,-0.04828227499702287
148.684,0.01741643131078563,0.01741643131078563
148.685,0.07976410121991506,0.07976410121991506
148.686,0.11943624102360961,0.11943624102360961
148.687,0.12134546977760197,0.12134546977760197
148.68800000000002,0.07928224154907193,0.07928224154907193
148.68900000000002,0.0016292333728363806,-0.0016292333728363806
148.69,0.10549815328082768,-0.10549815328082768
148.691,0.20926262067827073,-0.20926262067827073
148.692,0.2884432984788573,-0.2884432984788573
148.693,0.32352576766693664,-0.32352576766693664
148.69400000000002,0.3052038541781631,-0.3052038541781631
148.69500000000002,0.23698565861962007,-0.23698565861962007
148.696,0.1343786992558882,-0.1343786992558882
148.697,0.020832143830532668,-0.020832143830532668
148.698,0.07845591037048028,0.07845591037048028
148.699,0.14313616647208716,0.14313616647208716
148.70000000000002,0.16285713813519775,0.16285713813519775
148.70100000000002,0.13953001314703917,0.13953001314703917
148.702,0.08611539857607453,0.08611539857607453
148.703,0.022354146735882985,0.022354146735882985
148.704,0.031248517361923578,-0.031248517361923578
148.705,0.05938521788165585,-0.05938521788165585
148.70600000000002,0.05610660206491025,-0.05610660206491025
148.70700000000002,0.02600745284817918,-0.02600745284817918
148.708,0.017811979777952347,0.017811979777952347
148.709,0.058279051388372416,0.058279051388372416
148.71,0.07990691069332923,0.07990691069332923
148.711,0.07363633658238,0.07363633658238
148.71200000000002,0.03949135874052745,0.03949135874052745
148.713,0.013699722632166234,-0.013699722632166234
148.714,0.0713289513073061,-0.0713289513073061
148.715,0.11773563087375294,-0.11773563087375294
148.716,0.14108892747116875,-0.14108892747116875
148.717,0.1368795236364465,-0.1368795236364465
148.71800000000002,0.10896584876344251,-0.10896584876344251
148.719,0.06793606869629398,-0.06793606869629398
148.72,0.02741639223950576,-0.02741639223950576
148.721,0.0004027959174639495,0.0004027959174639495
148.722,0.008541629291667574,0.008541629291667574
148.723,0.002895441466381099,-0.002895441466381099
148.72400000000002,0.02728231444265794,-0.02728231444265794
148.725,0.05418128771797193,-0.05418128771797193
148.726,0.07320446827024152,-0.07320446827024152
148.727,0.07767368124020402,-0.07767368124020402
148.728,0.06683152928658043,-0.06683152928658043
148.729,0.045880401001662574,-0.045880401001662574
148.73000000000002,0.023885913060529784,-0.023885913060529784
148.731,0.010316756283256678,-0.010316756283256678
148.732,0.011455597192131628,-0.011455597192131628
148.733,0.027951360467223685,-0.027951360467223685
148.734,0.054383070772826,-0.054383070772826
148.735,0.08100793299531761,-0.08100793299531761
148.73600000000002,0.09710971474639263,-0.09710971474639263
148.737,0.09480506821378332,-0.09480506821378332
148.738,0.07199489180401097,-0.07199489180401097
148.739,0.03342370332663103,-0.03342370332663103
148.74,0.010559714616578342,0.010559714616578342
148.741,0.047173744547066576,0.047173744547066576
148.74200000000002,0.06528390521852012,0.06528390521852012
148.743,0.05904841682108941,0.05904841682108941
148.744,0.029912988450367273,0.029912988450367273
148.745,0.013728977646747964,-0.013728977646747964
148.746,0.059131067793819936,-0.059131067793819936
148.747,0.09322112629500545,-0.09322112629500545
148.74800000000002,0.10676222720047424,-0.10676222720047424
148.749,0.09729534333743861,-0.09729534333743861
148.75,0.06990023741171059,-0.06990023741171059
148.751,0.03551472576238324,-0.03551472576238324
148.752,0.007342017139035373,-0.007342017139035373
148.753,0.0035050336162805174,0.0035050336162805174
148.75400000000002,0.008274995970021015,-0.008274995970021015
