Czas,AbsSum,Sum
280.255,0.015720740577051966,0.015720740577051966
280.256,0.015328471487518234,0.015328471487518234
280.257,0.013358334121941453,0.013358334121941453
280.258,0.010208345849780904,0.010208345849780904
280.25899999999996,0.006461501075554396,0.006461501075554396
280.26,0.002757823750426166,0.002757823750426166
280.26099999999997,0.00034171192996063326,-0.00034171192996063326
280.262,0.0024655024295093418,-0.0024655024295093418
280.263,0.003490599723079808,-0.003490599723079808
280.264,0.0035402364437536926,-0.0035402364437536926
280.265,0.0029249349323501117,-0.0029249349323501117
280.26599999999996,0.002045843363684831,-0.002045843363684831
280.267,0.001286465293267493,-0.001286465293267493
280.268,0.0009195240974915836,-0.0009195240974915836
280.269,0.001049961770974588,-0.001049961770974588
280.27,0.0016049723307498967,-0.0016049723307498967
280.27099999999996,0.0023701424915238863,-0.0023701424915238863
280.272,0.0030598921060613006,-0.0030598921060613006
280.27299999999997,0.0034027321888262714,-0.0034027321888262714
280.274,0.00321892659174225,-0.00321892659174225
280.275,0.002470572537451908,-0.002470572537451908
280.276,0.001271466414858407,-0.001271466414858407
280.277,0.00014514994661486225,0.00014514994661486225
280.27799999999996,0.0014912763327018038,0.0014912763327018038
280.279,0.0025022008390878114,0.0025022008390878114
280.28,0.003004536103952773,0.003004536103952773
280.281,0.002953472134563202,0.002953472134563202
280.282,0.002427874906646068,0.002427874906646068
280.28299999999996,0.0015857316564383726,0.0015857316564383726
280.284,0.0005965715400817596,0.0005965715400817596
280.28499999999997,0.00042307540801490937,-0.00042307540801490937
280.286,0.0014444040794906754,-0.0014444040794906754
280.287,0.0025139330930279502,-0.0025139330930279502
280.28799999999995,0.0036942099639930277,-0.0036942099639930277
280.289,0.00497799951077902,-0.00497799951077902
280.28999999999996,0.006211700924412216,-0.006211700924412216
280.291,0.007067534154360186,-0.007067534154360186
280.292,0.007092700454930833,-0.007092700454930833
280.293,0.00583882157415789,-0.00583882157415789
280.294,0.0030434515589623378,-0.0030434515589623378
280.29499999999996,0.0011920291592778464,0.0011920291592778464
280.296,0.0062963026941344705,0.0062963026941344705
280.29699999999997,0.011252053355619695,0.011252053355619695
280.298,0.014775443073554087,0.014775443073554087
280.299,0.01562849580597788,0.01562849580597788
280.29999999999995,0.012992447392623733,0.012992447392623733
280.301,0.006796262465454935,0.006796262465454935
280.30199999999996,0.00211009506119299,-0.00211009506119299
280.303,0.012017629803833661,-0.012017629803833661
280.304,0.020675179034702975,-0.020675179034702975
280.305,0.02580617613400569,-0.02580617613400569
280.306,0.025703364108462752,-0.025703364108462752
280.30699999999996,0.019742135682672145,-0.019742135682672145
280.308,0.008659971896968209,-0.008659971896968209
280.30899999999997,0.005497622577001726,0.005497622577001726
280.31,0.019777543931766336,0.019777543931766336
280.311,0.03098188228393731,0.03098188228393731
280.31199999999995,0.03643052908797511,0.03643052908797511
280.313,0.03462519285484509,0.03462519285484509
280.31399999999996,0.02563591265663258,0.02563591265663258
280.315,0.011102391561142842,0.011102391561142842
280.316,0.006153919698652664,-0.006153919698652664
280.317,0.022804715954973225,-0.022804715954973225
280.318,0.03579642125304246,-0.03579642125304246
280.31899999999996,0.04303146980594621,-0.04303146980594621
280.32,0.043774637706919736,-0.043774637706919736
280.32099999999997,0.038691215600762954,-0.038691215600762954
280.322,0.029529697822532088,-0.029529697822532088
280.323,0.01856029151160072,-0.01856029151160072
280.32399999999996,0.007942945577508713,-0.007942945577508713
280.325,0.0007926090159210276,0.0007926090159210276
280.32599999999996,0.007017761465162465,0.007017761465162465
280.327,0.010973572698858338,0.010973572698858338
280.328,0.013478620452639527,0.013478620452639527
280.329,0.015494343387975286,0.015494343387975286
280.33,0.017701572421752552,0.017701572421752552
280.33099999999996,0.020227355900125234,0.020227355900125234
280.332,0.022603580007565606,0.022603580007565606
280.33299999999997,0.02395848153685698,0.02395848153685698
280.334,0.02336544146896722,0.02336544146896722
280.335,0.020224566479660696,0.020224566479660696
280.33599999999996,0.014545754531817992,0.014545754531817992
280.337,0.007037496890757116,0.007037496890757116
280.33799999999997,0.0010294995021108957,-0.0010294995021108957
280.339,0.008142376417470664,-0.008142376417470664
280.34,0.012951428668579082,-0.012951428668579082
280.341,0.014637757710779407,-0.014637757710779407
280.342,0.013134510533047886,-0.013134510533047886
280.34299999999996,0.009139444157809292,-0.009139444157809292
280.344,0.00391966012073944,-0.00391966012073944
280.34499999999997,0.0010308123877885707,0.0010308123877885707
280.346,0.004380918259760826,0.004380918259760826
280.347,0.005292243144165723,0.005292243144165723
280.34799999999996,0.0036037362185186816,0.0036037362185186816
280.349,0.000168168708132027,-0.000168168708132027
280.34999999999997,0.005001252387642256,-0.005001252387642256
280.351,0.009653808844364873,-0.009653808844364873
280.352,0.012983409083496773,-0.012983409083496773
280.353,0.014215353512541187,-0.014215353512541187
280.354,0.013099091254988416,-0.013099091254988416
280.35499999999996,0.009925429023833053,-0.009925429023833053
280.356,0.00541464912503503,-0.00541464912503503
280.35699999999997,0.0005157921089275436,-0.0005157921089275436
280.358,0.0038261937052632244,0.0038261937052632244
280.359,0.006877975639453499,0.006877975639453499
280.35999999999996,0.008255308057302103,0.008255308057302103
280.361,0.0079669580942879,0.0079669580942879
280.36199999999997,0.006365315307787534,0.006365315307787534
280.363,0.004024696563231177,0.004024696563231177
280.364,0.0015823243638974113,0.0015823243638974113
280.365,0.000417856747554113,-0.000417856747554113
280.366,0.0016421214769610018,-0.0016421214769610018
280.36699999999996,0.002019631947439745,-0.002019631947439745
280.368,0.001722260975099503,-0.001722260975099503
280.36899999999997,0.0010811155801116602,-0.0010811155801116602
280.37,0.00046514659816917684,-0.00046514659816917684
280.371,0.0001569807289935083,-0.0001569807289935083
280.37199999999996,0.00026194954615983967,-0.00026194954615983967
280.373,0.0006773219124347808,-0.0006773219124347808
280.37399999999997,0.0011316585043223153,-0.0011316585043223153
280.375,0.0012832613430799338,-0.0012832613430799338
280.376,0.0008478463107839657,-0.0008478463107839657
280.377,0.00028517175893991105,0.00028517175893991105
280.378,0.001986948157925892,0.001986948157925892
280.37899999999996,0.003899052710835779,0.003899052710835779
280.38,0.00552070605745566,0.00552070605745566
280.381,0.006349973645039519,0.006349973645039519
280.382,0.006036479678053854,0.006036479678053854
280.383,0.00449724613411017,0.00449724613411017
280.38399999999996,0.001957145222077722,0.001957145222077722
280.385,0.0011013310969463543,-0.0011013310969463543
280.38599999999997,0.004065036773205524,-0.004065036773205524
280.387,0.00635446954716644,-0.00635446954716644
280.388,0.007573311106547611,-0.007573311106547611
280.389,0.007596071356790568,-0.007596071356790568
280.39,0.00656807476263777,-0.00656807476263777
280.39099999999996,0.004822660053151634,-0.004822660053151634
280.392,0.0027495574455406973,-0.0027495574455406973
280.393,0.0006653145917665369,-0.0006653145917665369
280.394,0.0012652039014030604,0.0012652039014030604
280.395,0.0030276886308162935,0.0030276886308162935
280.39599999999996,0.004681071861248223,0.004681071861248223
280.397,0.006239238767251664,0.006239238767251664
280.39799999999997,0.007566256743812274,0.007566256743812274
280.399,0.008338226823982588,0.008338226823982588
280.4,0.008101977641779449,0.008101977641779449
280.401,0.0064237213670728325,0.0064237213670728325
280.402,0.0030826138849973507,0.0030826138849973507
280.40299999999996,0.0017606201041037214,-0.0017606201041037214
280.404,0.007490701515101339,-0.007490701515101339
280.405,0.013105660091542251,-0.013105660091542251
280.406,0.017425935075758254,-0.017425935075758254
280.407,0.019395499919962048,-0.019395499919962048
280.40799999999996,0.018388676343610563,-0.018388676343610563
280.409,0.01442562986391071,-0.01442562986391071
280.40999999999997,0.008220855221168374,-0.008220855221168374
280.411,0.0010370043140422369,-0.0010370043140422369
280.412,0.0056235518180401105,0.0056235518180401105
280.41299999999995,0.010404501903339212,0.010404501903339212
280.414,0.012446494349289756,0.012446494349289756
280.41499999999996,0.011598721933132917,0.011598721933132917
280.416,0.008427994569465658,0.008427994569465658
280.417,0.004024003256325232,0.004024003256325232
280.418,0.00033780839497690187,-0.00033780839497690187
280.419,0.0035711318010884984,-0.0035711318010884984
280.41999999999996,0.005077048901859474,-0.005077048901859474
280.421,0.004877888064649846,-0.004877888064649846
280.42199999999997,0.0035528506843416695,-0.0035528506843416695
280.423,0.0020048849532438755,-0.0020048849532438755
280.424,0.0011402321986080824,-0.0011402321986080824
280.42499999999995,0.0015661249683393693,-0.0015661249683393693
280.426,0.0034013663694142603,-0.0034013663694142603
280.42699999999996,0.006253760975472786,-0.006253760975472786
280.428,0.009362150282213657,-0.009362150282213657
280.429,0.011848233270832637,-0.011848233270832637
280.43,0.012991487335212071,-0.012991487335212071
280.431,0.012438700712120106,-0.012438700712120106
280.43199999999996,0.010286716398764474,-0.010286716398764474
280.433,0.007022190829574021,-0.007022190829574021
280.43399999999997,0.003349276017723789,-0.003349276017723789
280.435,3.065729772869374e-05,3.065729772869374e-05
280.436,0.002613815827112241,0.002613815827112241
280.43699999999995,0.004205539272752872,0.004205539272752872
280.438,0.00492400548417344,0.00492400548417344
280.43899999999996,0.00510918343651896,0.00510918343651896
280.44,0.005179065421234739,0.005179065421234739
280.441,0.005486383729899853,0.005486383729899853
280.442,0.00622064593426858,0.00622064593426858
280.443,0.007377824997696383,0.007377824997696383
280.44399999999996,0.008793376972967563,0.008793376972967563
280.445,0.010213775178097234,0.010213775178097234
280.44599999999997,0.011374195752017723,0.011374195752017723
280.447,0.012056243205389902,0.012056243205389902
280.448,0.012114883255687816,0.012114883255687816
280.44899999999996,0.01148008577140953,0.01148008577140953
280.45,0.010148541913643977,0.010148541913643977
280.45099999999996,0.008180344849521804,0.008180344849521804
280.452,0.005706031635302516,0.005706031635302516
280.453,0.0029365728539446022,0.0029365728539446022
280.454,0.00016010827258152745,0.00016010827258152745
280.455,0.002290031147866779,-0.002290031147866779
280.45599999999996,0.00410024118045933,-0.00410024118045933
280.457,0.0050613304750579905,-0.0050613304750579905
280.45799999999997,0.005144228456141351,-0.005144228456141351
280.459,0.004532472178858563,-0.004532472178858563
280.46,0.0035865487266284026,-0.0035865487266284026
280.46099999999996,0.002737959697598578,-0.002737959697598578
280.462,0.0023395523395900197,-0.0023395523395900197
280.46299999999997,0.002521918912592722,-0.002521918912592722
280.464,0.0031128111919842094,-0.0031128111919842094
280.465,0.0036620138786657252,-0.0036620138786657252
280.466,0.003580473585173852,-0.003580473585173852
280.467,0.0023601652469520396,-0.0023601652469520396
280.46799999999996,0.00019460882675732713,0.00019460882675732713
280.469,0.0038085541464747625,0.0038085541464747625
280.46999999999997,0.0077190116908914886,0.0077190116908914886
280.471,0.010829880575706528,0.010829880575706528
280.472,0.01200714988923232,0.01200714988923232
280.47299999999996,0.01043451704735674,0.01043451704735674
280.474,0.005917765612314344,0.005917765612314344
280.47499999999997,0.0009676625436106475,-0.0009676625436106475
280.476,0.008949240370110143,-0.008949240370110143
280.477,0.016346561234754215,-0.016346561234754215
280.478,0.021503346818789425,-0.021503346818789425
280.479,0.023238219683485016,-0.023238219683485016
280.47999999999996,0.02117798978948302,-0.02117798978948302
280.481,0.015868726180138768,-0.015868726180138768
280.48199999999997,0.008626287742817922,-0.008626287742817922
280.483,0.0011683758662644778,-0.0011683758662644778
280.484,0.004861576493098392,0.004861576493098392
280.48499999999996,0.008334813131518728,0.008334813131518728
280.486,0.008910508685727384,0.008910508685727384
280.48699999999997,0.0070648043208943355,0.0070648043208943355
280.488,0.0038769118423212924,0.0038769118423212924
280.489,0.0006499340245177955,0.0006499340245177955
280.49,0.0015066575548739278,-0.0015066575548739278
280.491,0.0019994103574266734,-0.0019994103574266734
280.49199999999996,0.0008819522520762738,-0.0008819522520762738
280.493,0.001234085020549178,0.001234085020549178
280.49399999999997,0.0034431771602961444,0.0034431771602961444
280.495,0.004884620508448697,0.004884620508448697
280.496,0.005036663914506499,0.005036663914506499
280.49699999999996,0.0038695442346805037,0.0038695442346805037
280.498,0.001815374323756572,0.001815374323756572
280.49899999999997,0.0004211996857775416,-0.0004211996857775416
280.5,0.002133693698727286,-0.002133693698727286
280.501,0.002864344762520975,-0.002864344762520975
280.502,0.002546647780604752,-0.002546647780604752
280.503,0.001496144067510613,-0.001496144067510613
280.50399999999996,0.0002631464873690644,-0.0002631464873690644
280.505,0.0005896014891729227,0.0005896014891729227
280.506,0.0006976398209426366,0.0006976398209426366
280.507,1.6562148036660555e-05,1.6562148036660555e-05
280.508,0.0011850049698168426,-0.0011850049698168426
280.50899999999996,0.0024506436713390245,-0.0024506436713390245
280.51,0.003325037379346741,-0.003325037379346741
280.51099999999997,0.0035306071104356054,-0.0035306071104356054
280.512,0.003064459197810052,-0.003064459197810052
280.513,0.002182141904305436,-0.002182141904305436
280.514,0.001280202050776996,-0.001280202050776996
280.515,0.0007286930358567081,-0.0007286930358567081
280.51599999999996,0.000722635493602858,-0.000722635493602858
280.517,0.001211591713362356,-0.001211591713362356
280.518,0.0019334913010708803,-0.0019334913010708803
280.519,0.002536104873186278,-0.002536104873186278
280.52,0.0027341774923495435,-0.0027341774923495435
280.52099999999996,0.0024361901457931345,-0.0024361901457931345
280.522,0.0017874709038184064,-0.0017874709038184064
280.52299999999997,0.001110751452026757,-0.001110751452026757
280.524,0.0007675010240666131,-0.0007675010240666131
280.525,0.0009965306239937228,-0.0009965306239937228
280.526,0.0017969961106532807,-0.0017969961106532807
280.527,0.0029064220938665483,-0.0029064220938665483
280.52799999999996,0.0038868655546226262,-0.0038868655546226262
280.529,0.0042884768531251906,-0.0042884768531251906
280.53,0.003826987086599257,-0.003826987086599257
280.531,0.0025035373349033565,-0.0025035373349033565
280.532,0.000615813915689434,-0.000615813915689434
280.53299999999996,0.0013485765677262822,0.0013485765677262822
280.534,0.0028981716878303527,0.0028981716878303527
280.53499999999997,0.0037307736316074384,0.0037307736316074384
280.536,0.003854704341983516,0.003854704341983516
280.537,0.0035841784172348044,0.0035841784172348044
280.53799999999995,0.0034028154119183037,0.0034028154119183037
280.539,0.003742685780249789,0.003742685780249789
280.53999999999996,0.004764207798076721,0.004764207798076721
280.541,0.006228837841448692,0.006228837841448692
280.542,0.00752725795095841,0.00752725795095841
280.543,0.007869680596684765,0.007869680596684765
280.544,0.006581789452117573,0.006581789452117573
280.54499999999996,0.0034033662543036937,0.0034033662543036937
280.546,0.0013244471388688857,-0.0013244471388688857
280.54699999999997,0.006666486889802447,-0.006666486889802447
280.548,0.011314688347414123,-0.011314688347414123
280.549,0.013966314184908903,-0.013966314184908903
280.54999999999995,0.013741850008237482,-0.013741850008237482
280.551,0.010502256169500209,-0.010502256169500209
280.55199999999996,0.004950529251652705,-0.004950529251652705
280.553,0.0015305810217058702,0.0015305810217058702
280.554,0.007265901025933006,0.007265901025933006
280.555,0.01078387070032325,0.01078387070032325
280.556,0.011264020496561836,0.011264020496561836
280.55699999999996,0.008789567611499419,0.008789567611499419
280.558,0.00431932710589035,0.00431932710589035
280.55899999999997,0.0006162583746496661,-0.0006162583746496661
280.56,0.004399649359526863,-0.004399649359526863
280.561,0.005836145192487468,-0.005836145192487468
280.56199999999995,0.004525350685297214,-0.004525350685297214
280.563,0.0009758502214919196,-0.0009758502214919196
280.56399999999996,0.003570706803087838,0.003570706803087838
280.565,0.007544903867150479,0.007544903867150479
280.566,0.00954946525460727,0.00954946525460727
280.567,0.008791222917557236,0.008791222917557236
280.568,0.005309131004429513,0.005309131004429513
280.56899999999996,6.68587207694573e-05,-6.68587207694573e-05
280.57,0.0060010116847071205,-0.0060010116847071205
280.57099999999997,0.011077329251431513,-0.011077329251431513
280.572,0.014220540847064882,-0.014220540847064882
280.573,0.014976955456222676,-0.014976955456222676
280.57399999999996,0.013573986298485502,-0.013573986298485502
280.575,0.010756370570853345,-0.010756370570853345
280.57599999999996,0.007472830709786644,-0.007472830709786644
280.577,0.004533158490321128,-0.004533158490321128
280.578,0.0023577182284095447,-0.0023577182284095447
280.579,0.0009004959710089779,-0.0009004959710089779
280.58,0.0002405545677414491,0.0002405545677414491
280.58099999999996,0.0015808997608783037,0.0015808997608783037
280.582,0.003475156992848856,0.003475156992848856
280.58299999999997,0.005918792094977936,0.005918792094977936
280.584,0.008500902448349203,0.008500902448349203
280.585,0.010524474910894688,0.010524474910894688
280.58599999999996,0.011247809936493812,0.011247809936493812
280.587,0.010157022695582255,0.010157022695582255
280.58799999999997,0.007169886688690771,0.007169886688690771
280.589,0.002698079563339425,0.002698079563339425
280.59,0.002452871562511289,-0.002452871562511289
280.591,0.0073087974964918066,-0.0073087974964918066
280.592,0.010997759849603427,-0.010997759849603427
280.59299999999996,0.012974928835434281,-0.012974928835434281
280.594,0.013130856646459762,-0.013130856646459762
280.59499999999997,0.011757587654296348,-0.011757587654296348
280.596,0.00939846060560438,-0.00939846060560438
280.597,0.006646047606961595,-0.006646047606961595
280.59799999999996,0.003964906131340132,-0.003964906131340132
280.599,0.0015986635214753832,-0.0015986635214753832
280.59999999999997,0.00041737575864712455,0.00041737575864712455
280.601,0.0021604853218867006,0.0021604853218867006
280.602,0.0036955702510156766,0.0036955702510156766
280.603,0.004982572796386561,0.004982572796386561
280.604,0.005859408435293563,0.005859408435293563
280.60499999999996,0.006107597422940398,0.006107597422940398
280.606,0.0055693912388863,0.0055693912388863
280.60699999999997,0.004260524670014996,0.004260524670014996
280.608,0.0024221541135292925,0.0024221541135292925
280.609,0.0004796544255625026,0.0004796544255625026
280.60999999999996,0.0010847943157451531,-0.0010847943157451531
280.611,0.0019004448780864614,-0.0019004448780864614
280.61199999999997,0.0018500980131643224,-0.0018500980131643224
280.613,0.0011242528381411603,-0.0011242528381411603
280.614,0.00015660156940565495,-0.00015660156940565495
280.615,0.0005437553793002894,0.0005437553793002894
280.616,0.0006046444079495413,0.0006046444079495413
280.61699999999996,3.419903339836616e-05,-3.419903339836616e-05
280.618,0.0010579147176410153,-0.0010579147176410153
280.61899999999997,0.0018622016367141206,-0.0018622016367141206
280.62,0.0017703667344139411,-0.0017703667344139411
280.621,0.00031188162784681595,-0.00031188162784681595
280.62199999999996,0.0025374481849205293,0.0025374481849205293
280.623,0.006248680032161298,0.006248680032161298
280.62399999999997,0.009821021930900922,0.009821021930900922
280.625,0.012042916742052686,0.012042916742052686
280.626,0.011860280817895297,0.011860280817895297
280.627,0.008736450164294042,0.008736450164294042
280.628,0.0028832440814018827,0.0028832440814018827
280.62899999999996,0.004721516871767085,-0.004721516871767085
280.63,0.012548567126943671,-0.012548567126943671
280.631,0.01890765947757098,-0.01890765947757098
280.632,0.022399583535025865,-0.022399583535025865
280.633,0.022293545124743158,-0.022293545124743158
280.63399999999996,0.018715891890722314,-0.018715891890722314
280.635,0.012595182803998238,-0.012595182803998238
280.63599999999997,0.005384841313098479,-0.005384841313098479
280.637,0.0013471597467701263,0.0013471597467701263
280.638,0.006334206386227314,0.006334206386227314
280.639,0.00890920860628826,0.00890920860628826
280.64,0.009105018924382846,0.009105018924382846
280.64099999999996,0.007543936052566747,0.007543936052566747
280.642,0.005170306395032841,0.005170306395032841
280.643,0.0029254090021533547,0.0029254090021533547
280.644,0.0014730920874278467,0.0014730920874278467
280.645,0.001057091100860318,0.001057091100860318
280.64599999999996,0.0015184195337466261,0.0015184195337466261
280.647,0.0024435679865386687,0.0024435679865386687
280.64799999999997,0.0033720476194764146,0.0033720476194764146
280.649,0.003978981939582205,0.003978981939582205
280.65,0.0041675434150035065,0.0041675434150035065
280.651,0.0040478318057425655,0.0040478318057425655
280.652,0.0038261838086374638,0.0038261838086374638
280.65299999999996,0.0036635107551755463,0.0036635107551755463
280.654,0.0035703338365760074,0.0035703338365760074
280.655,0.0033872086241061665,0.0033872086241061665
280.656,0.002860586655485702,0.002860586655485702
280.657,0.0017817005934032495,0.0017817005934032495
280.65799999999996,0.00012690944538728315,0.00012690944538728315
280.659,0.0018660752053507015,-0.0018660752053507015
280.65999999999997,0.0037285399947433132,-0.0037285399947433132
280.661,0.004898490812856421,-0.004898490812856421
280.662,0.0049222794945054755,-0.0049222794945054755
280.66299999999995,0.0036471064474059914,-0.0036471064474059914
280.664,0.0013285608653502091,-0.0013285608653502091
280.66499999999996,0.0013964950495940545,0.0013964950495940545
280.666,0.0036749627523295554,0.0036749627523295554
280.667,0.00469351969756554,0.00469351969756554
280.668,0.003943037930128888,0.003943037930128888
280.669,0.0014013086083640783,0.0014013086083640783
280.66999999999996,0.002431839809334672,-0.002431839809334672
280.671,0.006664768108409472,-0.006664768108409472
280.67199999999997,0.010271643888107257,-0.010271643888107257
280.673,0.012395693470546757,-0.012395693470546757
280.674,0.0125998759332235,-0.0125998759332235
280.67499999999995,0.010983655725410749,-0.010983655725410749
280.676,0.008129154580936855,-0.008129154580936855
280.67699999999996,0.00489698318067506,-0.00489698318067506
280.678,0.0021418844435939165,-0.0021418844435939165
280.679,0.0004439218117951348,-0.0004439218117951348
280.68,5.623301977903316e-05,5.623301977903316e-05
280.681,0.00033353163602092004,-0.00033353163602092004
280.68199999999996,0.0010006895169149502,-0.0010006895169149502
280.683,0.0012706953694997581,-0.0012706953694997581
280.68399999999997,0.000661696513218243,-0.000661696513218243
280.685,0.0009370965262623022,0.0009370965262623022
280.686,0.0032232866580422536,0.0032232866580422536
280.68699999999995,0.005586921843368794,0.005586921843368794
280.688,0.0073242163378011566,0.0073242163378011566
280.68899999999996,0.007883397892236164,0.007883397892236164
280.69,0.007057383660067286,0.007057383660067286
280.691,0.005058115947312112,0.005058115947312112
280.692,0.0024492789294720207,0.0024492789294720207
280.693,3.718637075295557e-05,-3.718637075295557e-05
280.69399999999996,0.0017366919823234507,-0.0017366919823234507
280.695,0.002259911325002789,-0.002259911325002789
280.69599999999997,0.001604926168015805,-0.001604926168015805
280.697,0.00013987539845891484,-0.00013987539845891484
280.698,0.0015332295916728829,0.0015332295916728829
280.69899999999996,0.002783808512720509,0.002783808512720509
280.7,0.0031567000228093878,0.0031567000228093878
280.70099999999996,0.002508189587755779,0.002508189587755779
280.702,0.0010333033623207116,0.0010333033623207116
280.703,0.0008182711095668649,-0.0008182711095668649
280.704,0.0025033618753224317,-0.0025033618753224317
280.705,0.003565973003599168,-0.003565973003599168
280.70599999999996,0.003777111357568385,-0.003777111357568385
280.707,0.003191036585244752,-0.003191036585244752
280.70799999999997,0.002105816040081422,-0.002105816040081422
280.709,0.0009485399768444896,-0.0009485399768444896
280.71,0.0001287907894623425,-0.0001287907894623425
280.71099999999996,8.920054697190188e-05,8.920054697190188e-05
280.712,0.000344120215644246,-0.000344120215644246
280.71299999999997,0.0012696190486869436,-0.0012696190486869436
280.714,0.002390987177369726,-0.002390987177369726
280.715,0.0033812432762037677,-0.0033812432762037677
280.716,0.003985353234532561,-0.003985353234532561
280.717,0.004085866615130698,-0.004085866615130698
280.71799999999996,0.0037149576880952644,-0.0037149576880952644
280.719,0.003016625500490647,-0.003016625500490647
280.71999999999997,0.002179484763551324,-0.002179484763551324
280.721,0.0013680439978202839,-0.0013680439978202839
280.722,0.0006769475316730805,-0.0006769475316730805
280.72299999999996,0.0001207945294052015,-0.0001207945294052015
280.724,0.0003428691157952683,0.0003428691157952683
280.72499999999997,0.0007720320721654709,0.0007720320721654709
280.726,0.0011999803771195403,0.0011999803771195403
280.727,0.0016130265411325264,0.0016130265411325264
280.728,0.0019535582752592913,0.0019535582752592913
280.729,0.0021445059223031628,0.0021445059223031628
280.72999999999996,0.002122802163449876,0.002122802163449876
280.731,0.0018667828128996538,0.0018667828128996538
280.73199999999997,0.0014063081570656502,0.0014063081570656502
280.733,0.0008125757150780961,0.0008125757150780961
280.734,0.00017342364992010547,0.00017342364992010547
280.73499999999996,0.0004343532678491315,-0.0004343532678491315
280.736,0.000963766986771801,-0.000963766986771801
280.73699999999997,0.0014003964583912964,-0.0014003964583912964
280.738,0.001749774640945719,-0.001749774640945719
280.739,0.002017154102635791,-0.002017154102635791
280.74,0.0021908020512116594,-0.0021908020512116594
280.741,0.0022381777425354004,-0.0022381777425354004
280.74199999999996,0.0021181421862057387,-0.0021181421862057387
280.743,0.0018044565305383301,-0.0018044565305383301
280.74399999999997,0.0013097370408519213,-0.0013097370408519213
280.745,0.0006975554840276605,-0.0006975554840276605
280.746,7.441564265177271e-05,-7.441564265177271e-05
280.74699999999996,0.0004385198854905945,0.0004385198854905945
280.748,0.00074507174499974,0.00074507174499974
280.74899999999997,0.0008100889849889058,0.0008100889849889058
280.75,0.0006765655274237629,0.0006765655274237629
280.751,0.0004544687921860459,0.0004544687921860459
280.752,0.0002823146377835366,0.0002823146377835366
280.753,0.00027351537031847716,0.00027351537031847716
280.75399999999996,0.0004668059564160143,0.0004668059564160143
280.755,0.0008004748452984018,0.0008004748452984018
280.756,0.001122997145317926,0.001122997145317926
280.757,0.0012401396064760334,0.0012401396064760334
280.758,0.0009850008136330205,0.0009850008136330205
280.75899999999996,0.00028774361721390534,0.00028774361721390534
280.76,0.0007802153260467234,-0.0007802153260467234
280.76099999999997,0.0020058741022277067,-0.0020058741022277067
280.762,0.0030826175247291236,-0.0030826175247291236
280.763,0.0036946514627351386,-0.0036946514627351386
280.764,0.003612927169431062,-0.003612927169431062
280.765,0.0027722745989020164,-0.0027722745989020164
280.76599999999996,0.0013040769075810762,-0.0013040769075810762
280.767,0.00048790364432918265,0.00048790364432918265
280.768,0.002203232475367209,0.002203232475367209
280.769,0.0034503921307455004,0.0034503921307455004
280.77,0.003951035128550698,0.003951035128550698
280.77099999999996,0.003612030469500766,0.003612030469500766
280.772,0.002544554550620063,0.002544554550620063
280.77299999999997,0.0010259906599799254,0.0010259906599799254
280.774,0.0005821295881569784,-0.0005821295881569784
280.775,0.0019341270061049567,-0.0019341270061049567
280.776,0.002787963477147252,-0.002787963477147252
280.777,0.0030561643950702583,-0.0030561643950702583
280.77799999999996,0.002808149789278383,-0.002808149789278383
280.779,0.0022280441366020988,-0.0022280441366020988
280.78,0.0015454028623230933,-0.0015454028623230933
280.781,0.00096302345224005,-0.00096302345224005
280.782,0.0006043460801817414,-0.0006043460801817414
280.78299999999996,0.0004940703591003199,-0.0004940703591003199
280.784,0.0005730778659540447,-0.0005730778659540447
280.78499999999997,0.0007371368762450728,-0.0007371368762450728
280.786,0.0008821336426816482,-0.0008821336426816482
280.787,0.00093869719955675,-0.00093869719955675
280.78799999999995,0.0008854534271597875,-0.0008854534271597875
280.789,0.0007399148091415724,-0.0007399148091415724
280.78999999999996,0.0005352422197204238,-0.0005352422197204238
280.791,0.00029625837106263736,-0.00029625837106263736
280.792,2.7305993546577086e-05,-2.7305993546577086e-05
280.793,0.0002816655068500088,0.0002816655068500088
280.794,0.0006334090233565606,0.0006334090233565606
280.79499999999996,0.0009967903641577508,0.0009967903641577508
280.796,0.001289760378476086,0.001289760378476086
280.79699999999997,0.0013840015781146037,0.0013840015781146037
280.798,0.001135484580917325,0.001135484580917325
280.799,0.00043452840647106357,0.00043452840647106357
280.79999999999995,0.0007404447344891408,-0.0007404447344891408
280.801,0.0022856448253020067,-0.0022856448253020067
280.80199999999996,0.0039685108366135195,-0.0039685108366135195
280.803,0.005465888022838875,-0.005465888022838875
280.804,0.00643788917916886,-0.00643788917916886
280.805,0.006618479186137409,-0.006618479186137409
280.806,0.0058959591611650285,-0.0058959591611650285
280.80699999999996,0.004357026206191683,-0.004357026206191683
280.808,0.0022774376264981483,-0.0022774376264981483
280.80899999999997,5.8014229970695574e-05,-5.8014229970695574e-05
280.81,0.0018780293601228253,0.0018780293601228253
280.811,0.0031972496360180036,0.0031972496360180036
280.81199999999995,0.0037439079847383246,0.0037439079847383246
280.813,0.0035760065834978556,0.0035760065834978556
280.81399999999996,0.0029370053837411625,0.0029370053837411625
280.815,0.002170728127789575,0.002170728127789575
280.816,0.0016053319260987723,0.0016053319260987723
280.817,0.0014429972915066293,0.0014429972915066293
280.818,0.001691371369102116,0.001691371369102116
280.81899999999996,0.002160482941996752,0.002160482941996752
280.82,0.0025283406189978183,0.0025283406189978183
280.82099999999997,0.0024560256696033933,0.0024560256696033933
280.822,0.0017159759019353257,0.0017159759019353257
280.823,0.00029109489114420914,0.00029109489114420914
280.82399999999996,0.0015902512439155856,-0.0015902512439155856
280.825,0.003499184538881133,-0.003499184538881133
280.82599999999996,0.004921922566052675,-0.004921922566052675
280.827,0.0054134231945993285,-0.0054134231945993285
280.828,0.00474247466873094,-0.00474247466873094
280.829,0.002981881149095541,-0.002981881149095541
280.83,0.0005123516197351452,-0.0005123516197351452
280.83099999999996,0.002065803329375672,0.002065803329375672
280.832,0.004090708790241145,0.004090708790241145
280.83299999999997,0.005021878549819967,0.005021878549819967
280.834,0.004594128587960466,0.004594128587960466
280.835,0.002895836248103484,0.002895836248103484
280.83599999999996,0.0003468745610885631,0.0003468745610885631
280.837,0.0024184401749938723,-0.0024184401749938723
280.83799999999997,0.004729210811326381,-0.004729210811326381
280.839,0.0060638295197708875,-0.0060638295197708875
280.84,0.006188602091094249,-0.006188602091094249
280.841,0.005208513774349363,-0.005208513774349363
280.842,0.00351676027207989,-0.00351676027207989
280.84299999999996,0.0016609552645496695,-0.0016609552645496695
280.844,0.00016937532733691735,-0.00016937532733691735
280.84499999999997,0.0006078472106281563,0.0006078472106281563
280.846,0.0005936371108582187,0.0005936371108582187
280.847,1.250419470016863e-05,-1.250419470016863e-05
280.84799999999996,0.0008199784997324303,-0.0008199784997324303
280.849,0.0013905981851585261,-0.0013905981851585261
280.84999999999997,0.0013911712550883032,-0.0013911712550883032
280.851,0.0007045921088017101,-0.0007045921088017101
280.852,0.0005360756755073007,0.0005360756755073007
280.853,0.0019995049810707173,0.0019995049810707173
280.854,0.0032739594276822576,0.0032739594276822576
280.85499999999996,0.0040093009807265515,0.0040093009807265515
280.856,0.00403409826592163,0.00403409826592163
280.85699999999997,0.0034083033271396913,0.0034083033271396913
280.858,0.0023948292426874754,0.0023948292426874754
280.859,0.001361608512085215,0.001361608512085215
280.85999999999996,0.0006495862048176518,0.0006495862048176518
280.861,0.0004534044438157305,0.0004534044438157305
280.86199999999997,0.0007564488491422309,0.0007564488491422309
280.863,0.0013423338382790478,0.0013423338382790478
280.864,0.0018777276071607109,0.0018777276071607109
280.865,0.0020362214219949936,0.0020362214219949936
280.866,0.0016185941543735945,0.0016185941543735945
280.86699999999996,0.0006263668912491946,0.0006263668912491946
280.868,0.0007375599575215094,-0.0007375599575215094
280.86899999999997,0.0021411230534837977,-0.0021411230534837977
280.87,0.003241794009051607,-0.003241794009051607
280.871,0.0038084572006631206,-0.0038084572006631206
280.87199999999996,0.0038017671251572302,-0.0038017671251572302
280.873,0.0033830841445655732,-0.0033830841445655732
280.87399999999997,0.002847961683046274,-0.002847961683046274
280.875,0.0025079378311436587,-0.0025079378311436587
280.876,0.0025640605152900085,-0.0025640605152900085
280.877,0.0030198541056738375,-0.0030198541056738375
280.878,0.0036683908089798563,-0.0036683908089798563
280.87899999999996,0.004162000704360718,-0.004162000704360718
280.88,0.004142967977785838,-0.004142967977785838
280.881,0.0033900378519588076,-0.0033900378519588076
280.882,0.0019273502741715188,-0.0019273502741715188
280.883,5.2994383372961e-05,-5.2994383372961e-05
280.88399999999996,0.00172932062899238,0.00172932062899238
280.885,0.002858644724173614,0.002858644724173614
280.88599999999997,0.0028994214023882587,0.0028994214023882587
280.887,0.001698224201014786,0.001698224201014786
280.888,0.0005398525277547394,-0.0005398525277547394
280.889,0.003285131865151853,-0.003285131865151853
280.89,0.005822147326582623,-0.005822147326582623
280.89099999999996,0.007453060741179403,-0.007453060741179403
280.892,0.007703122953976538,-0.007703122953976538
280.893,0.006463373925246386,-0.006463373925246386
280.894,0.004024767451946785,-0.004024767451946785
280.895,0.0009920947874849004,-0.0009920947874849004
280.89599999999996,0.0018956670001654373,0.0018956670001654373
280.897,0.0039821999364750066,0.0039821999364750066
280.89799999999997,0.004880016041114582,0.004880016041114582
280.899,0.004568593757603365,0.004568593757603365
280.9,0.0033760527047470724,0.0033760527047470724
280.901,0.0018536665567953096,0.0018536665567953096
280.902,0.0005865852950188399,0.0005865852950188399
280.90299999999996,3.459462051961403e-06,3.459462051961403e-06
280.904,0.00024616848846567514,0.00024616848846567514
280.905,0.0011394714314078458,0.0011394714314078458
280.906,0.0022666025889682574,0.0022666025889682574
280.907,0.0031220574258594377,0.0031220574258594377
280.90799999999996,0.0032885452047909836,0.0032885452047909836
280.909,0.002579034209755907,0.002579034209755907
280.90999999999997,0.0010984280986328927,0.0010984280986328927
280.911,0.0007924578980488545,-0.0007924578980488545
280.912,0.0025951380181048708,-0.0025951380181048708
280.91299999999995,0.003832019576347369,-0.003832019576347369
280.914,0.0041919575442860455,-0.0041919575442860455
280.91499999999996,0.0036162521986336143,-0.0036162521986336143
280.916,0.002300538489089021,-0.002300538489089021
280.917,0.0006171878078052026,-0.0006171878078052026
280.918,0.0010109778926269144,0.0010109778926269144
280.919,0.0022404353384146906,0.0022404353384146906
280.91999999999996,0.002896687733649366,0.002896687733649366
280.921,0.0029970813316610224,0.0029970813316610224
280.92199999999997,0.0027048881522819665,0.0027048881522819665
280.923,0.002237283821814752,0.002237283821814752
280.924,0.001765127477017143,0.001765127477017143
280.92499999999995,0.0013434843685895582,0.0013434843685895582
280.926,0.0008987055493197947,0.0008987055493197947
280.92699999999996,0.000275666661119325,0.000275666661119325
280.928,0.0006743620687643261,-0.0006743620687643261
280.929,0.002000452862764803,-0.002000452862764803
280.93,0.0035913093786046966,-0.0035913093786046966
280.931,0.005173831465952695,-0.005173831465952695
280.93199999999996,0.006376522755156802,-0.006376522755156802
280.933,0.0068396754093361985,-0.0068396754093361985
280.93399999999997,0.006336463637160915,-0.006336463637160915
280.935,0.004863384614775429,-0.004863384614775429
280.936,0.0026670184725177738,-0.0026670184725177738
280.93699999999995,0.00019410134855249063,-0.00019410134855249063
280.938,0.002023207826929502,0.002023207826929502
280.93899999999996,0.003513489160998371,0.003513489160998371
280.94,0.00399928121971155,0.00399928121971155
280.941,0.0034761287087672964,0.0034761287087672964
280.942,0.0022125069949095136,0.0022125069949095136
280.943,0.0006698535828408649,0.0006698535828408649
280.94399999999996,0.0006336757705899376,-0.0006336757705899376
280.945,0.001275154399678973,-0.001275154399678973
280.94599999999997,0.0010495902230771455,-0.0010495902230771455
280.947,2.7746568099598595e-05,-2.7746568099598595e-05
280.948,0.001466761187181854,0.001466761187181854
280.94899999999996,0.002952932623363938,0.002952932623363938
280.95,0.003931410396660226,0.003931410396660226
280.95099999999996,0.0040264747008382385,0.0040264747008382385
280.952,0.0030910878814409356,0.0030910878814409356
280.953,0.0012472114075613096,0.0012472114075613096
280.954,0.0011469634422340638,-0.0011469634422340638
280.955,0.003590607145937368,-0.003590607145937368
280.95599999999996,0.00556659631497017,-0.00556659631497017
280.957,0.006665717066804969,-0.006665717066804969
280.95799999999997,0.0066771957912750155,-0.0066771957912750155
280.959,0.005625706753083724,-0.005625706753083724
280.96,0.0037508925641801783,-0.0037508925641801783
280.96099999999996,0.0014406036747274084,-0.0014406036747274084
280.962,0.0008606644546913025,0.0008606644546913025
280.96299999999997,0.0027435496339522337,0.0027435496339522337
280.964,0.003905169267174625,0.003905169267174625
280.965,0.004188188308835129,0.004188188308835129
280.966,0.0035860913487943693,0.0035860913487943693
280.967,0.002221696480050278,0.002221696480050278
280.96799999999996,0.0003104976074172544,0.0003104976074172544
280.969,0.0018796212966437028,-0.0018796212966437028
280.96999999999997,0.004064356191805078,-0.004064356191805078
280.971,0.005971754298805134,-0.005971754298805134
280.972,0.007365135167239159,-0.007365135167239159
280.97299999999996,0.008063277407602766,-0.008063277407602766
280.974,0.007959862798948862,-0.007959862798948862
280.97499999999997,0.0070410098334383435,-0.0070410098334383435
280.976,0.005396276855405341,-0.005396276855405341
280.977,0.0032166858298322606,-0.0032166858298322606
280.978,0.000774425750243579,-0.000774425750243579
280.979,0.0016169019794124273,0.0016169019794124273
280.97999999999996,0.003656472248527465,0.003656472248527465
280.981,0.005113812546948556,0.005113812546948556
280.98199999999997,0.005875187293078034,0.005875187293078034
280.983,0.005964922057346701,0.005964922057346701
280.984,0.005533213573226142,0.005533213573226142
280.98499999999996,0.004810945024646075,0.004810945024646075
280.986,0.004042041081247695,0.004042041081247695
280.98699999999997,0.0034117783083136544,0.0034117783083136544
280.988,0.0029923887001395244,0.0029923887001395244
280.989,0.0027237639969449287,0.0027237639969449287
280.99,0.0024375529884675382,0.0024375529884675382
280.991,0.0019199062047585997,0.0019199062047585997
280.99199999999996,0.000995403775024924,0.000995403775024924
280.993,0.00039360102816806466,-0.00039360102816806466
280.99399999999997,0.002138831644902331,-0.002138831644902331
280.995,0.003968198193864478,-0.003968198193864478
280.996,0.0055029845248247295,-0.0055029845248247295
280.99699999999996,0.006357921308828848,-0.006357921308828848
280.998,0.006257324974542821,-0.006257324974542821
280.99899999999997,0.005133009334396296,-0.005133009334396296
281.0,0.0031722328332259297,-0.0031722328332259297
281.001,0.000796456192724028,-0.000796456192724028
281.002,0.0014290358036897826,0.0014290358036897826
281.003,0.0029340389860906006,0.0029340389860906006
281.00399999999996,0.0032946182305817412,0.0032946182305817412
281.005,0.0023546291100609226,0.0023546291100609226
281.006,0.00028202685555837783,0.00028202685555837783
281.007,0.002458497395173692,-0.002458497395173692
281.008,0.005211986226230644,-0.005211986226230644
281.00899999999996,0.007291941156877712,-0.007291941156877712
281.01,0.008149521809472118,-0.008149521809472118
281.01099999999997,0.00750834480947556,-0.00750834480947556
281.012,0.0054297017761856525,-0.0054297017761856525
281.013,0.002292583856981879,-0.002292583856981879
281.014,0.0013035309513047808,0.0013035309513047808
281.015,0.004684600870885924,0.004684600870885924
281.01599999999996,0.0072564902759250155,0.0072564902759250155
281.017,0.00862816257525597,0.00862816257525597
281.018,0.008675359958709954,0.008675359958709954
281.019,0.007535225031300791,0.007535225031300791
281.02,0.00554200326622806,0.00554200326622806
281.02099999999996,0.003128613908508169,0.003128613908508169
281.022,0.0007244923854211981,0.0007244923854211981
281.02299999999997,0.0013240858004868207,-0.0013240858004868207
281.024,0.002796490215953726,-0.002796490215953726
281.025,0.0036024204001603066,-0.0036024204001603066
281.026,0.0037597511223957793,-0.0037597511223957793
281.027,0.0033618315325100122,-0.0033618315325100122
281.02799999999996,0.0025485888747677973,-0.0025485888747677973
281.029,0.0014884062242587466,-0.0014884062242587466
281.03,0.0003687612565861354,-0.0003687612565861354
281.031,0.000612744482966505,0.000612744482966505
281.032,0.0012661761588168025,0.0012661761588168025
281.03299999999996,0.001440020942826578,0.001440020942826578
281.034,0.0010603667747459903,0.0010603667747459903
281.03499999999997,0.00016570133327510693,0.00016570133327510693
281.036,0.0010791562098905992,-0.0010791562098905992
281.037,0.002403079763205099,-0.002403079763205099
281.03799999999995,0.003485543465355462,-0.003485543465355462
281.039,0.004039652101774187,-0.004039652101774187
281.03999999999996,0.003898429307670421,-0.003898429307670421
281.041,0.003076057141257804,-0.003076057141257804
281.042,0.001780045397586437,-0.001780045397586437
281.043,0.0003639775441013424,-0.0003639775441013424
281.044,0.0007703928441781421,0.0007703928441781421
281.04499999999996,0.0012946850322654595,0.0012946850322654595
281.046,0.001061341894450916,0.001061341894450916
281.04699999999997,0.0001605462794501527,0.0001605462794501527
281.048,0.0010959592381674203,-0.0010959592381674203
281.049,0.00226406241418801,-0.00226406241418801
281.04999999999995,0.0029051348057868593,-0.0029051348057868593
281.051,0.002730513053130646,-0.002730513053130646
281.05199999999996,0.0017058570161344758,-0.0017058570161344758
281.053,7.920273023162315e-05,-7.920273023162315e-05
281.054,0.0016803953063795236,0.0016803953063795236
281.055,0.003018288273616012,0.003018288273616012
281.056,0.003463787104020249,0.003463787104020249
281.05699999999996,0.002781442064204603,0.002781442064204603
281.058,0.0010557784606381267,0.0010557784606381267
281.05899999999997,0.0013189620592429072,-0.0013189620592429072
281.06,0.003743153543604699,-0.003743153543604699
281.061,0.005579735160226937,-0.005579735160226937
281.06199999999995,0.006335188157050864,-0.006335188157050864
281.063,0.005798777946795287,-0.005798777946795287
281.06399999999996,0.004098449080164849,-0.004098449080164849
281.065,0.0016579353464182165,-0.0016579353464182165
281.066,0.0009296778436857915,0.0009296778436857915
281.067,0.0030714316683106875,0.0030714316683106875
281.068,0.00433464042274476,0.00433464042274476
281.06899999999996,0.004550351447744153,0.004550351447744153
281.07,0.0038325500224655235,0.0038325500224655235
281.07099999999997,0.0025132119999199476,0.0025132119999199476
281.072,0.0010196092615172298,0.0010196092615172298
281.073,0.0002632754955682733,-0.0002632754955682733
281.07399999999996,0.0011006779025068511,-0.0011006779025068511
281.075,0.0014546713039993364,-0.0014546713039993364
281.07599999999996,0.0014602810030735767,-0.0014602810030735767
281.077,0.0013459413352674226,-0.0013459413352674226
281.078,0.0013306452235054493,-0.0013306452235054493
281.079,0.0015355814326597794,-0.0015355814326597794
281.08,0.001940298897021007,-0.001940298897021007
281.08099999999996,0.0023958910965101274,-0.0023958910965101274
281.082,0.002686936210317093,-0.002686936210317093
281.08299999999997,0.0026172904434974865,-0.0026172904434974865
281.084,0.002087824380768139,-0.002087824380768139
281.085,0.0011386929342402032,-0.0011386929342402032
281.08599999999996,5.7482109289886585e-05,5.7482109289886585e-05
281.087,0.001247389478392324,0.001247389478392324
281.08799999999997,0.0021743349946447142,0.0021743349946447142
281.089,0.0026539673430250785,0.0026539673430250785
281.09,0.0026234604739746254,0.0026234604739746254
281.091,0.0021497877309381215,0.0021497877309381215
281.092,0.0013975152931708368,0.0013975152931708368
281.09299999999996,0.0005700804644014214,0.0005700804644014214
281.094,0.00015382695505545516,-0.00015382695505545516
281.09499999999997,0.0006676085102588683,-0.0006676085102588683
281.096,0.0009543690220589221,-0.0009543690220589221
281.097,0.0010729595880228358,-0.0010729595880228358
281.09799999999996,0.0011216486493239668,-0.0011216486493239668
281.099,0.0011951682147010878,-0.0011951682147010878
281.09999999999997,0.0013510320038350467,-0.0013510320038350467
281.101,0.0015953921226386785,-0.0015953921226386785
281.102,0.0018900143965105633,-0.0018900143965105633
281.103,0.002173835368502329,-0.002173835368502329
281.104,0.0023880803540372716,-0.0023880803540372716
281.10499999999996,0.0024944261131703083,-0.0024944261131703083
281.106,0.0024804238327725925,-0.0024804238327725925
281.10699999999997,0.002352943010126776,-0.002352943010126776
281.108,0.0021257806336609005,-0.0021257806336609005
281.109,0.0018095364649911537,-0.0018095364649911537
281.10999999999996,0.0014097421662408562,-0.0014097421662408562
281.111,0.0009342366849129905,-0.0009342366849129905
281.11199999999997,0.0004053484145696464,-0.0004053484145696464
281.113,0.000130812633452786,0.000130812633452786
281.114,0.0006051068947105927,0.0006051068947105927
281.115,0.0009390602865579249,0.0009390602865579249
281.116,0.0010682251789303516,0.0010682251789303516
281.11699999999996,0.0009665906125289989,0.0009665906125289989
281.118,0.0006614644864427598,0.0006614644864427598
281.11899999999997,0.0002308734920701169,0.0002308734920701169
281.12,0.00021799791087694548,-0.00021799791087694548
281.121,0.0005829477257888982,-0.0005829477257888982
281.12199999999996,0.0008011083136976806,-0.0008011083136976806
281.123,0.0008697544907701248,-0.0008697544907701248
281.12399999999997,0.000844028716416679,-0.000844028716416679
281.125,0.0008106154674108513,-0.0008106154674108513
281.126,0.0008461741797573441,-0.0008461741797573441
281.127,0.0009764298713530064,-0.0009764298713530064
281.128,0.0011531133213013305,-0.0011531133213013305
281.12899999999996,0.0012604225900427108,-0.0012604225900427108
281.13,0.0011519759479729776,-0.0011519759479729776
281.131,0.0007071564795571547,-0.0007071564795571547
281.132,0.00011305012253562211,0.00011305012253562211
281.133,0.0012324510920343284,0.0012324510920343284
281.13399999999996,0.0024636046453690905,0.0024636046453690905
281.135,0.0035518831738848475,0.0035518831738848475
281.13599999999997,0.004247424072176738,0.004247424072176738
281.137,0.004381479270197918,0.004381479270197918
281.138,0.003920379706947182,0.003920379706947182
281.139,0.002976764668877533,0.002976764668877533
281.14,0.0017720848553854057,0.0017720848553854057
281.14099999999996,0.0005617945975857335,0.0005617945975857335
281.142,0.00045118642562290065,-0.00045118642562290065
281.143,0.0011836635327705978,-0.0011836635327705978
281.144,0.0016945962366725254,-0.0016945962366725254
281.145,0.002152676591518153,-0.002152676591518153
281.14599999999996,0.002758804120454495,-0.002758804120454495
281.147,0.0036504957094972705,-0.0036504957094972705
281.14799999999997,0.004823545265192533,-0.004823545265192533
281.149,0.006102029728877737,-0.006102029728877737
281.15,0.007171955775762302,-0.007171955775762302
281.151,0.007671612628175047,-0.007671612628175047
281.152,0.007310750716573265,-0.007310750716573265
281.15299999999996,0.0059786220409829005,-0.0059786220409829005
281.154,0.0038024104676047474,-0.0038024104676047474
281.155,0.0011327037590613588,-0.0011327037590613588
281.156,0.0015433720313046103,0.0015433720313046103
281.157,0.0037360024984476005,0.0037360024984476005
281.15799999999996,0.005091280685318562,0.005091280685318562
281.159,0.005489385246004656,0.005489385246004656
281.15999999999997,0.005069608545923197,0.005069608545923197
281.161,0.004173368078752533,0.004173368078752533
281.162,0.003223658803641267,0.003223658803641267
281.16299999999995,0.0025808674708570323,0.0025808674708570323
281.164,0.0024230376317247544,0.0024230376317247544
281.16499999999996,0.002690606042631334,0.002690606042631334
281.166,0.0031139521715475064,0.0031139521715475064
281.167,0.0033141376991015267,0.0033141376991015267
281.168,0.0029424798072922873,0.0029424798072922873
281.169,0.0018115277784474517,0.0018115277784474517
281.16999999999996,2.6976938712671102e-05,-2.6976938712671102e-05
281.171,0.002283576473591809,-0.002283576473591809
281.17199999999997,0.0045116524043579305,-0.0045116524043579305
281.173,0.006240317738747557,-0.006240317738747557
281.174,0.007115825128935048,-0.007115825128935048
281.17499999999995,0.007005530525905251,-0.007005530525905251
281.176,0.006031679241233673,-0.006031679241233673
281.17699999999996,0.004526064886326101,-0.004526064886326101
281.178,0.002922655349232563,-0.002922655349232563
281.179,0.001624745020569125,-0.001624745020569125
281.18,0.0008897600207460231,-0.0008897600207460231
281.181,0.0007668237736054679,-0.0007668237736054679
281.18199999999996,0.0011029589669306122,-0.0011029589669306122
281.183,0.0016104459333480313,-0.0016104459333480313
281.18399999999997,0.001968560920096006,-0.001968560920096006
281.185,0.0019240464729166128,-0.0019240464729166128
281.186,0.0013586001818801246,-0.0013586001818801246
281.18699999999995,0.00030613513481692924,-0.00030613513481692924
281.188,0.0010783291658102623,0.0010783291658102623
281.18899999999996,0.002579759195847239,0.002579759195847239
281.19,0.003987688508408916,0.003987688508408916
281.191,0.005140476894781444,0.005140476894781444
281.192,0.005937083834090856,0.005937083834090856
281.193,0.0063196300376270565,0.0063196300376270565
281.19399999999996,0.006242829246213507,0.006242829246213507
281.195,0.0056514009961368015,0.0056514009961368015
281.19599999999997,0.00448192352375273,0.00448192352375273
281.197,0.002693304532822708,0.002693304532822708
281.198,0.00031530212410363963,0.00031530212410363963
281.19899999999996,0.0025064419499502303,-0.0025064419499502303
281.2,0.005492743160559977,-0.005492743160559977
281.20099999999996,0.008256695796764675,-0.008256695796764675
281.202,0.010373682256933855,-0.010373682256933855
281.203,0.011478916112653429,-0.011478916112653429
281.204,0.011363251640500805,-0.011363251640500805
281.205,0.010035331829094819,-0.010035331829094819
281.20599999999996,0.007727091900591493,-0.007727091900591493
281.207,0.004837528189820559,-0.004837528189820559
281.20799999999997,0.001830357836560314,-0.001830357836560314
281.209,0.0008826924158234831,0.0008826924158234831
281.21,0.003035734880550397,0.003035734880550397
281.21099999999996,0.004549937805279647,0.004549937805279647
281.212,0.005510464755208257,0.005510464755208257
281.21299999999997,0.006090042101765409,0.006090042101765409
281.214,0.0064490399091364945,0.0064490399091364945
281.215,0.006650449489952501,0.006650449489952501
281.216,0.0066228615506465135,0.0066228615506465135
281.217,0.006187082795291971,0.006187082795291971
281.21799999999996,0.0051383894748072605,0.0051383894748072605
281.219,0.0033549781185698018,0.0033549781185698018
281.21999999999997,0.0008917261056198159,0.0008917261056198159
281.221,0.001978667887991154,-0.001978667887991154
281.222,0.004798329872474834,-0.004798329872474834
281.22299999999996,0.007026738790813724,-0.007026738790813724
281.224,0.008184411761418212,-0.008184411761418212
281.22499999999997,0.007993117421558846,-0.007993117421558846
281.226,0.006466760697257728,-0.006466760697257728
281.227,0.003921337765206319,-0.003921337765206319
281.228,0.0008976124839119781,-0.0008976124839119781
281.229,0.001981880844426796,0.001981880844426796
281.22999999999996,0.004178552782448886,0.004178552782448886
281.231,0.005375644977572742,0.005375644977572742
281.23199999999997,0.005546491649317588,0.005546491649317588
281.233,0.004933599809361683,0.004933599809361683
281.234,0.003947400784875157,0.003947400784875157
281.23499999999996,0.003018798604306644,0.003018798604306644
281.236,0.0024535983470224073,0.0024535983470224073
281.23699999999997,0.002335183121976731,0.002335183121976731
281.238,0.0025052640875054145,0.0025052640875054145
281.239,0.002626814153527155,0.002626814153527155
281.24,0.0023069207873771796,0.0023069207873771796
281.241,0.0012387506232580325,0.0012387506232580325
281.24199999999996,0.0006831864583159511,-0.0006831864583159511
281.243,0.0033106047949747917,-0.0033106047949747917
281.24399999999997,0.006267222348727145,-0.006267222348727145
281.245,0.009043335268254757,-0.009043335268254757
281.246,0.011128939364331854,-0.011128939364331854
281.24699999999996,0.012144657099896556,-0.012144657099896556
281.248,0.011932339151660008,-0.011932339151660008
281.24899999999997,0.010581387965218165,-0.010581387965218165
281.25,0.008387498004170456,-0.008387498004170456
281.251,0.005760805724615817,-0.005760805724615817
281.252,0.003114135463487546,-0.003114135463487546
281.253,0.0007653660551652684,-0.0007653660551652684
281.25399999999996,0.0011193136592541817,0.0011193136592541817
281.255,0.0025292719809549813,0.0025292719809549813
281.256,0.003565587812259832,0.003565587812259832
281.257,0.004368737019306985,0.004368737019306985
281.258,0.005044056462744737,0.005044056462744737
281.25899999999996,0.005609657592494949,0.005609657592494949
281.26,0.0059825618471241754,0.0059825618471241754
281.26099999999997,0.006005912149923971,0.006005912149923971
281.262,0.005507329190634647,0.005507329190634647
281.263,0.004369495400120448,0.004369495400120448
281.264,0.0025910449280286585,0.0025910449280286585
281.265,0.00031908984602819297,0.00031908984602819297
281.26599999999996,0.0021572131589744975,-0.0021572131589744975
281.267,0.00445225543125391,-0.00445225543125391
281.268,0.0061589635637898325,-0.0061589635637898325
281.269,0.006936179042339066,-0.006936179042339066
281.27,0.006588322401724637,-0.006588322401724637
281.27099999999996,0.005118651172380695,-0.005118651172380695
281.272,0.0027428549129211357,-0.0027428549129211357
281.27299999999997,0.0001419935325323846,0.0001419935325323846
281.274,0.003028597611391829,0.003028597611391829
281.275,0.005397240658927354,0.005397240658927354
281.276,0.0068202281215170935,0.0068202281215170935
281.277,0.0070503653694008635,0.0070503653694008635
281.27799999999996,0.006073154121377625,0.006073154121377625
281.279,0.004109558218151703,0.004109558218151703
281.28,0.00156706791779148,0.00156706791779148
281.281,0.001050916609687472,-0.001050916609687472
281.282,0.0032566783753056054,-0.0032566783753056054
281.28299999999996,0.004683979428708427,-0.004683979428708427
281.284,0.005161920032523358,-0.005161920032523358
281.28499999999997,0.004738454096233222,-0.004738454096233222
281.286,0.0036483236832819755,-0.0036483236832819755
281.287,0.0022353319555331558,-0.0022353319555331558
281.28799999999995,0.0008516684463874527,-0.0008516684463874527
281.289,0.0002365165477838083,0.0002365165477838083
281.28999999999996,0.0009101688984562695,0.0009101688984562695
281.291,0.0012082260820979471,0.0012082260820979471
281.292,0.0012871894207457206,0.0012871894207457206
281.293,0.0013443679476746156,0.0013443679476746156
281.294,0.0015313271328479938,0.0015313271328479938
281.29499999999996,0.0018871671556549103,0.0018871671556549103
281.296,0.0023147112774667034,0.0023147112774667034
281.29699999999997,0.002608453920518289,0.002608453920518289
281.298,0.002525743776951888,0.002525743776951888
281.299,0.0018778560476350188,0.0018778560476350188
281.29999999999995,0.0006103086224559131,0.0006103086224559131
281.301,0.0011554468071437508,-0.0011554468071437508
281.30199999999996,0.0031347469697670296,-0.0031347469697670296
281.303,0.004945148208098434,-0.004945148208098434
281.304,0.006205702809614385,-0.006205702809614385
281.305,0.006640068711371574,-0.006640068711371574
281.306,0.006151998790308123,-0.006151998790308123
281.30699999999996,0.004850475270209394,-0.004850475270209394
281.308,0.003017698094192688,-0.003017698094192688
281.30899999999997,0.0010309792950108443,-0.0010309792950108443
281.31,0.0007365518575278624,0.0007365518575278624
281.311,0.0020061180775633545,0.0020061180775633545
281.31199999999995,0.0026485774707253984,0.0026485774707253984
281.313,0.002691707588646341,0.002691707588646341
281.31399999999996,0.002282562933449949,0.002282562933449949
281.315,0.0016221051229558317,0.0016221051229558317
281.316,0.0008966889575014033,0.0008966889575014033
281.317,0.00022946501939678446,0.00022946501939678446
281.318,0.0003346375305844531,-0.0003346375305844531
281.31899999999996,0.0008101947550584593,-0.0008101947550584593
281.32,0.0012312454717846855,-0.0012312454717846855
281.32099999999997,0.0016094285158662555,-0.0016094285158662555
281.322,0.001909093514926324,-0.001909093514926324
281.323,0.002050255964016283,-0.002050255964016283
281.32399999999996,0.0019383813380844548,-0.0019383813380844548
281.325,0.0015087664757290973,-0.0015087664757290973
281.32599999999996,0.0007670127314551796,-0.0007670127314551796
281.327,0.00019191048466311194,0.00019191048466311194
281.328,0.0011956700823367186,0.0011956700823367186
281.329,0.002035626841158649,0.002035626841158649
281.33,0.002523853294433319,0.002523853294433319
281.33099999999996,0.0025467109826147532,0.0025467109826147532
281.332,0.0020964183211683147,0.0020964183211683147
281.33299999999997,0.0012697096300016291,0.0012697096300016291
281.334,0.00023434776939584644,0.00023434776939584644
281.335,0.000824403320945135,-0.000824403320945135
281.33599999999996,0.0017583802940347357,-0.0017583802940347357
281.337,0.0024933331580421518,-0.0024933331580421518
281.33799999999997,0.003036036668853717,-0.003036036668853717
281.339,0.0034509446835304138,-0.0034509446835304138
281.34,0.0038168281933808747,-0.0038168281933808747
281.341,0.004180941972503197,-0.004180941972503197
281.342,0.004528712071481957,-0.004528712071481957
281.34299999999996,0.0047806645176453385,-0.0047806645176453385
281.344,0.004817760669056922,-0.004817760669056922
281.34499999999997,0.004525467012746197,-0.004525467012746197
281.346,0.003839823170502214,-0.003839823170502214
281.347,0.0027780791361048146,-0.0027780791361048146
281.34799999999996,0.0014423342824442804,-0.0014423342824442804
281.349,5.249819627774765e-06,5.249819627774765e-06
281.34999999999997,0.001386532283905706,0.001386532283905706
281.351,0.002554642878576532,0.002554642878576532
281.352,0.0034274353693570323,0.0034274353693570323
281.353,0.003995764906174844,0.003995764906174844
281.354,0.0043050420390747125,0.0043050420390747125
281.35499999999996,0.004418826399559939,0.004418826399559939
281.356,0.004380074410253928,0.004380074410253928
281.35699999999997,0.004186428014897878,0.004186428014897878
281.358,0.003790310962098454,0.003790310962098454
281.359,0.0031246954909856435,0.0031246954909856435
281.35999999999996,0.002144958674055509,0.002144958674055509
281.361,0.0008702390014839679,0.0008702390014839679
281.36199999999997,0.0005931509689555146,-0.0005931509689555146
281.363,0.0020579554798375675,-0.0020579554798375675
281.364,0.003293204874977576,-0.003293204874977576
281.365,0.004082562838742391,-0.004082562838742391
281.366,0.004285841827283007,-0.004285841827283007
281.36699999999996,0.0038837567646242796,-0.0038837567646242796
281.368,0.002990832063058597,-0.002990832063058597
281.36899999999997,0.0018313546641661627,-0.0018313546641661627
281.37,0.0006849007540432944,-0.0006849007540432944
281.371,0.00018272208484527042,0.00018272208484527042
281.37199999999996,0.0005833328085058515,0.0005833328085058515
281.373,0.0004477504459550528,0.0004477504459550528
281.37399999999997,0.00016486316720818587,-0.00016486316720818587
281.375,0.0010891989688418839,-0.0010891989688418839
281.376,0.0020982208541519163,-0.0020982208541519163
281.377,0.002955686284602024,-0.002955686284602024
281.378,0.003462946900194428,-0.003462946900194428
281.37899999999996,0.0034907690704834827,-0.0034907690704834827
281.38,0.0029934063188667686,-0.0029934063188667686
281.381,0.002007819213668165,-0.002007819213668165
281.382,0.0006437188979296043,-0.0006437188979296043
281.383,0.0009305541510946147,0.0009305541510946147
281.38399999999996,0.002504356841037352,0.002504356841037352
281.385,0.0038446468460385367,0.0038446468460385367
281.38599999999997,0.004722291265894964,0.004722291265894964
281.387,0.004946021034125653,0.004946021034125653
281.388,0.004401036079840108,0.004401036079840108
281.389,0.0030842528309486033,0.0030842528309486033
281.39,0.0011249658008711729,0.0011249658008711729
281.39099999999996,0.001219590698578917,-0.001219590698578917
281.392,0.0035989642410590742,-0.0035989642410590742
281.393,0.005630979425482665,-0.005630979425482665
281.394,0.006977316232079035,-0.006977316232079035
281.395,0.007414290061336419,-0.007414290061336419
281.39599999999996,0.0068794646049041034,-0.0068794646049041034
281.397,0.005480735720743799,-0.005480735720743799
281.39799999999997,0.0034654101234800343,-0.0034654101234800343
281.399,0.00115898528257116,-0.00115898528257116
281.4,0.0011074847552125285,0.0011074847552125285
281.401,0.0030597896706735348,0.0030597896706735348
281.402,0.004515892336802292,0.004515892336802292
281.40299999999996,0.005388078902062693,0.005388078902062693
281.404,0.005658493370795788,0.005658493370795788
281.405,0.0053443740773161386,0.0053443740773161386
281.406,0.004472242001068744,0.004472242001068744
281.407,0.0030750371534395463,0.0030750371534395463
281.40799999999996,0.0012146034680394669,0.0012146034680394669
281.409,0.000981505207031074,-0.000981505207031074
281.40999999999997,0.0032896289548853836,-0.0032896289548853836
281.411,0.0053882545774156295,-0.0053882545774156295
281.412,0.006898933242659447,-0.006898933242659447
281.41299999999995,0.007468160090814098,-0.007468160090814098
281.414,0.006870742401507569,-0.006870742401507569
281.41499999999996,0.00510217351289131,-0.00510217351289131
281.416,0.0024249632969248966,-0.0024249632969248966
281.417,0.0006559541996552677,0.0006559541996552677
281.418,0.003492956791635282,0.003492956791635282
281.419,0.005450019578390086,0.005450019578390086
281.41999999999996,0.006070404016899299,0.006070404016899299
281.421,0.005207928395748222,0.005207928395748222
281.42199999999997,0.0030792061707940587,0.0030792061707940587
281.423,0.00021607500222390553,0.00021607500222390553
281.424,0.002672501975761727,-0.002672501975761727
281.42499999999995,0.004891099263158717,-0.004891099263158717
281.426,0.0059454039440393226,-0.0059454039440393226
281.42699999999996,0.0056706609648925575,-0.0056706609648925575
281.428,0.004262554183082188,-0.004262554183082188
281.429,0.00220234317896364,-0.00220234317896364
281.43,0.00010123796807798749,-0.00010123796807798749
281.431,0.0014858478359834036,0.0014858478359834036
281.43199999999996,0.002218249162422854,0.002218249162422854
281.433,0.002050839620279422,0.002050839620279422
281.43399999999997,0.0012165949137755317,0.0012165949137755317
281.435,0.0001214981855736002,0.0001214981855736002
281.436,0.0008084274519557475,-0.0008084274519557475
281.43699999999995,0.001273584645242817,-0.001273584645242817
281.438,0.0011907459127701197,-0.0011907459127701197
281.43899999999996,0.0006980034153258899,-0.0006980034153258899
281.44,7.727922546401819e-05,-7.727922546401819e-05
281.441,0.000373521740545384,0.000373521740545384
281.442,0.0004690121152719999,0.0004690121152719999
281.443,0.0002162329812006984,0.0002162329812006984
281.44399999999996,0.0001849492216703087,-0.0001849492216703087
281.445,0.0004222667364583972,-0.0004222667364583972
281.44599999999997,0.00020327387067430063,-0.00020327387067430063
281.447,0.0006098013673913598,0.0006098013673913598
281.448,0.0019143736038960372,0.0019143736038960372
281.44899999999996,0.003366692402561887,0.003366692402561887
281.45,0.0044722387333357835,0.0044722387333357835
281.45099999999996,0.004741149086769289,0.004741149086769289
281.452,0.003858237556757008,0.003858237556757008
281.453,0.001809804044280693,0.001809804044280693
281.454,0.0010782440593810369,-0.0010782440593810369
281.455,0.004208295560997997,-0.004208295560997997
281.45599999999996,0.006867738524348402,-0.006867738524348402
281.457,0.008427828151223612,-0.008427828151223612
281.45799999999997,0.008523682970147023,-0.008523682970147023
281.459,0.0071597555782023075,-0.0071597555782023075
281.46,0.004708429833441186,-0.004708429833441186
281.46099999999996,0.0018028364696185452,-0.0018028364696185452
281.462,0.000842449754385139,0.000842449754385139
281.46299999999997,0.0026279413711064207,0.0026279413711064207
281.464,0.0032247004343965912,0.0032247004343965912
281.465,0.0026452959434662303,0.0026452959434662303
281.466,0.0012144454816543507,0.0012144454816543507
281.467,0.0005454781588411213,-0.0005454781588411213
281.46799999999996,0.0020745350875850956,-0.0020745350875850956
281.469,0.0029309018197918174,-0.0029309018197918174
281.46999999999997,0.002897886050725585,-0.002897886050725585
281.471,0.0020168171216962535,-0.0020168171216962535
281.472,0.0005451180814922687,-0.0005451180814922687
281.47299999999996,0.0011388640162879864,0.0011388640162879864
281.474,0.0026497457671746626,0.0026497457671746626
281.47499999999997,0.0036926306897444344,0.0036926306897444344
281.476,0.004119631996280122,0.004119631996280122
281.477,0.003937301077802433,0.003937301077802433
281.478,0.0032731504456883684,0.0032731504456883684
281.479,0.0023200721613088346,0.0023200721613088346
281.47999999999996,0.0012797450617085737,0.0012797450617085737
281.481,0.00032082768264440344,0.00032082768264440344
281.48199999999997,0.00044174090437746943,-0.00044174090437746943
281.483,0.0009492185070689549,-0.0009492185070689549
281.484,0.0011915399188444878,-0.0011915399188444878
281.48499999999996,0.001198081117378275,-0.001198081117378275
281.486,0.0010308759909211111,-0.0010308759909211111
281.48699999999997,0.000779052016399797,-0.000779052016399797
281.488,0.0005497548362929164,-0.0005497548362929164
281.489,0.00045124174708155066,-0.00045124174708155066
281.49,0.0005680377124378632,-0.0005680377124378632
281.491,0.0009339237239122331,-0.0009339237239122331
281.49199999999996,0.0015128891689928734,-0.0015128891689928734
281.493,0.002198311991490958,-0.002198311991490958
281.49399999999997,0.002835618230636373,-0.002835618230636373
281.495,0.0032649864703735757,-0.0032649864703735757
281.496,0.0033717009998141395,-0.0033717009998141395
281.49699999999996,0.0031264959005845366,-0.0031264959005845366
281.498,0.0025995163341561447,-0.0025995163341561447
281.49899999999997,0.0019397129933961036,-0.0019397129933961036
281.5,0.0013240514908634095,-0.0013240514908634095
281.501,0.000893222857909471,-0.000893222857909471
281.502,0.0006975631645983832,-0.0006975631645983832
281.503,0.0006752482695344226,-0.0006752482695344226
281.50399999999996,0.0006743010612655044,-0.0006743010612655044
281.505,0.0005138335995341431,-0.0005138335995341431
281.506,6.405366328596313e-05,-6.405366328596313e-05
281.507,0.0006848748574379674,0.0006848748574379674
281.508,0.0015937675198458858,0.0015937675198458858
281.50899999999996,0.002401377764941858,0.002401377764941858
281.51,0.0028038083556027682,0.0028038083556027682
281.51099999999997,0.0025625315634927853,0.0025625315634927853
281.512,0.0016040221101734028,0.0016040221101734028
281.513,7.345752342080884e-05,7.345752342080884e-05
281.514,0.001681843342566456,-0.001681843342566456
281.515,0.0032004498256342955,-0.0032004498256342955
281.51599999999996,0.004042242952233994,-0.004042242952233994
281.517,0.003928726500229918,-0.003928726500229918
281.518,0.002841161199115088,-0.002841161199115088
281.519,0.0010411594250513074,-0.0010411594250513074
281.52,0.0009969998120460107,0.0009969998120460107
281.52099999999996,0.0027236384149396174,0.0027236384149396174
281.522,0.003677724108706249,0.003677724108706249
281.52299999999997,0.003624725704098155,0.003624725704098155
281.524,0.0026230509137063294,0.0026230509137063294
281.525,0.0009972215621868075,0.0009972215621868075
281.526,0.0007728620369473724,-0.0007728620369473724
281.527,0.0022089463171420486,-0.0022089463171420486
281.52799999999996,0.0029846655649503227,-0.0029846655649503227
281.529,0.00301879069854155,-0.00301879069854155
281.53,0.0024815478917693473,-0.0024815478917693473
281.531,0.001714659636392733,-0.001714659636392733
281.532,0.0010958772054370117,-0.0010958772054370117
281.53299999999996,0.0008977390974692836,-0.0008977390974692836
281.534,0.0011913737256461774,-0.0011913737256461774
281.53499999999997,0.0018290266809771292,-0.0018290266809771292
281.536,0.0025098478128422696,-0.0025098478128422696
281.537,0.002902885037743972,-0.002902885037743972
281.53799999999995,0.0027803159758464585,-0.0027803159758464585
281.539,0.0021103444578838004,-0.0021103444578838004
281.53999999999996,0.001074260978281357,-0.001074260978281357
281.541,4.642023462627479e-07,-4.642023462627479e-07
281.542,0.00076056328284919,0.00076056328284919
281.543,0.0009737128972552711,0.0009737128972552711
281.544,0.0006169281069525235,0.0006169281069525235
281.54499999999996,9.940429636423172e-05,-9.940429636423172e-05
281.546,0.0008016015387735322,-0.0008016015387735322
281.54699999999997,0.0010879687057860534,-0.0010879687057860534
281.548,0.0006826599686032416,-0.0006826599686032416
281.549,0.0004477755066945729,0.0004477755066945729
281.54999999999995,0.002059233702768758,0.002059233702768758
281.551,0.003692316354394881,0.003692316354394881
281.55199999999996,0.004813659938022236,0.004813659938022236
281.553,0.004989520320926388,0.004989520320926388
281.554,0.004032538514290763,0.004032538514290763
281.555,0.002071096259835119,0.002071096259835119
281.556,0.0004829604649656763,-0.0004829604649656763
281.55699999999996,0.00305747442349515,-0.00305747442349515
281.558,0.005092053917900976,-0.005092053917900976
281.55899999999997,0.006200760468035019,-0.006200760468035019
281.56,0.00627132024860114,-0.00627132024860114
281.561,0.005469958745093382,-0.005469958745093382
281.56199999999995,0.004154696558056739,-0.004154696558056739
281.563,0.0027320816667217875,-0.0027320816667217875
281.56399999999996,0.0015113622760901107,-0.0015113622760901107
281.565,0.0006093134048115605,-0.0006093134048115605
281.566,6.118662212362175e-05,6.118662212362175e-05
281.567,0.0007176828240504885,0.0007176828240504885
281.568,0.001580655313427495,0.001580655313427495
281.56899999999996,0.0027432752752914237,0.0027432752752914237
281.57,0.004090941965765036,0.004090941965765036
281.57099999999997,0.0053048490936252616,0.0053048490936252616
281.572,0.005952645107474296,0.005952645107474296
281.573,0.005636543721173229,0.005636543721173229
281.57399999999996,0.004146941813657879,0.004146941813657879
281.575,0.0015658757137237943,0.0015658757137237943
281.57599999999996,0.0017190622845084376,-0.0017190622845084376
281.577,0.005099197335849071,-0.005099197335849071
281.578,0.007902607416385517,-0.007902607416385517
281.579,0.009575103701540048,-0.009575103701540048
281.58,0.009826484284169868,-0.009826484284169868
281.58099999999996,0.008696563959691199,-0.008696563959691199
281.582,0.006523203743470097,-0.006523203743470097
281.58299999999997,0.003827554868856501,-0.003827554868856501
281.584,0.0011582435243688396,-0.0011582435243688396
281.585,0.0010528881678152904,0.0010528881678152904
281.58599999999996,0.0025788696155883426,0.0025788696155883426
281.587,0.0034081148431612147,0.0034081148431612147
281.58799999999997,0.003685262155754314,0.003685262155754314
281.589,0.0036145599385368253,0.0036145599385368253
281.59,0.003368484045645814,0.003368484045645814
281.591,0.003037512043723557,0.003037512043723557
281.592,0.0026362995876050813,0.0026362995876050813
281.59299999999996,0.0021555429702604916,0.0021555429702604916
281.594,0.0016281741767409583,0.0016281741767409583
281.59499999999997,0.0011716779933687116,0.0011716779933687116
281.596,0.0009782487873969837,0.0009782487873969837
281.597,0.0012475284184996793,0.0012475284184996793
281.59799999999996,0.0020837226384474465,0.0020837226384474465
281.599,0.0033989524917916584,0.0033989524917916584
281.59999999999997,0.0048690081018374,0.0048690081018374
281.601,0.005973245717736744,0.005973245717736744
281.602,0.006121374008643835,0.006121374008643835
281.603,0.004836369496656306,0.004836369496656306
281.604,0.00193715911815693,0.00193715911815693
281.60499999999996,0.0023427538299098122,-0.0023427538299098122
281.606,0.007349703395401858,-0.007349703395401858
281.60699999999997,0.01213286713190017,-0.01213286713190017
281.608,0.015669980587140416,-0.015669980587140416
281.609,0.01713436654948212,-0.01713436654948212
281.60999999999996,0.01612476656275981,-0.01612476656275981
281.611,0.012787299435998677,-0.012787299435998677
281.61199999999997,0.007789887527700427,-0.007789887527700427
281.613,0.0021540000113328657,-0.0021540000113328657
281.614,0.003007834815928231,0.003007834815928231
281.615,0.006771841969899932,0.006771841969899932
281.616,0.008619169574922826,0.008619169574922826
281.61699999999996,0.008528892402230684,0.008528892402230684
281.618,0.0069279195282479595,0.0069279195282479595
281.61899999999997,0.004522368798295872,0.004522368798295872
281.62,0.002069773915034844,0.002069773915034844
281.621,0.00016563356336909702,0.00016563356336909702
281.62199999999996,0.0008924340223725383,-0.0008924340223725383
281.623,0.001129732609909113,-0.001129732609909113
281.62399999999997,0.0008143600870481524,-0.0008143600870481524
281.625,0.00031161972493749666,-0.00031161972493749666
281.626,6.926677628643085e-05,6.926677628643085e-05
281.627,0.00018154213419682553,0.00018154213419682553
281.628,6.773569655477762e-05,6.773569655477762e-05
281.62899999999996,9.38810878261927e-05,-9.38810878261927e-05
281.63,9.418667933492093e-05,-9.418667933492093e-05
281.631,0.00019675302542302654,0.00019675302542302654
281.632,0.0007596758168399117,0.0007596758168399117
281.633,0.0014233599401110141,0.0014233599401110141
281.63399999999996,0.0019288422826160088,0.0019288422826160088
281.635,0.0020339661058185873,0.0020339661058185873
281.63599999999997,0.0016161585143218376,0.0016161585143218376
281.637,0.0007323215527337663,0.0007323215527337663
281.638,0.0003886182925596308,-0.0003886182925596308
281.639,0.001419177570200213,-0.001419177570200213
281.64,0.002046381788329713,-0.002046381788329713
281.64099999999996,0.0020829675949495165,-0.0020829675949495165
281.642,0.0015357460286201943,-0.0015357460286201943
281.643,0.000605820718140979,-0.000605820718140979
281.644,0.0003797381276428048,0.0003797381276428048
281.645,0.0010802758581370496,0.0010802758581370496
281.64599999999996,0.0012577526261424118,0.0012577526261424118
281.647,0.0008555421255330884,0.0008555421255330884
281.64799999999997,1.2557084624932176e-05,1.2557084624932176e-05
281.649,0.0009909977843797185,-0.0009909977843797185
281.65,0.0018354541822020731,-0.0018354541822020731
281.651,0.002273778955672708,-0.002273778955672708
281.652,0.002213903329321687,-0.002213903329321687
281.65299999999996,0.0017429963761191262,-0.0017429963761191262
281.654,0.0010870462689299117,-0.0010870462689299117
281.655,0.0005225758745367284,-0.0005225758745367284
281.656,0.0002740368057079576,-0.0002740368057079576
281.657,0.0004344959396278088,-0.0004344959396278088
281.65799999999996,0.0009375006081398194,-0.0009375006081398194
281.659,0.0015883990854195118,-0.0015883990854195118
281.65999999999997,0.0021413372597702276,-0.0021413372597702276
281.661,0.002391803962834974,-0.002391803962834974
281.662,0.0022498224521174605,-0.0022498224521174605
281.66299999999995,0.001767159554733567,-0.001767159554733567
281.664,0.0011098834451343472,-0.0011098834451343472
281.66499999999996,0.0004883803653805153,-0.0004883803653805153
281.666,7.276851467437356e-05,-7.276851467437356e-05
281.667,7.327492209784672e-05,7.327492209784672e-05
281.668,1.465732211863681e-05,1.465732211863681e-05
281.669,8.566403142177672e-05,-8.566403142177672e-05
281.66999999999996,3.8409054991468645e-05,-3.8409054991468645e-05
281.671,0.00028640506765203864,0.00028640506765203864
281.67199999999997,0.0008929272997606864,0.0008929272997606864
281.673,0.0016384912318178194,0.0016384912318178194
281.674,0.0022683866623906283,0.0022683866623906283
281.67499999999995,0.0024964661124565984,0.0024964661124565984
281.676,0.002104949463819,0.002104949463819
281.67699999999996,0.0010293969174165524,0.0010293969174165524
281.678,0.0006007243008821844,-0.0006007243008821844
281.679,0.0024808524276390873,-0.0024808524276390873
281.68,0.004204959698394166,-0.004204959698394166
281.681,0.005371742094522543,-0.005371742094522543
281.68199999999996,0.005691180810918837,-0.005691180810918837
281.683,0.00506012256680515,-0.00506012256680515
281.68399999999997,0.0035863307809051994,-0.0035863307809051994
281.685,0.0015570886504618637,-0.0015570886504618637
281.686,0.0006349625819301022,0.0006349625819301022
281.68699999999995,0.0025849026426279964,0.0025849026426279964
281.688,0.003961070257826793,0.003961070257826793
281.68899999999996,0.004562454681692259,0.004562454681692259
281.69,0.0043386658182375986,0.0043386658182375986
281.691,0.0033754728092930245,0.0033754728092930245
281.692,0.0018577988911853787,0.0018577988911853787
281.693,2.5091365886419382e-05,2.5091365886419382e-05
281.69399999999996,0.0018688071096339435,-0.0018688071096339435
281.695,0.0035854917187165872,-0.0035854917187165872
281.69599999999997,0.004922242944934199,-0.004922242944934199
281.697,0.005727123810145691,-0.005727123810145691
281.698,0.005912995134232947,-0.005912995134232947
281.69899999999996,0.005470830018045723,-0.005470830018045723
281.7,0.004478094868776181,-0.004478094868776181
281.70099999999996,0.003095273866066,-0.003095273866066
281.702,0.0015448067034048892,-0.0015448067034048892
281.703,7.1901071305556e-05,-7.1901071305556e-05
281.704,0.0011060058832437975,0.0011060058832437975
281.705,0.0018480653834643864,0.0018480653834643864
281.70599999999996,0.0021218310076110266,0.0021218310076110266
281.707,0.0020062958221529602,0.0020062958221529602
281.70799999999997,0.0016629742695288528,0.0016629742695288528
281.709,0.0012826923719462212,0.0012826923719462212
281.71,0.0010247988108207597,0.0010247988108207597
281.71099999999996,0.000969081593920225,0.000969081593920225
281.712,0.0010969588037296023,0.0010969588037296023
281.71299999999997,0.0013084252809020423,0.0013084252809020423
281.714,0.0014682466611892723,0.0014682466611892723
281.715,0.0014638112004878398,0.0014638112004878398
281.716,0.0012522361830295103,0.0012522361830295103
281.717,0.0008779567105082971,0.0008779567105082971
281.71799999999996,0.0004531264299458202,0.0004531264299458202
281.719,0.00010780693717933444,0.00010780693717933444
281.71999999999997,7.04096347147462e-05,-7.04096347147462e-05
281.721,8.209470965761502e-05,-8.209470965761502e-05
281.722,2.5858041970997453e-05,-2.5858041970997453e-05
281.72299999999996,6.416895755345432e-05,-6.416895755345432e-05
281.724,0.0003541953901340164,-0.0003541953901340164
281.72499999999997,0.0009680597147732707,-0.0009680597147732707
281.726,0.0018341709598559386,-0.0018341709598559386
281.727,0.00272700103697771,-0.00272700103697771
281.728,0.003317420430847031,-0.003317420430847031
281.729,0.0032742155997847375,-0.0032742155997847375
281.72999999999996,0.002387058387057766,-0.002387058387057766
281.731,0.0006695153585719187,-0.0006695153585719187
281.73199999999997,0.0015973614077302912,0.0015973614077302912
281.733,0.003904260427932076,0.003904260427932076
281.734,0.005633346312806108,0.005633346312806108
281.73499999999996,0.0062289569948472505,0.0062289569948472505
281.736,0.005370087441124341,0.005370087441124341
281.73699999999997,0.003090565101271297,0.003090565101271297
281.738,0.0001948515422286691,-0.0001948515422286691
281.739,0.0037737152961555102,-0.0037737152961555102
281.74,0.006810915460017857,-0.006810915460017857
281.741,0.008569005596949576,-0.008569005596949576
281.74199999999996,0.008611623501468782,-0.008611623501468782
281.743,0.006930582951201728,-0.006930582951201728
281.74399999999997,0.003958100098922057,-0.003958100098922057
281.745,0.0004584745234269201,-0.0004584745234269201
281.746,0.0026715355986952453,0.0026715355986952453
281.74699999999996,0.004638006860755105,0.004638006860755105
281.748,0.004955231844713755,0.004955231844713755
281.74899999999997,0.003564947285275476,0.003564947285275476
281.75,0.0008387067440938162,0.0008387067440938162
281.751,0.0025335002590191826,-0.0025335002590191826
281.752,0.005733433978799209,-0.005733433978799209
281.753,0.008028071271169472,-0.008028071271169472
281.75399999999996,0.008947117281720776,-0.008947117281720776
281.755,0.008378787930523917,-0.008378787930523917
281.756,0.006563897369931902,-0.006563897369931902
281.757,0.003998183992965089,-0.003998183992965089
281.758,0.0012777970851921435,-0.0012777970851921435
281.75899999999996,0.001064044258276573,0.001064044258276573
281.76,0.002683009016813254,0.002683009016813254
281.76099999999997,0.0034810638168883976,0.0034810638168883976
281.762,0.0035869929785612015,0.0035869929785612015
281.763,0.003274919501757772,0.003274919501757772
281.764,0.002852439488604235,0.002852439488604235
281.765,0.0025557713290263557,0.0025557713290263557
281.76599999999996,0.002483376196354831,0.002483376196354831
281.767,0.0025845994918242896,0.0025845994918242896
281.768,0.0027012393483352407,0.0027012393483352407
281.769,0.002643490167563061,0.002643490167563061
281.77,0.0022722383305130746,0.0022722383305130746
281.77099999999996,0.0015595534175015552,0.0015595534175015552
281.772,0.0006078192470833556,0.0006078192470833556
281.77299999999997,0.0003778672504354828,-0.0003778672504354828
281.774,0.0011542307441083487,-0.0011542307441083487
281.775,0.0015199384800779895,-0.0015199384800779895
281.776,0.001385329873019802,-0.001385329873019802
281.777,0.0008091886171047764,-0.0008091886171047764
281.77799999999996,9.805384758759025e-06,9.805384758759025e-06
281.779,0.000785472536468697,0.000785472536468697
281.78,0.0012255556681874148,0.0012255556681874148
281.781,0.0011183734931465685,0.0011183734931465685
281.782,0.0003989242876768375,0.0003989242876768375
281.78299999999996,0.0008257345851648424,-0.0008257345851648424
281.784,0.00230035660930943,-0.00230035660930943
281.78499999999997,0.00368875677786395,-0.00368875677786395
281.786,0.004665587330508213,-0.004665587330508213
281.787,0.005006061241682718,-0.005006061241682718
281.78799999999995,0.004647042956978639,-0.004647042956978639
281.789,0.0037009196985310104,-0.0037009196985310104
281.78999999999996,0.002417569067543726,-0.002417569067543726
281.791,0.0011055782963464524,-0.0011055782963464524
281.792,3.686891687778094e-05,-3.686891687778094e-05
281.793,0.0006351467113332135,0.0006351467113332135
281.794,0.0009170623163942565,0.0009170623163942565
281.79499999999996,0.0009618964998079506,0.0009618964998079506
281.796,0.001003223431249205,0.001003223431249205
281.79699999999997,0.001257455188110804,0.001257455188110804
281.798,0.0018267541744443122,0.0018267541744443122
281.799,0.002637135609796858,0.002637135609796858
281.79999999999995,0.0034370172072324453,0.0034370172072324453
281.801,0.003862979377428398,0.003862979377428398
281.80199999999996,0.0035572008065313286,0.0035572008065313286
281.803,0.002301994111926466,0.002301994111926466
281.804,0.00012763137604615001,0.00012763137604615001
281.805,0.0026459458406970617,-0.0026459458406970617
281.806,0.005455238756912294,-0.005455238756912294
281.80699999999996,0.0076225604928542665,-0.0076225604928542665
281.808,0.008537107836141113,-0.008537107836141113
281.80899999999997,0.007837111079494533,-0.007837111079494533
281.81,0.005537930775694126,-0.005537930775694126
281.811,0.002063399148025816,-0.002063399148025816
281.81199999999995,0.0018358464162913078,0.0018358464162913078
281.813,0.0052603572764418965,0.0052603572764418965
281.81399999999996,0.007390051907348583,0.007390051907348583
281.815,0.00769972253130558,0.00769972253130558
281.816,0.00610065604710518,0.00610065604710518
281.817,0.0029671756177550176,0.0029671756177550176
281.818,0.000960415169837037,-0.000960415169837037
281.81899999999996,0.004769449539336259,-0.004769449539336259
281.82,0.0076104022066629225,-0.0076104022066629225
281.82099999999997,0.008908287239263442,-0.008908287239263442
281.822,0.008492284611351807,-0.008492284611351807
281.823,0.006611119438786886,-0.006611119438786886
281.82399999999996,0.0038357705150136034,-0.0038357705150136034
281.825,0.0008834016381784009,-0.0008834016381784009
281.82599999999996,0.0015827992304451263,0.0015827992304451263
281.827,0.0031197974977624178,0.0031197974977624178
281.828,0.0035930332001556787,0.0035930332001556787
281.829,0.0031694444928425385,0.0031694444928425385
281.83,0.002227438666664272,0.002227438666664272
281.83099999999996,0.001219487015130166,0.001219487015130166
281.832,0.0005332831742168599,0.0005332831742168599
281.83299999999997,0.0003923284016843756,0.0003923284016843756
281.834,0.0008194116065281145,0.0008194116065281145
281.835,0.0016636165480074163,0.0016636165480074163
281.83599999999996,0.002671364797223694,0.002671364797223694
281.837,0.003571118725926997,0.003571118725926997
281.83799999999997,0.004142455435162978,0.004142455435162978
281.839,0.004251504545905654,0.004251504545905654
281.84,0.0038508844813211177,0.0038508844813211177
281.841,0.002956574484818263,0.002956574484818263
281.842,0.0016211580204136048,0.0016211580204136048
281.84299999999996,7.96409222872327e-05,-7.96409222872327e-05
281.844,0.0020404738586489654,-0.0020404738586489654
281.84499999999997,0.004106407652406164,-0.004106407652406164
281.846,0.006055951673795466,-0.006055951673795466
281.847,0.007605735005210707,-0.007605735005210707
281.84799999999996,0.008448477747622191,-0.008448477747622191
281.849,0.008322101672636226,-0.008322101672636226
281.84999999999997,0.007092659435570364,-0.007092659435570364
281.851,0.004823540447658916,-0.004823540447658916
281.852,0.001802867051675302,-0.001802867051675302
281.853,0.0014886584268966015,0.0014886584268966015
281.854,0.004468899566530534,0.004468899566530534
281.85499999999996,0.006583794269037691,0.006583794269037691
281.856,0.007439953573952908,0.007439953573952908
281.85699999999997,0.006901471264275715,0.006901471264275715
281.858,0.005121350807286862,0.005121350807286862
281.859,0.0024974433552211405,0.0024974433552211405
281.85999999999996,0.0004339226515883892,-0.0004339226515883892
281.861,0.0031342454017819978,-0.0031342454017819978
281.86199999999997,0.005188190119353607,-0.005188190119353607
281.863,0.006382115210188903,-0.006382115210188903
281.864,0.00671669404510037,-0.00671669404510037
281.865,0.0063570540536393395,-0.0063570540536393395
281.866,0.005544176606287146,-0.005544176606287146
281.86699999999996,0.004502369514776257,-0.004502369514776257
281.868,0.003375795297455368,-0.003375795297455368
281.86899999999997,0.002213387815887525,-0.002213387815887525
281.87,0.001001386751100258,-0.001001386751100258
281.871,0.00027617145464906614,0.00027617145464906614
281.87199999999996,0.0015792286118130028,0.0015792286118130028
281.873,0.002784272497642383,0.002784272497642383
281.87399999999997,0.0037030013771597375,0.0037030013771597375
281.875,0.004142766050984212,0.004142766050984212
281.876,0.003986066664927691,0.003986066664927691
281.877,0.00325646180460207,0.00325646180460207
281.878,0.0021409683792988593,0.0021409683792988593
281.87899999999996,0.0009538168619938916,0.0009538168619938916
281.88,4.808715169039552e-05,4.808715169039552e-05
281.881,0.00029767750039592255,-0.00029767750039592255
281.882,2.0876682062491303e-05,2.0876682062491303e-05
281.883,0.0008847223510136842,0.0008847223510136842
281.88399999999996,0.0019738697657057623,0.0019738697657057623
281.885,0.002858532610543548,0.002858532610543548
281.88599999999997,0.0031320851920169455,0.0031320851920169455
281.887,0.0025433066943014136,0.0025433066943014136
281.888,0.0010841764095394738,0.0010841764095394738
281.889,0.0009966488408231571,-0.0009966488408231571
281.89,0.0032601542562521544,-0.0032601542562521544
281.89099999999996,0.005202025987867251,-0.005202025987867251
281.892,0.006395934493739051,-0.006395934493739051
281.893,0.006608943801161213,-0.006608943801161213
281.894,0.005853162565227131,-0.005853162565227131
281.895,0.004360111666544054,-0.004360111666544054
281.89599999999996,0.002490844557053046,-0.002490844557053046
281.897,0.000616223013751948,-0.000616223013751948
281.89799999999997,0.0009895688402841699,0.0009895688402841699
281.899,0.0022060979297327914,0.0022060979297327914
281.9,0.003057946130667685,0.003057946130667685
281.901,0.0036490638502397954,0.0036490638502397954
281.902,0.004070610667293161,0.004070610667293161
281.90299999999996,0.004322475402926682,0.004322475402926682
281.904,0.004283137403598664,0.004283137403598664
281.905,0.003743662543602927,0.003743662543602927
281.906,0.0024963184254095123,0.0024963184254095123
281.907,0.0004458679063789632,0.0004458679063789632
281.90799999999996,0.002299560390492088,-0.002299560390492088
281.909,0.005396629628925301,-0.005396629628925301
281.90999999999997,0.008313652372732792,-0.008313652372732792
281.911,0.010448893768695709,-0.010448893768695709
281.912,0.011287548021936227,-0.011287548021936227
281.91299999999995,0.01054953675964255,-0.01054953675964255
281.914,0.008281089148025611,-0.008281089148025611
281.91499999999996,0.0048597026162022425,-0.0048597026162022425
281.916,0.0009089934269352449,-0.0009089934269352449
281.917,0.0028519595673253606,0.0028519595673253606
281.918,0.005780321182931727,0.005780321182931727
281.919,0.00745266475312828,0.00745266475312828
281.91999999999996,0.007740915484286332,0.007740915484286332
281.921,0.006805167811145152,0.006805167811145152
281.92199999999997,0.005014010797302003,0.005014010797302003
281.923,0.002824214875674256,0.002824214875674256
281.924,0.0006606843651696314,0.0006606843651696314
281.92499999999995,0.0011678169416240673,-0.0011678169416240673
281.926,0.0024985806999412393,-0.0024985806999412393
281.92699999999996,0.0032934929480188902,-0.0032934929480188902
281.928,0.0035872226867764297,-0.0035872226867764297
281.929,0.0034341664310211626,-0.0034341664310211626
281.93,0.002879002129334755,-0.002879002129334755
281.931,0.001961559730775154,-0.001961559730775154
281.93199999999996,0.0007488634776960746,-0.0007488634776960746
281.933,0.0006268811140652304,0.0006268811140652304
281.93399999999997,0.0019500409014251423,0.0019500409014251423
281.935,0.002941603908012588,0.002941603908012588
281.936,0.0033200503328430606,0.0033200503328430606
281.93699999999995,0.002886982109395115,0.002886982109395115
281.938,0.001607846121522658,0.001607846121522658
281.93899999999996,0.00034467119640321396,-0.00034467119640321396
281.94,0.0026070725535309066,-0.0026070725535309066
281.941,0.0047041864958103675,-0.0047041864958103675
281.942,0.0061714628362535134,-0.0061714628362535134
281.943,0.006683868549088635,-0.006683868549088635
281.94399999999996,0.006149834218641642,-0.006149834218641642
281.945,0.004738157092596677,-0.004738157092596677
281.94599999999997,0.0028269125091300936,-0.0028269125091300936
281.947,0.0008891745819568806,-0.0008891745819568806
281.948,0.0006482525696488203,0.0006482525696488203
281.94899999999996,0.0015274655180500868,0.0015274655180500868
281.95,0.0017239030911447527,0.0017239030911447527
281.95099999999996,0.0014327226456353236,0.0014327226456353236
281.952,0.0009837721677267161,0.0009837721677267161
281.953,0.0007159947928927432,0.0007159947928927432
281.954,0.0008554635249743437,0.0008554635249743437
281.955,0.0014391216425284038,0.0014391216425284038
281.95599999999996,0.0023094924826057702,0.0023094924826057702
281.957,0.0031801152561542387,0.0031801152561542387
281.95799999999997,0.0037463343996180535,0.0037463343996180535
281.959,0.003800242981578222,0.003800242981578222
281.96,0.0033076495232588644,0.0033076495232588644
281.96099999999996,0.002419168609149105,0.002419168609149105
281.962,0.0014117731011646663,0.0014117731011646663
281.96299999999997,0.0005826552672418082,0.0005826552672418082
281.964,0.00013483666926419273,0.00013483666926419273
281.965,9.728618459773211e-05,9.728618459773211e-05
281.966,0.0003101049334916368,0.0003101049334916368
281.967,0.0004819290320151966,0.0004819290320151966
281.96799999999996,0.00030042500966521123,0.00030042500966521123
281.969,0.00044299605464007927,-0.00044299605464007927
281.96999999999997,0.0017592338142942516,-0.0017592338142942516
281.971,0.0034334999134377803,-0.0034334999134377803
281.972,0.005076043354322342,-0.005076043354322342
281.97299999999996,0.00623717839902142,-0.00623717839902142
281.974,0.00654967223002483,-0.00654967223002483
281.97499999999997,0.00585154311651768,-0.00585154311651768
281.976,0.004248282619565548,-0.004248282619565548
281.977,0.002093344937459257,-0.002093344937459257
281.978,0.00010742899512401786,0.00010742899512401786
281.979,0.0018371558227033191,0.0018371558227033191
281.97999999999996,0.002710571966263326,0.002710571966263326
281.981,0.0025743992698026596,0.0025743992698026596
281.98199999999997,0.0015368918976093394,0.0015368918976093394
281.983,7.820103825076004e-05,-7.820103825076004e-05
281.984,0.0018339649454173644,-0.0018339649454173644
281.98499999999996,0.00330341914054982,-0.00330341914054982
281.986,0.004174518449223826,-0.004174518449223826
281.98699999999997,0.004308051879803115,-0.004308051879803115
281.988,0.0037381734717489346,-0.0037381734717489346
281.989,0.0026256788642505385,-0.0026256788642505385
281.99,0.0011887462364077192,-0.0011887462364077192
281.991,0.00036018271290011537,0.00036018271290011537
281.99199999999996,0.0018500431555838848,0.0018500431555838848
281.993,0.0031529416987237345,0.0031529416987237345
281.99399999999997,0.004161909893058523,0.004161909893058523
281.995,0.004765127246317828,0.004765127246317828
281.996,0.004838048412008555,0.004838048412008555
281.99699999999996,0.004265703047462434,0.004265703047462434
281.998,0.0029919873297352415,0.0029919873297352415
281.99899999999997,0.0010774800337223357,0.0010774800337223357
282.0,0.0012612244210887709,-0.0012612244210887709
282.001,0.0036553412660215575,-0.0036553412660215575
282.002,0.005642373316800675,-0.005642373316800675
282.003,0.0067710294908743755,-0.0067710294908743755
282.00399999999996,0.006725279419775426,-0.006725279419775426
282.005,0.0054291239332100675,-0.0054291239332100675
282.006,0.0030953491788801085,-0.0030953491788801085
282.007,0.00019640764651086977,-0.00019640764651086977
282.008,0.002640759937103196,0.002640759937103196
282.00899999999996,0.004789449977238479,0.004789449977238479
282.01,0.005783711580564635,0.005783711580564635
282.01099999999997,0.00543730323799598,0.00543730323799598
282.012,0.0038854732428813617,0.0038854732428813617
282.013,0.0015374501433229948,0.0015374501433229948
282.014,0.0010448331464042392,-0.0010448331464042392
282.015,0.0033036266859864196,-0.0033036266859864196
282.01599999999996,0.004829585946055607,-0.004829585946055607
282.017,0.005450718843023055,-0.005450718843023055
282.018,0.005242820029469986,-0.005242820029469986
282.019,0.004464525900384488,-0.004464525900384488
282.02,0.003444486291760079,-0.003444486291760079
282.02099999999996,0.0024623212750603334,-0.0024623212750603334
282.022,0.0016644701181663972,-0.0016644701181663972
282.02299999999997,0.0010413643735110783,-0.0010413643735110783
282.024,0.0004690639960403008,-0.0004690639960403008
282.025,0.00020502990224299114,0.00020502990224299114
282.026,0.0010682272440262657,0.0010682272440262657
282.027,0.0020782822566403477,0.0020782822566403477
282.02799999999996,0.0030549227236757515,0.0030549227236757515
282.029,0.0037320431737007456,0.0037320431737007456
282.03,0.003852468728426399,0.003852468728426399
282.031,0.0032707864891991837,0.0032707864891991837
282.032,0.0020257584633991414,0.0020257584633991414
282.03299999999996,0.00035370828332620483,0.00035370828332620483
282.034,0.0013654612002152759,-0.0013654612002152759
282.03499999999997,0.0027144321655526303,-0.0027144321655526303
282.036,0.003363075716835411,-0.003363075716835411
282.037,0.003170643590493306,-0.003170643590493306
282.03799999999995,0.0022314942357719606,-0.0022314942357719606
282.039,0.0008486511829770594,-0.0008486511829770594
282.03999999999996,0.0005569017549271521,0.0005569017549271521
282.041,0.0015724348704079078,0.0015724348704079078
282.042,0.0019153005571250039,0.0019153005571250039
282.043,0.0015125741346525225,0.0015125741346525225
282.044,0.0005150300481663572,0.0005150300481663572
282.04499999999996,0.0007565551456600884,-0.0007565551456600884
282.046,0.0019134712363697687,-0.0019134712363697687
282.04699999999997,0.0026160328841274513,-0.0026160328841274513
282.048,0.002669190620215999,-0.002669190620215999
282.049,0.0020695010086775527,-0.0020695010086775527
282.04999999999995,0.00099316994900519,-0.00099316994900519
282.051,0.00026615460097304303,0.00026615460097304303
282.05199999999996,0.0013866005806017392,0.0013866005806017392
282.053,0.002105304162155397,0.002105304162155397
282.054,0.002278786564849887,0.002278786564849887
282.055,0.0019032225435600433,0.0019032225435600433
282.056,0.0010956966908812812,0.0010956966908812812
282.05699999999996,4.937425705090624e-05,4.937425705090624e-05
282.058,0.0010189867526739548,-0.0010189867526739548
282.05899999999997,0.0019126841584713747,-0.0019126841584713747
282.06,0.0024809387924037136,-0.0024809387924037136
282.061,0.0026274380254454072,-0.0026274380254454072
282.06199999999995,0.0023091141631772444,-0.0023091141631772444
282.063,0.0015346929422803072,-0.0015346929422803072
282.06399999999996,0.00036897515774665017,-0.00036897515774665017
282.065,0.0010582470815153062,0.0010582470815153062
282.066,0.00254666911485579,0.00254666911485579
282.067,0.003834550123793597,0.003834550123793597
282.068,0.004630928032709065,0.004630928032709065
282.06899999999996,0.004671437905234765,0.004671437905234765
282.07,0.0037875759641643994,0.0037875759641643994
282.07099999999997,0.0019703505134828474,0.0019703505134828474
282.072,0.0005938984796750322,-0.0005938984796750322
282.073,0.003533007988832896,-0.003533007988832896
282.07399999999996,0.006349440041163524,-0.006349440041163524
282.075,0.00852173109393498,-0.00852173109393498
282.07599999999996,0.009622943430380821,-0.009622943430380821
282.077,0.009424552898845917,-0.009424552898845917
282.078,0.007956174369924879,-0.007956174369924879
282.079,0.005502925545151092,-0.005502925545151092
282.08,0.0025397376649131734,-0.0025397376649131734
282.08099999999996,0.00037994562504905133,0.00037994562504905133
282.082,0.0027506818069428854,0.0027506818069428854
282.08299999999997,0.004222707065301059,0.004222707065301059
282.084,0.00466344597416275,0.00466344597416275
282.085,0.004160234190063019,0.004160234190063019
282.08599999999996,0.002969392528549725,0.002969392528549725
282.087,0.001431786382419132,0.001431786382419132
282.08799999999997,0.00011742649080814178,-0.00011742649080814178
282.089,0.0014189785813009687,-0.0014189785813009687
282.09,0.0023236245415666854,-0.0023236245415666854
282.091,0.0027882205081431336,-0.0027882205081431336
282.092,0.0028446424315643564,-0.0028446424315643564
282.09299999999996,0.0025597984866481322,-0.0025597984866481322
282.094,0.002004663112854198,-0.002004663112854198
282.09499999999997,0.00124304585699578,-0.00124304585699578
282.096,0.00034004974314933133,-0.00034004974314933133
282.097,0.0006195995649690738,0.0006195995649690738
282.09799999999996,0.0015180044914609723,0.0015180044914609723
282.099,0.0022079869142575493,0.0022079869142575493
282.09999999999997,0.002539155047183791,0.002539155047183791
282.101,0.0024002982983361075,0.0024002982983361075
282.102,0.0017634097462062156,0.0017634097462062156
282.103,0.0007112951474708343,0.0007112951474708343
282.104,0.0005654091262600906,-0.0005654091262600906
282.10499999999996,0.0018060170536400284,-0.0018060170536400284
282.106,0.002744035550205407,-0.002744035550205407
282.10699999999997,0.0031790861198146207,-0.0031790861198146207
282.108,0.003033450567779967,-0.003033450567779967
282.109,0.0023740017918768906,-0.0023740017918768906
282.10999999999996,0.0013911632617277531,-0.0013911632617277531
282.111,0.00034082750762518823,-0.00034082750762518823
282.11199999999997,0.0005321674194864604,0.0005321674194864604
282.113,0.001063928526847475,0.001063928526847475
282.114,0.001211856330278782,0.001211856330278782
282.115,0.0010527417432301784,0.0010527417432301784
282.116,0.0007406346245921112,0.0007406346245921112
282.11699999999996,0.0004405933543179232,0.0004405933543179232
282.118,0.0002628441379351004,0.0002628441379351004
282.11899999999997,0.0002215734243608456,0.0002215734243608456
282.12,0.00023357059241734738,0.00023357059241734738
282.121,0.00015736270749206873,0.00015736270749206873
282.12199999999996,0.0001415059065804337,-0.0001415059065804337
282.123,0.000723435771073764,-0.000723435771073764
282.12399999999997,0.001531784141343993,-0.001531784141343993
282.125,0.0023918824020193554,-0.0023918824020193554
282.126,0.0030555020636277427,-0.0030555020636277427
282.127,0.0032780309881703914,-0.0032780309881703914
282.128,0.002903409117337998,-0.002903409117337998
282.12899999999996,0.0019279525238830397,-0.0019279525238830397
282.13,0.0005200680611451897,-0.0005200680611451897
282.131,0.0010133167315231348,0.0010133167315231348
282.132,0.0023055739779057082,0.0023055739779057082
282.133,0.003031532337671213,0.003031532337671213
282.13399999999996,0.0030004404911621067,0.0030004404911621067
282.135,0.0022123484948262744,0.0022123484948262744
282.13599999999997,0.0008606701299981888,0.0008606701299981888
282.137,0.0007198319005157635,-0.0007198319005157635
282.138,0.0021439300711139256,-0.0021439300711139256
282.139,0.003078720684059467,-0.003078720684059467
282.14,0.0033286640064750755,-0.0033286640064750755
282.14099999999996,0.0028796028686476527,-0.0028796028686476527
282.142,0.0018915395802570948,-0.0018915395802570948
282.143,0.0006453046886429334,-0.0006453046886429334
282.144,0.0005389247202240192,0.0005389247202240192
282.145,0.0013867155680960972,0.0013867155680960972
282.14599999999996,0.001734677133492748,0.001734677133492748
282.147,0.0015603904981096512,0.0015603904981096512
282.14799999999997,0.000972886213546047,0.000972886213546047
282.149,0.00017091238381144737,0.00017091238381144737
282.15,0.0006159591256406649,-0.0006159591256406649
282.151,0.0011859011195741425,-0.0011859011195741425
282.152,0.001408447925197598,-0.001408447925197598
282.15299999999996,0.0012449948887184672,-0.0012449948887184672
282.154,0.000745526201058774,-0.000745526201058774
282.155,2.704978140640708e-05,-2.704978140640708e-05
282.156,0.0007575543395518318,0.0007575543395518318
282.157,0.0014515201359017842,0.0014515201359017842
282.15799999999996,0.0019205792730814068,0.0019205792730814068
282.159,0.002070582138377193,0.002070582138377193
282.15999999999997,0.0018560945922803374,0.0018560945922803374
282.161,0.0012814367806118717,0.0012814367806118717
282.162,0.00039611125773137833,0.00039611125773137833
282.16299999999995,0.00071372577578058,-0.00071372577578058
282.164,0.0019365180861010435,-0.0019365180861010435
282.16499999999996,0.0031481680655320943,-0.0031481680655320943
282.166,0.004225157811244679,-0.004225157811244679
282.167,0.005056363474805164,-0.005056363474805164
282.168,0.005552187047996915,-0.005552187047996915
282.169,0.005650438458299154,-0.005650438458299154
282.16999999999996,0.005319597637378117,-0.005319597637378117
282.171,0.004561070379442664,-0.004561070379442664
282.17199999999997,0.0034121396565612474,-0.0034121396565612474
282.173,0.001950139895758365,-0.001950139895758365
282.174,0.00029620679565515854,-0.00029620679565515854
282.17499999999995,0.0013852963086977209,0.0013852963086977209
282.176,0.002896622549418364,0.002896622549418364
282.17699999999996,0.004029472497382314,0.004029472497382314
282.178,0.004600739928347881,0.004600739928347881
282.179,0.004495616241173637,0.004495616241173637
282.18,0.0037072151486211785,0.0037072151486211785
282.181,0.0023591365526763686,0.0023591365526763686
282.18199999999996,0.0006990526502289667,0.0006990526502289667
282.183,0.0009420228041781513,-0.0009420228041781513
282.18399999999997,0.0022199734682530076,-0.0022199734682530076
282.185,0.0028618186808889614,-0.0028618186808889614
282.186,0.0027410009903427717,-0.0027410009903427717
282.18699999999995,0.001919864147669146,-0.001919864147669146
282.188,0.000642492650051408,-0.000642492650051408
282.18899999999996,0.000725213961178893,0.000725213961178893
282.19,0.0017948297233947405,0.0017948297233947405
282.191,0.002266650511267121,0.002266650511267121
282.192,0.002019134475485768,0.002019134475485768
282.193,0.0011470360745399822,0.0011470360745399822
282.19399999999996,6.677607988770595e-05,-6.677607988770595e-05
282.195,0.0012401360510840603,-0.0012401360510840603
282.19599999999997,0.002014995874547467,-0.002014995874547467
282.197,0.002176362953178909,-0.002176362953178909
282.198,0.0017269577286682359,-0.0017269577286682359
282.19899999999996,0.0008904925033740206,-0.0008904925033740206
282.2,3.915081052335125e-05,-3.915081052335125e-05
282.20099999999996,0.0004336335287777042,0.0004336335287777042
282.202,0.00025421365934805536,0.00025421365934805536
282.203,0.0006242270059832744,-0.0006242270059832744
282.204,0.0019873968987503474,-0.0019873968987503474
282.205,0.003414373617261778,-0.003414373617261778
282.20599999999996,0.004407376983363107,-0.004407376983363107
282.207,0.0045569967638029165,-0.0045569967638029165
282.20799999999997,0.003688884361561276,-0.003688884361561276
282.209,0.0019414036790148302,-0.0019414036790148302
282.21,0.0002555318841179385,0.0002555318841179385
282.21099999999996,0.0022985295804597065,0.0022985295804597065
282.212,0.003591443020114922,0.003591443020114922
282.21299999999997,0.0037323858872128413,0.0037323858872128413
282.214,0.0026465769088342404,0.0026465769088342404
282.215,0.0006204313506193256,0.0006204313506193256
282.216,0.0017766185470291002,-0.0017766185470291002
282.217,0.0038598551160703132,-0.0038598551160703132
282.21799999999996,0.005034432573552701,-0.005034432573552701
282.219,0.004973185577435319,-0.004973185577435319
282.21999999999997,0.0037108632632339117,-0.0037108632632339117
282.221,0.00162565241959588,-0.00162565241959588
282.222,0.0006844625925688325,0.0006844625925688325
282.22299999999996,0.002588934292888331,0.002588934292888331
282.224,0.0036139644565662487,0.0036139644565662487
282.22499999999997,0.003573155964879179,0.003573155964879179
282.226,0.0025998533473703084,0.0025998533473703084
282.227,0.0010755516559367727,0.0010755516559367727
282.228,0.0005160639594934268,-0.0005160639594934268
282.229,0.0017556840068572064,-0.0017556840068572064
282.22999999999996,0.002416815396979854,-0.002416815396979854
282.231,0.0025131232614910596,-0.0025131232614910596
282.23199999999997,0.0022523722243123893,-0.0022523722243123893
282.233,0.001919188331505629,-0.001919188331505629
282.234,0.0017348163708466458,-0.0017348163708466458
282.23499999999996,0.0017500663727178763,-0.0017500663727178763
282.236,0.0018147758118952902,-0.0018147758118952902
282.23699999999997,0.0016379288634370754,-0.0016379288634370754
282.238,0.0009175977100810502,-0.0009175977100810502
282.239,0.0005081189688047479,0.0005081189688047479
282.24,0.002548521187010494,0.002548521187010494
282.241,0.004834186386190168,0.004834186386190168
282.24199999999996,0.006795756898416947,0.006795756898416947
282.243,0.007828261590764742,0.007828261590764742
282.24399999999997,0.007488977682031933,0.007488977682031933
282.245,0.005661362290232468,0.005661362290232468
282.246,0.0026254278451370208,0.0026254278451370208
282.24699999999996,0.0009958087227191004,-0.0009958087227191004
282.248,0.004403029123209721,-0.004403029123209721
282.24899999999997,0.006850634434072182,-0.006850634434072182
282.25,0.007866900505222896,-0.007866900505222896
282.251,0.007391973224230919,-0.007391973224230919
282.252,0.005786878406173194,-0.005786878406173194
282.253,0.0037086560860175185,-0.0037086560860175185
282.25399999999996,0.0018911978028582073,-0.0018911978028582073
282.255,0.0009033169367144497,-0.0009033169367144497
282.256,0.0009639922410578589,-0.0009639922410578589
282.257,0.0018764214863488096,-0.0018764214863488096
282.258,0.0031033586467611868,-0.0031033586467611868
282.25899999999996,0.003959157710169881,-0.003959157710169881
282.26,0.0038547528341580277,-0.0038547528341580277
282.26099999999997,0.0025136637700757993,-0.0025136637700757993
282.262,8.620078945697978e-05,-8.620078945697978e-05
282.263,0.0028775944368715904,0.0028775944368715904
282.264,0.00558917985674892,0.00558917985674892
282.265,0.007265554603406736,0.007265554603406736
282.26599999999996,0.007377434341024123,0.007377434341024123
282.267,0.00582146889289233,0.00582146889289233
282.268,0.0029611766122635053,0.0029611766122635053
282.269,0.0004761767828618082,-0.0004761767828618082
282.27,0.0036133493323539574,-0.0036133493323539574
282.27099999999996,0.005679470954559123,-0.005679470954559123
282.272,0.006228802149045881,-0.006228802149045881
282.27299999999997,0.005255622063002401,-0.005255622063002401
282.274,0.0031736242211703528,-0.0031736242211703528
282.275,0.0006717677588175314,-0.0006717677588175314
282.276,0.0015033903014419593,0.0015033903014419593
282.277,0.0027683600101754335,0.0027683600101754335
282.27799999999996,0.0028588001470803066,0.0028588001470803066
282.279,0.0018777367579652766,0.0018777367579652766
282.28,0.00022930912357648324,0.00022930912357648324
282.281,0.0015321287711298562,-0.0015321287711298562
282.282,0.0028833612685293304,-0.0028833612685293304
282.28299999999996,0.003484808523880494,-0.003484808523880494
282.284,0.0032593231445246676,-0.0032593231445246676
282.28499999999997,0.0023802862490720474,-0.0023802862490720474
282.286,0.0011829698295444087,-0.0011829698295444087
282.287,3.664426856275577e-05,-3.664426856275577e-05
282.28799999999995,0.0007762920283922905,0.0007762920283922905
282.289,0.0011354736891024384,0.0011354736891024384
282.28999999999996,0.001093213303578675,0.001093213303578675
282.291,0.0008259731293434941,0.0008259731293434941
282.292,0.0005515934736713944,0.0005515934736713944
282.293,0.0004457876222337918,0.0004457876222337918
282.294,0.0005870603820033586,0.0005870603820033586
282.29499999999996,0.000944866969149751,0.000944866969149751
282.296,0.0014078622123377084,0.0014078622123377084
282.29699999999997,0.0018346462922134335,0.0018346462922134335
282.298,0.002103669671903582,0.002103669671903582
282.299,0.002143271675674052,0.002143271675674052
282.29999999999995,0.0019344479832313244,0.0019344479832313244
282.301,0.0014923549622198806,0.0014923549622198806
282.30199999999996,0.0008418404528765725,0.0008418404528765725
282.303,3.5552431420367874e-06,3.5552431420367874e-06
282.304,0.0009998474599027627,-0.0009998474599027627
282.305,0.002119912741352213,-0.002119912741352213
282.306,0.003254830909733795,-0.003254830909733795
282.30699999999996,0.004237243104672066,-0.004237243104672066
282.308,0.00485270553337725,-0.00485270553337725
282.30899999999997,0.004892071161040139,-0.004892071161040139
282.31,0.00422530204936124,-0.00422530204936124
282.311,0.0028712963084089826,-0.0028712963084089826
282.31199999999995,0.0010341470771380455,-0.0010341470771380455
282.313,0.0009162597361730375,0.0009162597361730375
282.31399999999996,0.0025238193059627487,0.0025238193059627487
282.315,0.003368530939541399,0.003368530939541399
282.316,0.003195864633121028,0.003195864633121028
282.317,0.0020101675882356783,0.0020101675882356783
282.318,9.662084926300141e-05,9.662084926300141e-05
282.31899999999996,0.0020427942969823247,-0.0020427942969823247
282.32,0.00382589661266996,-0.00382589661266996
282.32099999999997,0.004760499888426726,-0.004760499888426726
282.322,0.004595282498576123,-0.004595282498576123
282.323,0.0034016729259626487,-0.0034016729259626487
282.32399999999996,0.001557401154653534,-0.001557401154653534
282.325,0.00036643220975424016,0.00036643220975424016
282.32599999999996,0.001781052583197724,0.001781052583197724
282.327,0.0022631005518884573,0.0022631005518884573
282.328,0.0016860164436923034,0.0016860164436923034
282.329,0.00025661343101605265,0.00025661343101605265
282.33,0.0015555179288140398,-0.0015555179288140398
282.33099999999996,0.0031727636882431273,-0.0031727636882431273
282.332,0.004097336817158244,-0.004097336817158244
282.33299999999997,0.004070052230245423,-0.004070052230245423
282.334,0.003147643645167531,-0.003147643645167531
282.335,0.0016737589392932157,-0.0016737589392932157
282.33599999999996,0.00015473727495969114,-0.00015473727495969114
282.337,0.0009165711628610703,0.0009165711628610703
282.33799999999997,0.0012283507748973189,0.0012283507748973189
282.339,0.0007515938780379152,0.0007515938780379152
282.34,0.00025798615078534144,-0.00025798615078534144
282.341,0.001357304633475277,-0.001357304633475277
282.342,0.0020775936148987855,-0.0020775936148987855
282.34299999999996,0.002093409687799218,-0.002093409687799218
282.344,0.0013397163129309077,-0.0013397163129309077
282.34499999999997,3.616833833759639e-05,-3.616833833759639e-05
282.346,0.001389727770161661,0.001389727770161661
282.347,0.002453536556046996,0.002453536556046996
282.34799999999996,0.002785986633043981,0.002785986633043981
282.349,0.0022659408018185665,0.0022659408018185665
282.34999999999997,0.0010675937214787473,0.0010675937214787473
282.351,0.00039488214341043955,-0.00039488214341043955
282.352,0.0016063689093831891,-0.0016063689093831891
282.353,0.002125636562259973,-0.002125636562259973
282.354,0.0017358167267435486,-0.0017358167267435486
282.35499999999996,0.0005189976209703425,-0.0005189976209703425
282.356,0.001170127693062375,0.001170127693062375
282.35699999999997,0.002821678575442349,0.002821678575442349
282.358,0.003937968105526508,0.003937968105526508
282.359,0.0041931024312429855,0.0041931024312429855
282.35999999999996,0.0035306593455179435,0.0035306593455179435
282.361,0.00216771010000898,0.00216771010000898
282.36199999999997,0.0005066119244697358,0.0005066119244697358
282.363,0.0010118289061932114,-0.0010118289061932114
282.364,0.0020603541611831032,-0.0020603541611831032
282.365,0.0025282644567412855,-0.0025282644567412855
282.366,0.0025398730504284325,-0.0025398730504284325
282.36699999999996,0.002383904723105041,-0.002383904723105041
282.368,0.0023817586895974203,-0.0023817586895974203
282.36899999999997,0.002744729693669301,-0.002744729693669301
282.37,0.0034743034910171815,-0.0034743034910171815
282.371,0.004344072704005382,-0.004344072704005382
282.37199999999996,0.004972194264420281,-0.004972194264420281
282.373,0.004960181065080175,-0.004960181065080175
282.37399999999997,0.004049016348933658,-0.004049016348933658
282.375,0.002236018948763992,-0.002236018948763992
282.376,0.00019158017332101236,0.00019158017332101236
282.377,0.0027220071292532798,0.0027220071292532798
282.378,0.004764542251366796,0.004764542251366796
282.37899999999996,0.005828279938447062,0.005828279938447062
282.38,0.005674632498093605,0.005674632498093605
282.381,0.004392217200789691,0.004392217200789691
282.382,0.0023685514515997233,0.0023685514515997233
282.383,0.00016764263644088967,0.00016764263644088967
282.38399999999996,0.0016458375753286528,-0.0016458375753286528
282.385,0.0026774228349662503,-0.0026774228349662503
282.38599999999997,0.0028126566865466643,-0.0028126566865466643
282.387,0.002231044191555655,-0.002231044191555655
282.388,0.001322288525684164,-0.001322288525684164
282.389,0.0005360815204264433,-0.0005360815204264433
282.39,0.00021868102071113677,-0.00021868102071113677
282.39099999999996,0.0004928929756084613,-0.0004928929756084613
282.392,0.0012219574759596292,-0.0012219574759596292
282.393,0.002068030442237999,-0.002068030442237999
282.394,0.002622924796555306,-0.002622924796555306
282.395,0.0025639719383565634,-0.0025639719383565634
282.39599999999996,0.0017797358752460473,-0.0017797358752460473
282.397,0.0004214281727339873,-0.0004214281727339873
282.39799999999997,0.0011378863350084134,0.0011378863350084134
282.399,0.0024221199805996825,0.0024221199805996825
282.4,0.0030080911997512356,0.0030080911997512356
282.401,0.002665312480980452,0.002665312480980452
282.402,0.0014325563185969132,0.0014325563185969132
282.40299999999996,0.0003937063677366038,-0.0003937063677366038
282.404,0.0023536314890707536,-0.0023536314890707536
282.405,0.003967922501527777,-0.003967922501527777
282.406,0.004882329540400549,-0.004882329540400549
282.407,0.004964977693165571,-0.004964977693165571
282.40799999999996,0.00432629859827268,-0.00432629859827268
282.409,0.0032586690720413244,-0.0032586690720413244
282.40999999999997,0.002120321162292238,-0.002120321162292238
282.411,0.001206209571750209,-0.001206209571750209
282.412,0.0006513169865534935,-0.0006513169865534935
282.41299999999995,0.0003988283074274107,-0.0003988283074274107
282.414,0.00024170077319877122,-0.00024170077319877122
282.41499999999996,7.998534605112826e-05,7.998534605112826e-05
282.416,0.0007627414310215348,0.0007627414310215348
282.417,0.0018471261793386767,0.0018471261793386767
282.418,0.003182396985003217,0.003182396985003217
282.419,0.004461161438351883,0.004461161438351883
282.41999999999996,0.005312228192032986,0.005312228192032986
282.421,0.005419909164586369,0.005419909164586369
282.42199999999997,0.004629461743833907,0.004629461743833907
282.423,0.00300375265628425,0.00300375265628425
282.424,0.0008132510948817439,0.0008132510948817439
282.42499999999995,0.0015361120979842623,-0.0015361120979842623
282.426,0.003612674236294375,-0.003612674236294375
282.42699999999996,0.005070873113278128,-0.005070873113278128
282.428,0.005731043378483211,-0.005731043378483211
282.429,0.005605527870112572,-0.005605527870112572
282.43,0.004868190894608892,-0.004868190894608892
282.431,0.003782667722118625,-0.003782667722118625
282.43199999999996,0.0026163181681032616,-0.0026163181681032616
282.433,0.0015684584676556265,-0.0015684584676556265
282.43399999999997,0.0007333416591332715,-0.0007333416591332715
282.435,0.00010422053533042444,-0.00010422053533042444
282.436,0.0003898505285283868,0.0003898505285283868
282.43699999999995,0.0008328361375923956,0.0008328361375923956
