Czas,Sum
248.905,0.016118833347426108
248.906,0.019079777214658852
248.907,0.019118847920519308
248.90800000000002,0.016425201273066587
248.90900000000002,0.011854207831121427
248.91,0.006608840832958185
248.911,0.0018395089952986078
248.912,0.0017021763814173796
248.913,0.003845042244919922
248.91400000000002,0.004965331736736854
248.91500000000002,0.005763643990631338
248.916,0.00693968624992789
248.917,0.008883685929378925
248.918,0.011492950670363131
248.919,0.01417547530767444
248.92000000000002,0.016036760613919534
248.92100000000002,0.016183923601028553
248.922,0.014043332410038556
248.923,0.009585957057110269
248.924,0.003387480425365283
248.925,0.0034944986299399127
248.92600000000002,0.009785351508354863
248.92700000000002,0.014317098643652281
248.928,0.016313890004907492
248.929,0.01555988040289562
248.93,0.01241102894589742
248.931,0.00766168333084309
248.93200000000002,0.0023180698296177862
248.93300000000002,0.00264835718268638
248.934,0.006498812196148948
248.935,0.008832178087573368
248.936,0.009587790619816735
248.937,0.008968830342171318
248.93800000000002,0.007328296776097474
248.93900000000002,0.005061174297240093
248.94,0.0025327080482657697
248.941,5.107221966610941e-05
248.942,0.002127545899915052
248.943,0.003784673628866411
248.94400000000002,0.004738284100686136
248.94500000000002,0.00486527499855962
248.946,0.00414241539630579
248.947,0.002687105828775977
248.948,0.0007742949679804707
248.949,0.0011886038480532506
248.95000000000002,0.0027330201826117452
248.95100000000002,0.003433878792574299
248.952,0.0030207937958917795
248.953,0.0014633475792130619
248.954,0.0009972827942377567
248.955,0.003884416706290169
248.95600000000002,0.006585360071522138
248.95700000000002,0.008492369801931212
248.958,0.009151286084758896
248.959,0.008380889065895313
248.96,0.006332144266796259
248.961,0.003470052644268231
248.96200000000002,0.0004784929965099453
248.96300000000002,0.0018936640676218985
248.964,0.0030124633854822828
248.965,0.0025240753968375908
248.966,0.0004649218005793415
248.967,0.0027143439193103897
248.96800000000002,0.00622464490422014
248.96900000000002,0.009104944852499788
248.97,0.010446651129379429
248.971,0.009624681051850171
248.972,0.006476232872845733
248.973,0.0013755899598125118
248.97400000000002,0.0048239379492221
248.97500000000002,0.010975727717987603
248.976,0.015911129497674703
248.977,0.01872563197375616
248.978,0.018999055838647406
248.979,0.016882930947913856
248.98000000000002,0.013024818565376137
248.98100000000002,0.008349096200961564
248.982,0.0037614148594985997
248.983,0.00012676522815825147
248.984,0.003158445797744314
248.985,0.0056155395667483584
248.98600000000002,0.008025837726219955
248.98700000000002,0.010855894269476807
248.988,0.014201737861785142
248.989,0.01760205317803343
248.99,0.02006688033912058
248.991,0.020345376288938292
248.99200000000002,0.017369487056440702
248.99300000000002,0.010735670661935509
248.994,0.0010522218894795745
248.995,0.009997723831065623
248.996,0.019949093754474227
248.997,0.026162118610001072
248.99800000000002,0.026589639766219458
248.99900000000002,0.020476627735898895
249.0,0.008758603149416287
249.001,0.0060031169975711595
249.002,0.020180056328547354
249.00300000000001,0.030006368104030297
249.00400000000002,0.03262993894705793
249.00500000000002,0.02697747793402498
249.006,0.014161788101304836
249.007,0.002717500788840256
249.008,0.01935201497157027
249.00900000000001,0.031377223401871025
249.01000000000002,0.035574246657416486
249.01100000000002,0.030770503944268456
249.012,0.018170649767560353
249.013,0.0010153432709144254
249.014,0.01633434534990957
249.01500000000001,0.02961665522453573
249.01600000000002,0.03583231048590525
249.017,0.034010798098654614
249.018,0.02536424928909953
249.019,0.01280334815760214
249.02,1.545846865986527e-05
249.02100000000002,0.009803818248900873
249.02200000000002,0.014569759509368887
249.023,0.014084649790900104
249.024,0.009768921114023355
249.025,0.004065601617168131
249.026,0.0004688376894391962
249.02700000000002,0.002045839005169188
249.02800000000002,0.00021032949319585111
249.029,0.004081910502557642
249.03,0.00887946688372326
249.031,0.01198372959141891
249.032,0.011765481092498477
249.03300000000002,0.0077700241587165516
249.03400000000002,0.0009098721260306807
249.035,0.006813015586521273
249.036,0.012955444003379064
249.037,0.015431233953236189
249.038,0.013194874516753509
249.03900000000002,0.00658991769573948
249.04000000000002,0.002743843919003091
249.041,0.012365111446233638
249.042,0.01976121580362281
249.043,0.023078647299252637
249.044,0.021628760287430885
249.04500000000002,0.016024543436602673
249.04600000000002,0.007926880673349929
249.047,0.0004990511970760224
249.048,0.007233850167890056
249.049,0.010957570983689017
249.05,0.0113496666685375
249.05100000000002,0.009068743220588468
249.05200000000002,0.005449280959643772
249.053,0.002034697173406501
249.054,0.0001029157280653298
249.055,0.0003250017393170739
249.056,0.0026402096264433526
249.05700000000002,0.006355138555062344
249.05800000000002,0.01040702111626616
249.059,0.013691921244203908
249.06,0.015356033652001666
249.061,0.014977201166632956
249.062,0.012609291403040592
249.06300000000002,0.008706223625231406
249.06400000000002,0.003971066953594299
249.065,0.0008170499227452586
249.066,0.00495622128416608
249.067,0.007932715988855725
249.068,0.009484846536350934
249.06900000000002,0.00962427913957717
249.07000000000002,0.008619413858857112
249.071,0.0069411977846483485
249.072,0.005170106580813454
249.073,0.00386905190985015
249.074,0.0034405352851466947
249.07500000000002,0.004001731092075118
249.07600000000002,0.005319401824105696
249.077,0.006839850425009313
249.078,0.007825231692626498
249.079,0.00757199057925236
249.08,0.005652188632343829
249.08100000000002,0.0020986436753589514
249.08200000000002,0.0025388158006184997
249.083,0.0073038939742131204
249.084,0.011094759646637923
249.085,0.013002979368962666
249.086,0.012621351616877146
249.08700000000002,0.010210223097865298
249.08800000000002,0.006650502919711768
249.089,0.0031802183341950343
249.09,0.0009879492352421165
249.091,0.0007937290478438107
249.092,0.0025635788430259467
249.09300000000002,0.005468667249975644
249.09400000000002,0.008122774699760374
249.095,0.009036723312434443
249.096,0.007148180132085056
249.097,0.0022490529473827296
249.098,0.0048439815788458695
249.09900000000002,0.012452135474001298
249.10000000000002,0.018497893428735417
249.101,0.021133317776304346
249.102,0.01933533265929708
249.103,0.013272068613062874
249.104,0.0043121884976052415
249.10500000000002,0.005338117549052113
249.10600000000002,0.013264918572108158
249.107,0.017549045310708073
249.108,0.017321274384678977
249.109,0.012996162214532392
249.11,0.006113639029964145
249.11100000000002,0.0011564532652298986
249.11200000000002,0.006684665508084955
249.113,0.009012292957623904
249.114,0.007745615590540975
249.115,0.0036002586063197182
249.116,0.0019008359222880344
249.11700000000002,0.006960321975052202
249.11800000000002,0.010085367490510243
249.119,0.010522830526452892
249.12,0.008419758139198041
249.121,0.004678107884313984
249.122,0.0005774577226169268
249.12300000000002,0.002687008342943472
249.12400000000002,0.0043857701532459305
249.125,0.0044307639785440885
249.126,0.0033032115939710532
249.127,0.0017833007528584234
249.12800000000001,0.0006001481739357329
249.12900000000002,0.00014162954503027002
249.13000000000002,0.0003318217402594989
249.131,0.0007131066163512371
249.132,0.000688431573828667
249.133,0.00018206883940712797
249.13400000000001,0.0019542940784262304
249.13500000000002,0.004237068926079679
249.13600000000002,0.006320028881458515
249.137,0.0074433098891451225
249.138,0.007102873385636325
249.139,0.005269659954097137
249.14000000000001,0.0024324101657553937
249.14100000000002,0.000559110442540294
249.142,0.002796959295243801
249.143,0.0036528575990969615
249.144,0.0030235608425151278
249.145,0.0013876698931282194
249.14600000000002,0.00035428900153302553
249.14700000000002,0.0012050593893321955
249.148,0.0004475843066794241
249.149,0.0020615218179247134
249.15,0.005790221460330476
249.151,0.00966327994637247
249.15200000000002,0.01238924013570305
249.15300000000002,0.012874962047103172
249.154,0.010590020846150395
249.155,0.005760433514725897
249.156,0.000670739932589878
249.157,0.007300465274028142
249.15800000000002,0.012654712688036078
249.15900000000002,0.015584720528835465
249.16,0.015550358705008087
249.161,0.012714285901671993
249.162,0.007836418638587422
249.163,0.0020218328282421544
249.16400000000002,0.003585141747586456
249.16500000000002,0.008063752934802638
249.166,0.010868881401020132
249.167,0.01185285904944926
249.168,0.011184855742709904
249.169,0.009224189348653933
249.17000000000002,0.006405084612835751
249.17100000000002,0.003167454336581027
249.172,6.569918927619775e-05
249.173,0.0028917456911943633
249.174,0.0049491151422379155
249.175,0.005977326308358731
249.17600000000002,0.005908250993198732
249.17700000000002,0.004949515320840209
249.178,0.003605766825067372
249.179,0.0025947061752643235
249.18,0.0026515244067149757
249.181,0.004264977896928249
249.18200000000002,0.007430505243963997
249.18300000000002,0.011520666182682741
249.184,0.015349710142791824
249.185,0.01745056076526757
249.186,0.01650678672420418
249.187,0.01181604989285019
249.18800000000002,0.003631319045423534
249.18900000000002,0.0067526612901036695
249.19,0.01722956065939055
249.191,0.025390505609986083
249.192,0.029177842314906353
249.193,0.027490384339155086
249.19400000000002,0.02054812805899121
249.19500000000002,0.009889445886633787
249.196,0.002015786059429246
249.197,0.012432689832742998
249.198,0.019111515465847138
249.199,0.020894632828348126
249.20000000000002,0.017995431664478305
249.20100000000002,0.011866198913040476
249.202,0.004701502639222686
249.203,0.0012618350966424558
249.204,0.004425094304380691
249.205,0.004275983015900501
249.20600000000002,0.0014718691368727167
249.20700000000002,0.002454272360825322
249.208,0.005655485802343273
249.209,0.0066076441276242785
249.21,0.004611935914255373
249.211,5.747920197128916e-06
249.21200000000002,0.00597336429237312
249.21300000000002,0.011609914174101305
249.214,0.015267430584649347
249.215,0.015892336917473736
249.216,0.013304924810458307
249.217,0.008197219072715214
249.21800000000002,0.0018593077524003338
249.21900000000002,0.004256068345935957
249.22,0.008975442416679283
249.221,0.011708126848089211
249.222,0.012525270812246365
249.223,0.012012369177689471
249.22400000000002,0.010971099164761054
249.22500000000002,0.01009143033977844
249.226,0.009713527401453162
249.227,0.00975494893899912
249.228,0.009811043560420129
249.229,0.00937161330778505
249.23000000000002,0.008058517264811051
249.23100000000002,0.005789340559798337
249.232,0.002808734075720889
249.233,0.00041465747283066587
249.234,0.003374414067337131
249.235,0.005714507258302162
249.23600000000002,0.007342120638821895
249.23700000000002,0.008422408901117477
249.238,0.009262758835689873
249.239,0.010139534248793455
249.24,0.011142887031850306
249.241,0.012106569090754625
249.24200000000002,0.012653928869992401
249.24300000000002,0.012343219848405829
249.244,0.010854406640934237
249.245,0.008142145842511309
249.246,0.004492375789717266
249.247,0.0004577354980804241
249.24800000000002,0.0033052796482523116
249.24900000000002,0.006235910551806392
249.25,0.008029758450266484
249.251,0.00870055674159925
249.252,0.008522794323025657
249.25300000000001,0.007882506563109843
249.25400000000002,0.0071001908130035405
249.25500000000002,0.0063006965719324785
249.256,0.005385408114663493
249.257,0.004119463950377788
249.258,0.0022978460603878315
249.25900000000001,8.148249539742355e-05
249.26000000000002,0.0027167763852275696
249.26100000000002,0.005028754789717759
249.262,0.006320126170367689
249.263,0.006020390273846206
249.264,0.003928910590011362
249.26500000000001,0.00036137859408046595
249.26600000000002,0.00386732290135432
249.267,0.007635941666048174
249.268,0.00983469043288265
249.269,0.009709535720453051
249.27,0.0071193060802030635
249.27100000000002,0.002616181621233101
249.27200000000002,0.0026839515978933025
249.273,0.007406149074899121
249.274,0.010303235746968058
249.275,0.010605173657170194
249.276,0.00822441438694926
249.27700000000002,0.0037587062448215147
249.27800000000002,0.001701233616485986
249.279,0.006890752692440682
249.28,0.01071290499125538
249.281,0.012499150921287401
249.282,0.01212010151347095
249.28300000000002,0.009931823361313652
249.28400000000002,0.006597514911501659
249.285,0.002859558318291447
249.286,0.0006576742985271667
249.287,0.003557423268225913
249.288,0.00567666806708658
249.28900000000002,0.007014111434773103
249.29000000000002,0.007630933454763142
249.291,0.007576603067169943
249.292,0.006870948518213208
249.293,0.005540980537062062
249.294,0.003681756913250044
249.29500000000002,0.001497873600207815
249.29600000000002,0.0007085706419787029
249.297,0.0026107647195793646
249.298,0.003965602318527699
249.299,0.004709794804800938
249.3,0.004993840287524141
249.30100000000002,0.005125654295260232
249.30200000000002,0.005433295427292093
249.303,0.006094691899563747
249.304,0.007004823567239519
249.305,0.007745958890770706
249.306,0.007693234970426163
249.30700000000002,0.006236681350525675
249.30800000000002,0.0030505341814786634
249.309,0.0016884884461404062
249.31,0.007226743789784808
249.311,0.012354266259633297
249.312,0.01570633583577506
249.31300000000002,0.01616517016898569
249.31400000000002,0.013237042162223135
249.315,0.007276761661361121
249.316,0.0005274869586014235
249.317,0.008422335777020886
249.318,0.01454166507357383
249.31900000000002,0.017411796007984388
249.32000000000002,0.016356898995658887
249.321,0.011680855317183988
249.322,0.004571513918314844
249.323,0.0032392986441629203
249.324,0.00995100429085689
249.32500000000002,0.014157230566280968
249.32600000000002,0.015160019936858522
249.327,0.013054367178801431
249.328,0.008581802017462255
249.329,0.002827017951798036
249.33,0.003123675759685064
249.33100000000002,0.008443501681900712
249.33200000000002,0.012670291352098037
249.333,0.01564755530448024
249.334,0.017359543536372705
249.335,0.01775712442539515
249.336,0.016668570192238823
249.33700000000002,0.013846822335933338
249.33800000000002,0.009139870625717382
249.339,0.002709815054287574
249.34,0.004805812851359381
249.341,0.012285482309265478
249.342,0.018310357569597802
249.34300000000002,0.02151368166641608
249.34400000000002,0.02099075303332784
249.345,0.016630787633991624
249.346,0.009244458150582271
249.347,0.0004210458473862327
249.348,0.007862310762743255
249.34900000000002,0.013770392010744842
249.35000000000002,0.01611665289007873
249.351,0.01468527967619845
249.352,0.010262647492444942
249.353,0.004365752038630206
249.354,0.0012451098993906074
249.35500000000002,0.005110529942324943
249.35600000000002,0.006495743419720187
249.357,0.005558279386182526
249.358,0.003211548508690639
249.359,0.0007401023822832558
249.36,0.0006938241421813434
249.36100000000002,0.00047777567348711986
249.36200000000002,0.0012384989060876658
249.363,0.003617448846058631
249.364,0.005465031753677025
249.365,0.005698401354313488
249.366,0.003781459558467699
249.36700000000002,2.9073344312730834e-05
249.36800000000002,0.004718260658558488
249.369,0.008821522997503082
249.37,0.010904963850940233
249.371,0.010055091739677703
249.372,0.006211316856309298
249.37300000000002,0.00022721837057594426
249.37400000000002,0.0063624561675036965
249.375,0.011794188409939193
249.376,0.01460100286980509
249.377,0.014042545053285308
249.37800000000001,0.010306192363339673
249.37900000000002,0.004422969075983165
249.38000000000002,0.0020645735013607204
249.381,0.007567747324071821
249.382,0.010899004026472425
249.383,0.011564433617757741
249.38400000000001,0.009823441811133796
249.38500000000002,0.006518129464000172
249.38600000000002,0.002749109565837656
249.387,0.0004822806516250627
249.388,0.00254583994766085
249.389,0.003289881301923753
249.39000000000001,0.002970149557288488
249.39100000000002,0.002050303405453204
249.392,0.0009648946807209194
249.393,5.943065589680853e-05
249.394,0.0010595086449060932
249.395,0.002255927548044834
249.39600000000002,0.0038803729508347486
249.39700000000002,0.005988216416652162
249.398,0.00833909624335662
249.399,0.010400966005183062
249.4,0.011484968141493293
249.401,0.010967783657187659
249.40200000000002,0.008523495841331719
249.40300000000002,0.004280867313080904
249.404,0.0011538803138730124
249.405,0.006823180424874963
249.406,0.01165701945398548
249.407,0.01475068693121462
249.40800000000002,0.015595087988971626
249.40900000000002,0.014190040931824771
249.41,0.01101027517590184
249.411,0.006841756288748853
249.412,0.0025461474720505934
249.413,0.0011693852259790484
249.41400000000002,0.003906683666158746
249.41500000000002,0.005614627095954502
249.416,0.006511101696186931
249.417,0.0069278840350726996
249.418,0.007140585308313821
249.419,0.007246656968208354
249.42000000000002,0.007133814899613947
249.42100000000002,0.006546994118512711
249.422,0.00522610579046104
249.423,0.003061436253147197
249.424,0.00020664198196402317
249.425,0.0028971691033646946
249.42600000000002,0.00560350025314169
249.42700000000002,0.007230374706906721
249.428,0.007269238472963683
249.429,0.005567959503333194
249.43,0.0024266063820159653
249.431,0.0014327488505890427
249.43200000000002,0.005025523863329181
249.43300000000002,0.0073582521133659755
249.434,0.007710538370100035
249.435,0.005865823268212631
249.436,0.002219494743377488
249.437,0.0022780795870014038
249.43800000000002,0.00634254735592767
249.43900000000002,0.008692579608264797
249.44,0.008417277880152006
249.441,0.005271600547398206
249.442,0.00019167980552645095
249.443,0.0067066918831118795
249.44400000000002,0.012591522630174204
249.44500000000002,0.016191169425140324
249.446,0.016350989426877
249.447,0.012785388781945895
249.448,0.006224801679631853
249.449,0.0017209489411111362
249.45000000000002,0.008965858236993134
249.45100000000002,0.013519199157000871
249.452,0.014068033999335337
249.453,0.010397392336440305
249.454,0.0035102857451030298
249.455,0.004609308254848033
249.45600000000002,0.01154226084710003
249.45700000000002,0.015142299100975132
249.458,0.014199405794777133
249.459,0.00885177033060545
249.46,0.0006041409786362132
249.461,0.008075880351307404
249.46200000000002,0.014481948014183427
249.46300000000002,0.016505467507248604
249.464,0.01332914215792924
249.465,0.005752674770407084
249.466,0.003971136572370387
249.467,0.012764472046747343
249.46800000000002,0.017644398449097203
249.46900000000002,0.01666231158267876
249.47,0.009571555668136847
249.471,0.001996533669433926
249.472,0.014924387288636516
249.473,0.02547094846728506
249.47400000000002,0.030359469457628116
249.47500000000002,0.027766906714354042
249.476,0.017912069276091003
249.477,0.003054612981096683
249.478,0.013107448601698256
249.479,0.026471383209215077
249.48000000000002,0.03369121762938657
249.48100000000002,0.03312243232222503
249.482,0.025269268726021445
249.483,0.01260410556943378
249.484,0.0011818799390979856
249.485,0.012266908026998546
249.48600000000002,0.017796936781619397
249.48700000000002,0.016668242557601732
249.488,0.009770581589847435
249.489,0.00036435142334697624
249.49,0.01038339918425125
249.491,0.01713820158195504
249.49200000000002,0.018601726421506277
249.49300000000002,0.014405799157300857
249.494,0.005857427633164559
249.495,0.004542979400407569
249.496,0.013907941672484422
249.497,0.01983090796917734
249.49800000000002,0.021049877399188455
249.49900000000002,0.01772014004642692
249.5,0.011242387298323823
249.501,0.003733458336307074
249.502,0.00266886168651886
249.50300000000001,0.006439030198089081
249.50400000000002,0.007045168268299574
249.50500000000002,0.004984482085311875
249.506,0.001496391151490074
249.507,0.0019224336055300804
249.508,0.004025240332232917
249.50900000000001,0.004178890053191595
249.51000000000002,0.0024820595222706065
249.51100000000002,0.00037251125971345415
249.512,0.003415759348034589
249.513,0.005771456720098669
249.514,0.006944391611964343
249.51500000000001,0.006937181238370627
249.51600000000002,0.006174603392868222
249.517,0.005284322261278204
249.518,0.004828874700624648
249.519,0.005091524980684812
249.52,0.005988621595474511
249.52100000000002,0.007127495791733548
249.52200000000002,0.007973359285424904
249.523,0.008051851267200844
249.524,0.00710814167797884
249.525,0.005168566309344912
249.526,0.002494656112938479
249.52700000000002,0.0005364398817860966
249.52800000000002,0.003564456101275794
249.529,0.006331523069192609
249.53,0.008687597834613859
249.531,0.010523586058084605
249.532,0.011677130135028572
249.53300000000002,0.011873237157904176
249.53400000000002,0.010750732972402154
249.535,0.007989058547552875
249.536,0.003501907014828127
249.537,0.002376000253857951
249.538,0.008797416454789844
249.53900000000002,0.014475001981434645
249.54000000000002,0.017935747429827998
249.541,0.01790980163499542
249.542,0.013748243266798183
249.543,0.00573623193220613
249.544,0.0048171541085313945
249.54500000000002,0.01577409705776137
249.54600000000002,0.0246263173450044
249.547,0.029109925666731793
249.548,0.027812396692180892
249.549,0.020596473850889863
249.55,0.008708510260036748
249.55100000000002,0.0054757784059932
249.55200000000002,0.019011648391825182
249.553,0.029104953469799008
249.554,0.03379524479187198
249.555,0.032414630242771164
249.556,0.025698338790772587
249.55700000000002,0.015523421390484396
249.55800000000002,0.004359108736924352
249.559,0.0054063367582607245
249.56,0.01206635681559362
249.561,0.014956607191452724
249.562,0.014485393182584445
249.56300000000002,0.011847372727894458
249.56400000000002,0.008530072618619246
249.565,0.005782268691876442
249.566,0.0042181336627044935
249.567,0.003680600993755529
249.568,0.003398381245056977
249.56900000000002,0.0023723128814889705
249.57000000000002,0.00015000240500858577
249.571,0.0042823491654605745
249.572,0.009335399230732613
249.573,0.01394932243025453
249.574,0.016493882555486707
249.57500000000002,0.015614288920044544
249.57600000000002,0.01074621590765222
249.577,0.0024243821888734374
249.578,0.007732921998753622
249.579,0.017382835788802554
249.58,0.02407160547787947
249.58100000000002,0.02592943499173943
249.58200000000002,0.022239301843681118
249.583,0.013701826378468977
249.584,0.0023033451741600363
249.585,0.009189481092613321
249.586,0.017972693141715106
249.58700000000002,0.021975435424704433
249.58800000000002,0.020434550590444855
249.589,0.01410381587979982
249.59,0.0050333499605198125
249.591,0.004019714804116646
249.592,0.010379672605816806
249.59300000000002,0.012211396609510691
249.59400000000002,0.009030644743151989
249.595,0.0018199079345485255
249.596,0.007278976398460908
249.597,0.015599694563796918
249.598,0.0207232550508483
249.59900000000002,0.02115928397571341
249.60000000000002,0.016740839329764605
249.601,0.008626070830162385
249.602,0.0010807498466602733
249.603,0.009963868034796198
249.604,0.015989665061589484
249.60500000000002,0.01805233716245255
249.60600000000002,0.016217407387353406
249.607,0.01160645133491935
249.608,0.005977514240730042
249.609,0.0011455646777471607
249.61,0.0015710824661433504
249.61100000000002,0.001710221445305467
249.61200000000002,0.00026783319974486256
249.613,0.003208969927586912
249.614,0.005698486850636559
249.615,0.006548659061784668
249.616,0.005181752513080057
249.61700000000002,0.0017919300265402678
249.61800000000002,0.002752989469784413
249.619,0.0072229443057076894
249.62,0.010436975077488418
249.621,0.011635295711442338
249.622,0.010693677212672118
249.62300000000002,0.008120102692858329
249.62400000000002,0.004848487394736631
249.625,0.0019100058498282375
249.626,9.792863535491805e-05
249.627,0.00026329814915925615
249.62800000000001,0.0006242100492452023
249.62900000000002,0.002153748921929333
249.63000000000002,0.0035613430375699808
249.631,0.004205191608292716
249.632,0.0037792100883642463
249.633,0.002391651473582045
249.63400000000001,0.000490869966076479
249.63500000000002,0.001325324964502685
249.63600000000002,0.002541553409795131
249.637,0.0029123906466863325
249.638,0.00254002669142007
249.639,0.001818686717304796
249.64000000000001,0.00127087354538189
249.64100000000002,0.0013380248074227336
249.642,0.0022021942878564767
249.643,0.003702028682206127
249.644,0.005371475400766787
249.645,0.00658637737902029
249.64600000000002,0.006767735561385322
249.64700000000002,0.005573126584166407
249.648,0.0030144772294164184
249.649,0.0005325362445951541
249.65,0.004425251174731232
249.651,0.007921135643353294
249.65200000000002,0.010360374567867257
249.65300000000002,0.011309793943595364
249.654,0.010632547090499496
249.655,0.008476202316649344
249.656,0.005198859090103301
249.657,0.0012691876846469617
249.65800000000002,0.0028228827536677568
249.65900000000002,0.006621245413635399
249.66,0.009721324962817536
249.661,0.011766003748953466
249.662,0.012444639017251076
249.663,0.01151637642926099
249.66400000000002,0.00886427459078781
249.66500000000002,0.004567492821549457
249.666,0.0010367042061164096
249.667,0.007334179998260204
249.668,0.013482751062852492
249.669,0.018533125824297524
249.67000000000002,0.02160223343375417
249.67100000000002,0.022059122793281358
249.672,0.019674970349378807
249.673,0.01469497030258304
249.674,0.007809365080714485
249.675,2.7570820911243816e-05
249.67600000000002,0.007515025670143092
249.67700000000002,0.013771172590918538
249.678,0.017966869416670538
249.679,0.019717742088245175
249.68,0.01905676644953768
249.681,0.016376539671660136
249.68200000000002,0.012308996495402711
249.68300000000002,0.007576910459310063
249.684,0.002852927218266314
249.685,0.0013454414413797014
249.686,0.004709051490858459
249.687,0.007136624457286428
249.68800000000002,0.00869025737852037
249.68900000000002,0.009524354118507853
249.69,0.009808535937870773
249.691,0.009664189418440806
249.692,0.009130096041482341
249.693,0.008165687752395408
249.69400000000002,0.00669149346253351
249.69500000000002,0.00465629905537448
249.696,0.00211128252730258
249.697,0.0007344224547149878
249.698,0.003501788460675749
249.699,0.005690002598837759
249.70000000000002,0.006784710251971912
249.70100000000002,0.006405893818590093
249.702,0.004456115812179851
249.703,0.0012200099728662207
249.704,0.002629364232123602
249.705,0.006140699668073051
249.70600000000002,0.008301133281998864
249.70700000000002,0.008312668567205101
249.708,0.0058534502811967495
249.709,0.0012407250098432192
249.71,0.00457003774904215
249.711,0.010173676484657918
249.71200000000002,0.014059908295602903
249.71300000000002,0.01502962024669959
249.714,0.012566190046785603
249.715,0.007046028431320807
249.716,0.00029000335950035705
249.717,0.007616999666383798
249.71800000000002,0.012995516052459003
249.71900000000002,0.014905443436800473
249.72,0.0126916061725462
249.721,0.006785783128045466
249.722,0.001370211053463349
249.723,0.009689688727165784
249.72400000000002,0.01599731046890015
249.72500000000002,0.01861927705427246
249.726,0.01683673841670392
249.727,0.011069866007177687
249.728,0.002739415007575523
249.729,0.006150869366027796
249.73000000000002,0.013583925374619816
249.73100000000002,0.018079468302659673
249.732,0.0190615526677627
249.733,0.01693990482355857
249.734,0.01289221267673445
249.735,0.008428024863670837
249.73600000000002,0.004881153666353113
249.73700000000002,0.0029956093480660996
249.738,0.002734921797503114
249.739,0.003368342985858332
249.74,0.003795237364047543
249.741,0.0029911863617666443
249.74200000000002,0.0004211198876838855
249.74300000000002,0.0037219434262468565
249.744,0.008534291357636538
249.745,0.012670895146970385
249.746,0.014778954808628621
249.747,0.013953671061942997
249.74800000000002,0.010066928763834694
249.74900000000002,0.0038606667886745033
249.75,0.0032277897585137358
249.751,0.009456146245045437
249.752,0.01326389293591336
249.75300000000001,0.01370771703422075
249.75400000000002,0.010716409458641682
249.75500000000002,0.0050941592384426675
249.756,0.0017208531788410566
249.757,0.008062829202052783
249.758,0.01248477949659113
249.75900000000001,0.014115238457850891
249.76000000000002,0.012830288029780394
249.76100000000002,0.009207213140500421
249.762,0.004293214989983408
249.763,0.0007257032237874718
249.764,0.0048492046587879775
249.76500000000001,0.007487182757945598
249.76600000000002,0.008531897310956429
249.767,0.008278142268549166
249.768,0.007239185706858908
249.769,0.005933190589234678
249.77,0.004714696526714001
249.77100000000002,0.00370114624183223
249.77200000000002,0.0028057936508327263
249.773,0.0018497819056597616
249.774,0.0007006419648968174
249.775,0.0006205509220187827
249.776,0.0019055461142539608
249.77700000000002,0.002811627499541427
249.77800000000002,0.002981210983565836
249.779,0.0021847748976881955
249.78,0.00043525101271325455
249.781,0.001968575616898606
249.782,0.004488848909444456
249.78300000000002,0.006475750206809698
249.78400000000002,0.0073395986510619215
249.785,0.006718360767050677
249.786,0.004591757080303533
249.787,0.001308072868578901
249.788,0.002486007879198194
249.78900000000002,0.005995820294036363
249.79000000000002,0.00847124840945103
249.791,0.009392174438221951
249.792,0.008599350724610487
249.793,0.006336772456438486
249.794,0.0031934813300586264
249.79500000000002,4.2443347519186544e-05
249.79600000000002,0.002582928555172818
249.797,0.0038430822246128494
249.798,0.003596801091494047
249.799,0.002042764176666715
249.8,0.0002406988336055211
249.80100000000002,0.0024460908193076484
249.80200000000002,0.003758902963246145
249.803,0.0035962059834793825
249.804,0.0017974559070727007
249.805,0.0012893649396489596
249.806,0.0048596212923757084
249.80700000000002,0.007840156665562405
249.80800000000002,0.00917371319901809
249.809,0.008128780976561976
249.81,0.004550058382841724
249.811,0.0010265286673479376
249.812,0.007439037232468519
249.81300000000002,0.013142871755135937
249.81400000000002,0.016579968027196704
249.815,0.01658215973545964
249.816,0.01270107156740448
249.817,0.005370519389314417
249.818,0.0041513150956729436
249.81900000000002,0.014054118779551454
249.82000000000002,0.02239663040243952
249.821,0.02756794420237665
249.822,0.02866635918490034
249.823,0.02569413188974587
249.824,0.019516967790653077
249.82500000000002,0.01160295649802044
249.82600000000002,0.0036177654607988143
249.827,0.003007192917993007
249.828,0.00741129718689947
249.829,0.00945419143502626
249.83,0.009644069071198403
249.83100000000002,0.00887791291191373
249.83200000000002,0.008083246115285107
249.833,0.007879199853599942
249.834,0.008366117579091231
249.835,0.009110181219340738
249.836,0.00932597249363479
249.83700000000002,0.008195341593027898
249.83800000000002,0.005215732418121119
249.839,0.00045959680879603177
249.84,0.005347314487913837
249.841,0.01096493855773973
249.842,0.014962539590747
249.84300000000002,0.016134208444445217
249.84400000000002,0.013880789030752842
249.845,0.008438309576527622
249.846,0.000875656526481971
249.847,0.007148388038351357
249.848,0.013806651675649907
249.84900000000002,0.01758672163447942
249.85000000000002,0.01769798624395184
249.851,0.014284592882027592
249.852,0.008381278418471238
249.853,0.0016230570177770192
249.854,0.004208963639327004
249.85500000000002,0.007675924195603745
249.85600000000002,0.008064454756515502
249.857,0.00555672086371725
249.858,0.0011417967895894496
249.859,0.003701590516648804
249.86,0.007454777642791799
249.86100000000002,0.009007848970748229
249.86200000000002,0.007976041531325247
249.863,0.004793407880269776
249.864,0.0005601641775119477
249.865,0.003306912607560549
249.866,0.005514335191412942
249.86700000000002,0.005290324533943945
249.86800000000002,0.002624436327047256
249.869,0.0017202095656783868
249.87,0.006422565016749741
249.871,0.009980701895525985
249.872,0.011137983506884047
249.87300000000002,0.009234489049646945
249.87400000000002,0.004385105071430823
249.875,0.0025606952986324785
249.876,0.010257309237218872
249.877,0.017222998288048772
249.87800000000001,0.022213265306300942
249.87900000000002,0.024501699097299906
249.88000000000002,0.023996212232506278
249.881,0.021172277984984427
249.882,0.016860820250116676
249.883,0.011969305229618159
249.88400000000001,0.007228293693198126
249.88500000000002,0.0030393399816251413
249.88600000000002,0.0005394746082798465
249.887,0.003682843348872321
249.888,0.006616294592657977
249.889,0.00943770464437481
249.89000000000001,0.01201104623052238
249.89100000000002,0.013971714757974192
249.892,0.014840757915451652
249.893,0.014205588724987932
249.894,0.011900897959268691
249.895,0.008123285949394406
249.89600000000002,0.0034360705921949062
249.89700000000002,0.0013416618708876834
249.898,0.005328692135217481
249.899,0.007797920602085695
249.9,0.008349071475987206
249.901,0.006987901374687841
249.90200000000002,0.004094148262354975
249.90300000000002,0.000296910313202358
249.904,0.00369590328385647
249.905,0.00725726087558477
249.906,0.00994332393498214
249.907,0.011517749137305371
249.90800000000002,0.011908473315896546
249.90900000000002,0.01113195848544044
249.91,0.009228627900361493
249.911,0.006243377410220725
249.912,0.002260950991326905
249.913,0.0025224674322955475
249.91400000000002,0.007731168858194281
249.91500000000002,0.01278974934702311
249.916,0.016980737134430168
249.917,0.019580802954104172
249.918,0.02004326994832155
249.919,0.018170345715837206
249.92000000000002,0.014213163475623534
249.92100000000002,0.00885501684020769
249.922,0.0030685849448749913
249.923,0.0021199889440451517
249.924,0.005893160447149089
249.925,0.007849566095032555
249.92600000000002,0.00808944590755071
249.92700000000002,0.00714679037321119
249.928,0.005786010219708781
249.929,0.004726195423472818
249.93,0.004382257480534294
249.931,0.004709920176518287
249.93200000000002,0.005210391534546834
249.93300000000002,0.005099949006097528
249.934,0.0035956099773614076
249.935,0.00022803761711425358
249.936,0.004919897622377131
249.937,0.01113127258035776
249.93800000000002,0.017166724381281185
249.93900000000002,0.021548132640437
249.94,0.022940209402041535
249.941,0.020524555795957904
249.942,0.014260343656254563
249.943,0.004956127344034526
249.94400000000002,0.005870966356476266
249.94500000000002,0.016314704034243902
249.946,0.024496805796386308
249.947,0.028976844406906486
249.948,0.029055347183220837
249.949,0.02490135602575365
249.95000000000002,0.017482391500829784
249.95100000000002,0.00832378772986748
249.952,0.0008371233518368121
249.953,0.00841721911856059
249.954,0.013292103674379283
249.955,0.014978304808153278
249.95600000000002,0.013665361822659856
249.95700000000002,0.010105253504894838
249.958,0.005396155166983661
249.959,0.0007158993891992568
249.96,0.002934426095870199
249.961,0.004923792546182208
249.96200000000002,0.005085664908930304
249.96300000000002,0.003700621299370184
249.964,0.0013784107880487118
249.965,0.001128070277194088
249.966,0.0031300416563457066
249.967,0.004180080684041628
249.96800000000002,0.004175205557940362
249.96900000000002,0.0033597272802733122
249.97,0.0022274894200076936
249.971,0.0013505923882404058
249.972,0.0011836581969815916
249.973,0.001902272886879768
249.97400000000002,0.0033272775978783675
249.97500000000002,0.004963412445572364
249.976,0.006146938666088725
249.977,0.006261860069271605
249.978,0.0049592898858656686
249.979,0.0023083754690746486
249.98000000000002,0.0011762925199477092
249.98100000000002,0.004650113908081899
249.982,0.007171203340510397
249.983,0.007984833334673657
249.984,0.006772375927892123
249.985,0.0037826829614797178
249.98600000000002,0.0002040381734696798
249.98700000000002,0.004079487886281205
249.988,0.00672412325921078
249.989,0.007345100960471776
249.99,0.005731473440457554
249.991,0.0023439692525861595
249.99200000000002,0.0017950930750458088
249.99300000000002,0.0053854168891715225
249.994,0.007225172440308863
249.995,0.006569110146175249
249.996,0.003360708016271125
249.997,0.001732376299248936
249.99800000000002,0.007491319181082188
249.99900000000002,0.012476784278376752
250.0,0.015419722461265068
250.001,0.015558474866261973
250.002,0.012826902417696125
250.00300000000001,0.007845214418071955
250.00400000000002,0.001725141233442642
250.00500000000002,0.004244933046881852
250.006,0.008937751803297858
250.007,0.011650389560509218
250.008,0.012224593253308423
250.00900000000001,0.01100389898856994
250.01000000000002,0.008657641307869283
250.01100000000002,0.005939064835481531
250.012,0.003457877489642902
250.013,0.0015346076583516645
250.014,0.00017141970101871911
250.01500000000001,0.0008662486383371359
250.01600000000002,0.0018972639071268584
250.017,0.003159860726587092
250.018,0.004690499040356095
250.019,0.006283536722700012
250.02,0.007540184994019324
250.02100000000002,0.007987338692735668
250.02200000000002,0.007228001623950906
250.023,0.005079374319273191
250.024,0.0016616498516175211
250.025,0.0025841126904690044
250.026,0.006952753854591084
250.02700000000002,0.01059454264565497
250.02800000000002,0.01267492337367475
250.029,0.012546346371629423
250.03,0.009902273063083292
250.031,0.004884297897483965
250.032,0.0018831755027727667
250.03300000000002,0.009348808472984164
250.03400000000002,0.016185828476024056
250.035,0.021025396494597656
250.036,0.022735961245994227
250.037,0.02069290080058543
250.038,0.014972576199212379
250.03900000000002,0.006410895273129045
250.04000000000002,0.003508740118488936
250.041,0.012933016426355831
250.042,0.020030659807153545
250.043,0.023409244208776537
250.044,0.02245013257344091
250.04500000000002,0.017467212770656253
250.04600000000002,0.009636866015924984
250.047,0.0007078403044036084
250.048,0.007436991430459588
250.049,0.013249323403359678
250.05,0.015884384903577166
250.05100000000002,0.015366523711161586
250.05200000000002,0.012506779186382981
250.053,0.008601940071677413
250.054,0.005010672097055292
250.055,0.0027390286496207007
250.056,0.002162687112952151
250.05700000000002,0.0029676760688826746
250.05800000000002,0.004319708076643829
250.059,0.005197911423691471
250.06,0.004776310806132096
250.061,0.00272324959168706
250.062,0.0006806550387013753
250.06300000000002,0.004641931029286602
250.06400000000002,0.008132064209754894
250.065,0.010244056502314811
250.066,0.010502337399864965
250.067,0.009018468481069792
250.068,0.006440070093896286
250.06900000000002,0.003713264082393832
250.07000000000002,0.0017442118440001476
250.071,0.0010802668655692635
250.072,0.0017237185483779175
250.073,0.0031438115480989922
250.074,0.004482326952683776
250.07500000000002,0.0048792431767406535
250.07600000000002,0.0038020256205456952
250.077,0.0012600753031324853
250.078,0.002174368251516052
250.079,0.005549798832309913
250.08,0.007862207786715458
250.08100000000002,0.008412280906167253
250.08200000000002,0.007067549590322482
250.083,0.004334711518589909
250.084,0.0012111477727313772
250.085,0.001140063633250854
250.086,0.0017861654494356954
250.08700000000002,0.0003599703468275457
250.08800000000002,0.0027799962602622743
250.089,0.0066232902474791435
250.09,0.009798880178292628
250.091,0.010997280069778811
250.092,0.00939397709656686
250.09300000000002,0.004942800450899133
250.09400000000002,0.0015530811674163982
250.095,0.008617893439740358
250.096,0.014479506346100297
250.097,0.01753929397243393
250.098,0.016804516047647863
250.09900000000002,0.012165396309506237
250.10000000000002,0.004444918700305413
250.101,0.004787214166799768
250.102,0.013582907682982957
250.103,0.020068786116085723
250.104,0.02287092484733789
250.10500000000002,0.021411988651666915
250.10600000000002,0.01601844337594839
250.107,0.007823672219773934
250.108,0.0015004373686293058
250.109,0.010115882615861738
250.11,0.016410025886974808
250.11100000000002,0.019322784824329635
250.11200000000002,0.01854389904582886
250.113,0.01454379163882194
250.114,0.008436317716304117
250.115,0.001706143854600884
250.116,0.00413816176818513
250.11700000000002,0.0079073921603715
250.11800000000002,0.008992277273822968
250.119,0.007478995980572245
250.12,0.004090084875761605
250.121,3.581454960806744e-05
250.122,0.0036688492353605805
250.12300000000002,0.005829787094277487
250.12400000000002,0.00605233766718754
250.125,0.004488456497824247
250.126,0.0018230045363833557
250.127,0.000978297685059417
250.12800000000001,0.0030095938827451995
250.12900000000002,0.0037436968405604545
250.13000000000002,0.003220089902725195
250.131,0.002031649054830521
250.132,0.0011047620979875
250.133,0.001339277979471618
250.13400000000001,0.0032288050781928914
250.13500000000002,0.006598037044254394
250.13600000000002,0.01056329471086914
250.137,0.013752231554591089
250.138,0.014730065317057329
250.139,0.012502314993662923
250.14000000000001,0.0069257513203510555
250.14100000000002,0.001123558153605453
250.142,0.00990543945636913
250.143,0.017270585472628382
250.144,0.021288557671072753
250.145,0.020854728146060042
250.14600000000002,0.016075997637213076
250.14700000000002,0.008296036691204016
250.148,0.00026819540994216977
250.149,0.007180668556014919
250.15,0.010533545153954141
250.151,0.009551241913147757
250.15200000000002,0.004852997341145606
250.15300000000002,0.00171978361403202
250.154,0.00766665031230617
250.155,0.010609623164497364
250.156,0.00904744578376655
250.157,0.0028425347091739703
250.15800000000002,0.006715167171759348
250.15900000000002,0.017287350702787006
250.16,0.02618659252816291
250.161,0.03117041737374674
250.162,0.03107713855656992
250.163,0.026106409487680626
250.16400000000002,0.017667921766150656
250.16500000000002,0.007865697006072384
250.166,0.0011959562181713837
250.167,0.008045510298720457
250.168,0.01220649682469353
250.169,0.014180158359935703
250.17000000000002,0.015076201499818927
250.17100000000002,0.016043513646096432
250.172,0.0177210248583425
250.173,0.019917785282027783
250.174,0.02164518034441337
250.175,0.02149384957294579
250.17600000000002,0.018219736449865017
250.17700000000002,0.011323473068673434
250.178,0.001403872656366914
250.179,0.009858479634795633
250.18,0.020103576593059756
250.181,0.026960220070140477
250.18200000000002,0.028763594981054907
250.18300000000002,0.025082927701154608
250.184,0.016879559271681336
250.185,0.006237586433396309
250.186,0.0042484524382606585
250.187,0.012230410429906666
250.18800000000002,0.016262869376164477
250.18900000000002,0.016150423291135627
250.19,0.012883809074434614
250.191,0.008202198136545685
250.192,0.003943254349151599
250.193,0.0014093646359888356
250.19400000000002,0.0009657053777091804
250.19500000000002,0.0019992094955255924
250.196,0.003238193348903937
250.197,0.0033058938504472064
250.198,0.00130135097880197
250.199,0.002804979300526041
250.20000000000002,0.008104719173108456
250.20100000000002,0.013039379793230128
250.202,0.015941223882155874
250.203,0.015635820403005703
250.204,0.011892295357800243
250.205,0.005559441204327692
250.20600000000002,0.0016658269489817506
250.20700000000002,0.00776449199851301
250.208,0.011041393272489937
250.209,0.010675023394804672
250.21,0.006986913163123772
250.211,0.0013400649151361682
250.21200000000002,0.004300832394689334
250.21300000000002,0.008003517373983115
250.214,0.008490445156021478
250.215,0.005549346074356698
250.216,0.00010329065257698368
250.217,0.006077416900732153
250.21800000000002,0.010925426773649475
250.21900000000002,0.012712856352799898
250.22,0.010577004548644997
250.221,0.004779323515026313
250.222,0.0033706690932352643
250.223,0.011890849438805005
250.22400000000002,0.01867867908258696
250.22500000000002,0.022073334265906106
250.226,0.021269920654174684
250.227,0.01648273063787441
250.228,0.00883426347800367
250.229,2.4866612134616754e-05
250.23000000000002,0.008108754085970546
250.23100000000002,0.014021897468846717
250.232,0.01677359057978336
250.233,0.016163779283918163
250.234,0.012690993870824504
250.235,0.00736907799323864
250.23600000000002,0.0014655671406456343
250.23700000000002,0.0037729770490223806
250.238,0.007356335808166422
250.239,0.00871393135731597
250.24,0.0077713141778249775
250.241,0.004937588253255543
250.24200000000002,0.001009272856895785
250.24300000000002,0.002997060116932295
250.244,0.006061460722474337
250.245,0.007391864005299909
250.246,0.006622984325500008
250.247,0.0039310886016765125
250.24800000000002,2.2185558564978506e-05
250.24900000000002,0.004022854584428753
250.25,0.007024103898702679
250.251,0.008036506546287212
250.252,0.006650672761468958
250.25300000000001,0.0031656572788783897
250.25400000000002,0.0014341427068644465
250.25500000000002,0.005712643399883276
250.256,0.008176114862484471
250.257,0.0077214983931217255
250.258,0.004005689887496813
250.25900000000001,0.0023840544592166287
250.26000000000002,0.010025214006223413
250.26100000000002,0.017008772575623523
250.262,0.021450235068293452
250.263,0.02201670962840209
250.264,0.018313052187789638
250.26500000000001,0.011008547537900136
250.26600000000002,0.0016625994761869528
250.267,0.007700442220927253
250.268,0.015140189558148305
250.269,0.019308428650786847
250.27,0.019766901270139057
250.27100000000002,0.01702686834207311
250.27200000000002,0.012311526763713262
250.273,0.00712893261934076
250.274,0.0027991526395736935
250.275,8.712711330685212e-05
250.276,0.0009492481791656427
250.27700000000002,0.0008627701699443416
250.27800000000002,0.0005236301639030355
250.279,0.0007441098114925218
250.28,0.0019581090343116616
250.281,0.004066313323458823
250.282,0.006494268555660747
250.28300000000002,0.008432721471401165
250.28400000000002,0.009164911816275479
250.285,0.008356471935950351
250.286,0.006199685969982011
250.287,0.003358553761319755
250.288,0.0007343886699096367
250.28900000000002,0.0008627196154449711
250.29000000000002,0.0010165725577472582
250.291,0.00012997886530735907
250.292,0.0019107550409702898
250.293,0.0033651618667541842
250.294,0.003583750849821989
250.29500000000002,0.0020512853302676825
250.29600000000002,0.001133324024878834
250.297,0.0052406992495201655
250.298,0.009110725073277547
250.299,0.01150798650923074
250.3,0.011519637094751525
250.30100000000002,0.008866944617868666
250.30200000000002,0.004028590746756238
250.303,0.0018663507445021296
250.304,0.0073449616941660125
250.305,0.011003655094459342
250.306,0.011903372564753666
250.30700000000002,0.009830057649085813
250.30800000000002,0.00534722286436651
250.309,0.00036837519941439217
250.31,0.005852972441948592
250.311,0.009744862427745067
250.312,0.011125166596480997
250.31300000000002,0.009720590161889609
250.31400000000002,0.005924227933892484
250.315,0.0006448590524164429
250.316,0.004958790327107756
250.317,0.009777258482905275
250.318,0.013002186489379666
250.31900000000002,0.014272878505891085
250.32000000000002,0.013695115283707196
250.321,0.011745702451484196
250.322,0.009102592765076403
250.323,0.006451812171575212
250.324,0.004318988424877824
250.32500000000002,0.0029594483283926078
250.32600000000002,0.002322822198884437
250.327,0.0020912858379554477
250.328,0.0017779617032752687
250.329,0.0008639420278362916
250.33,0.0010523234611122172
250.33100000000002,0.0041220722363816496
250.33200000000002,0.008158725680709418
250.333,0.012621139387137718
250.334,0.016683135413604732
250.335,0.019388120717872503
250.336,0.019865787863357506
250.33700000000002,0.017566115046854625
250.33800000000002,0.012451422789040894
250.339,0.0050871246225097306
250.34,0.0034102110471911163
250.341,0.011574620403039595
250.342,0.01790692023358289
250.34300000000002,0.02123147769292095
250.34400000000002,0.020998573427138425
250.345,0.017442711037455764
250.346,0.011540780594211129
250.347,0.004768245330125366
250.348,0.001288664438500717
250.34900000000002,0.005359879992847041
250.35000000000002,0.006834644583785562
250.351,0.005916662999100798
250.352,0.003538983166169082
250.353,0.0010572098018258472
250.354,0.00019184415338340224
250.35500000000002,0.0006655453941114461
250.35600000000002,0.003729889023120847
250.357,0.008252921000605873
250.358,0.012828033531058209
250.359,0.015797462184070986
250.36,0.01575929644565808
250.36100000000002,0.012023906707186728
250.36200000000002,0.004880987231446456
250.363,0.004407861949574029
250.364,0.013896268300229324
250.365,0.021443343901161253
250.366,0.025271219918683648
250.36700000000002,0.024434851399052566
250.36800000000002,0.01907510476883852
250.369,0.010388691247876811
250.37,0.0003282302697637949
250.371,0.008881174513612169
250.372,0.015276772841504815
250.37300000000002,0.01760565600005344
250.37400000000002,0.015577840497529836
250.375,0.009876162151394056
250.376,0.0019403760598646568
250.377,0.006402289018846502
250.37800000000001,0.013358266001621754
250.37900000000002,0.017539164555552135
250.38000000000002,0.018208503190451884
250.381,0.015368882678114716
250.382,0.009695839628198206
250.383,0.0023551125989005168
250.38400000000001,0.00524544865192376
250.38500000000002,0.011718667929446803
250.38600000000002,0.015934891823025227
250.387,0.017204752214062632
250.388,0.015389487629862
250.389,0.010926348805692002
250.39000000000001,0.004761154391729469
250.39100000000002,0.0018123566683664021
250.392,0.007392900952400862
250.393,0.010758705398714763
250.394,0.011147950646756754
250.395,0.00846668498110121
250.39600000000002,0.0033615324655337547
250.39700000000002,0.0028820124405049643
250.398,0.008613658086498405
250.399,0.01221348620704898
250.4,0.012514612494669489
250.401,0.009139503550867366
250.40200000000002,0.0026480675515159146
250.40300000000002,0.005559685076438734
250.404,0.013576613214715542
250.405,0.01947697279145958
250.406,0.021828948165201655
250.407,0.020084872515975564
250.40800000000002,0.014732135259414178
250.40900000000002,0.00715469340901786
250.41,0.0007594753237290651
250.411,0.007151908811836165
250.412,0.010710087480521251
250.413,0.011011837597367822
250.41400000000002,0.008594665487075635
250.41500000000002,0.004732199765275469
250.416,0.0009918508795199734
250.417,0.0012830884898562985
250.418,0.0014001243851782376
250.419,0.00048348452924385106
250.42000000000002,0.003451196734602205
250.42100000000002,0.006173528647305407
250.422,0.0073922177174058495
250.423,0.00637842763680521
250.424,0.0032096945773120284
250.425,0.0012294421815312055
250.42600000000002,0.005525906241591825
250.42700000000002,0.008204721360432496
250.428,0.008229067046980326
250.429,0.005366561720113235
250.43,0.0002979421878566147
250.431,0.0055708260482069906
250.43200000000002,0.010533880061557215
250.43300000000002,0.01311057991574082
250.434,0.012500072101891264
250.435,0.008818936158260423
250.436,0.003047976829560453
250.437,0.003289455734709299
250.43800000000002,0.00860750575854322
250.43900000000002,0.011736349600203984
250.44,0.012243906985010078
250.441,0.010501962600869857
250.442,0.007486569042654746
250.443,0.004392620387284592
250.44400000000002,0.002203077203096336
250.44500000000002,0.0013641639067232243
250.446,0.0016760431716072932
250.447,0.0024293780103405746
250.448,0.00272999169254547
250.449,0.0018875775401255253
250.45000000000002,0.00027684938580491435
250.45100000000002,0.003319287893370497
250.452,0.006299930535294554
250.453,0.008105712126336234
250.454,0.007853966337467076
250.455,0.005232969375260776
250.45600000000002,0.0006565125395993301
250.45700000000002,0.004825410451443715
250.458,0.009832359429031571
250.459,0.013072749758581113
250.46,0.013734898287867245
250.461,0.011719165789530198
250.46200000000002,0.007637362296410539
250.46300000000002,0.002587394496967988
250.464,0.0022114962187380653
250.465,0.005792226019448515
250.466,0.007693913383981921
250.467,0.008016934648202346
250.46800000000002,0.007275692052158936
250.46900000000002,0.006121084915468754
250.47,0.005050912390228854
250.471,0.004226389041062369
250.472,0.0034667378747927427
250.473,0.0024190499698435878
250.47400000000002,0.000826026827805433
250.47500000000002,0.0012308469695657424
250.476,0.0032319218830179452
250.477,0.004330609988045241
250.478,0.00365846744509347
250.479,0.000723482808890426
250.48000000000002,0.0042506605944077425
250.48100000000002,0.010193528216545395
250.482,0.01535340700908668
250.483,0.01774711466179414
250.484,0.015775723091219742
250.485,0.008814073849805131
250.48600000000002,0.002430236813005455
250.48700000000002,0.015934578944537522
250.488,0.02878883460843475
250.489,0.03793338077240031
250.49,0.041000185645175616
250.491,0.037004014482367675
250.49200000000002,0.026665452519412186
250.49300000000002,0.01225425283791475
250.494,0.0030123372381166387
250.495,0.015842888449627827
250.496,0.023757386771504255
250.497,0.02572121180625382
250.49800000000002,0.02234260336300809
250.49900000000002,0.015585917371035058
250.5,0.008103758645264882
250.501,0.0024064942245659534
250.502,0.00013072863147388594
250.50300000000001,0.0016263982496418762
250.50400000000002,0.005970910127655287
250.50500000000002,0.011376678671029485
250.506,0.015833462562914215
250.507,0.017760137821039856
250.508,0.01645228081264137
250.50900000000001,0.012195199509920585
250.51000000000002,0.006035511999021939
250.51100000000002,0.0006763183205774097
250.512,0.006786579979459842
250.513,0.011692863614553678
250.514,0.01542923680677608
250.51500000000001,0.01846784727462841
250.51600000000002,0.021334172719004167
250.517,0.024205555693483618
250.518,0.026669412534229962
250.519,0.027756099100706606
250.52,0.026254432825734024
250.52100000000002,0.021204821010708284
250.52200000000002,0.012388014619151773
250.523,0.0006162621411229881
250.524,0.012305833077549573
250.525,0.023971058323304383
250.526,0.032005125166782306
250.52700000000002,0.03474993970535626
250.52800000000002,0.03176944697771757
250.529,0.02400341329623765
250.53,0.013507009570024112
250.531,0.002850808792853258
250.532,0.005630016947271447
250.53300000000002,0.010496568590292375
250.53400000000002,0.01156526151392895
250.535,0.009853556037486085
250.536,0.007138975054170872
250.537,0.005286714525443009
250.538,0.005576605184037964
250.53900000000002,0.00825682842223521
250.54000000000002,0.012471233836926625
250.541,0.016577507522762533
250.542,0.01873967192146259
250.543,0.01758643457471641
250.544,0.012707885037875902
250.54500000000002,0.004822574898819439
250.54600000000002,0.004436564902056032
250.547,0.013036886370972934
250.548,0.019178991437140306
250.549,0.021829427101445403
250.55,0.0209752523845963
250.55100000000002,0.01752481268114867
250.55200000000002,0.012905709169934283
250.553,0.00851682504911266
250.554,0.005238957160891795
250.555,0.0031817226137670807
250.556,0.0017533206386023247
250.55700000000002,1.77324288109802e-05
250.55800000000002,0.002804630430480011
250.559,0.006892420633007909
250.56,0.011616589883646559
250.561,0.015667100210048846
250.562,0.017485327559784093
250.56300000000002,0.015857306298900902
250.56400000000002,0.010454825823620666
250.565,0.002117946876859824
250.566,0.007246495417895781
250.567,0.015146903854270437
250.568,0.019232920722260453
250.56900000000002,0.018037878229596398
250.57000000000002,0.011493593828326511
250.571,0.001038725477342499
250.572,0.010731260363671705
250.573,0.020777532984028207
250.574,0.026481344005359977
250.57500000000002,0.026393460051638118
250.57600000000002,0.020639681071120918
250.577,0.010860236972661095
250.578,0.0002931823595879707
250.579,0.009942304933837945
250.58,0.015805018535596807
250.58100000000002,0.01680722933359315
250.58200000000002,0.013308793042497902
250.583,0.006894631578042098
250.584,0.00018145318398338415
250.585,0.0057102084821504095
250.586,0.008170233304798264
250.58700000000002,0.00711051916421298
250.58800000000002,0.0031765824500913065
250.589,0.0021963103421039085
250.59,0.007296255997193365
250.591,0.010673278855467077
250.592,0.011531423344508516
250.59300000000002,0.009867168347702826
250.59400000000002,0.006341573508744213
250.595,0.0019637474017374862
250.596,0.0022815851328899144
250.597,0.00572586068964888
250.598,0.008136217536108714
250.59900000000002,0.009645190435149463
250.60000000000002,0.010546993971638868
250.601,0.01106363128611089
250.602,0.011187721109407285
250.603,0.010670228002894928
250.604,0.009156763743053235
250.60500000000002,0.006411526803624113
250.60600000000002,0.0025284114306800094
250.607,0.0019703738614585873
250.608,0.006206784371724625
250.609,0.0091831001511329
250.61,0.010108112060372577
250.61100000000002,0.00869830429713899
250.61200000000002,0.005338786973064072
250.613,0.0010311740868296762
250.614,0.002873208779207748
250.615,0.0050809485255310415
250.616,0.004777909882319688
250.61700000000002,0.001925383573043998
250.61800000000002,0.002673240017314819
250.619,0.007568913363941989
250.62,0.011076488670767184
250.621,0.011778083731542693
250.622,0.008968651746229205
250.62300000000002,0.0029073350687927255
250.62400000000002,0.0052041340121297625
250.625,0.013513084402777894
250.626,0.019994891198552925
250.627,0.0229830916893896
250.62800000000001,0.0216027413850639
250.62900000000002,0.01599111209733182
250.63000000000002,0.007253868569653185
250.631,0.0028198333362617067
250.632,0.01219614826636253
250.633,0.019067562779039544
250.63400000000001,0.02223659921260812
250.63500000000002,0.02132720776518419
250.63600000000002,0.016792336834428715
250.637,0.009741072093650474
250.638,0.001649378145966887
250.639,0.005964303952582872
250.64000000000001,0.011824241218194287
250.64100000000002,0.01509329342639653
250.642,0.015460349630906891
250.643,0.013127264238159596
250.644,0.008719767259809946
250.645,0.0031514124937002046
250.64600000000002,0.002534373774447284
250.64700000000002,0.007325970424955835
250.648,0.010395456428200285
250.649,0.011227401723054644
250.65,0.009708289082484754
250.651,0.00615817413808872
250.65200000000002,0.0012892427023012216
250.65300000000002,0.0039134410806844185
250.654,0.008376572133906541
250.655,0.011157165516118547
250.656,0.01164918372364594
250.657,0.009728647719123398
250.65800000000002,0.005797647202822714
250.65900000000002,0.0007100203900182458
250.66,0.00440945135643028
250.661,0.008412883971285494
250.662,0.010386662072136524
250.663,0.009857654555330858
250.66400000000002,0.006900146238636274
250.66500000000002,0.0021199091943427165
250.666,0.003478627303146557
250.667,0.00870957278749847
250.668,0.012457419677401023
250.669,0.01390924793681648
250.67000000000002,0.012720574418527385
250.67100000000002,0.009084448787750768
250.672,0.003693698619043042
250.673,0.0023939742745596937
250.674,0.007962146352264481
250.675,0.011876051700444638
250.67600000000002,0.013314482594001403
250.67700000000002,0.011950334764685657
250.678,0.008042620982574236
250.679,0.0024149172518029595
250.68,0.0036861735383924292
250.681,0.008835381257650448
250.68200000000002,0.011734062842968403
250.68300000000002,0.011514533145915818
250.684,0.007972854785113899
250.685,0.0016672939199738025
250.686,0.006154781983296896
250.687,0.013799420292118956
250.68800000000002,0.019491839831393038
250.68900000000002,0.021782769904540287
250.69,0.01989547641152389
250.691,0.013922816619233499
250.692,0.004819144635357582
250.693,0.005814859023647871
250.69400000000002,0.016100105998866392
250.69500000000002,0.024302963368855374
250.696,0.02920302040955485
250.697,0.030310229887508148
250.698,0.02788246805138877
250.699,0.022754355926456984
250.70000000000002,0.016043429257360704
250.70100000000002,0.008832784887605772
250.702,0.0019295822356652783
250.703,0.0042335367188760095
250.704,0.00954073057289812
250.705,0.014022058304103406
250.70600000000002,0.01765213190116361
250.70700000000002,0.020209828341478015
250.708,0.021265192986816863
250.709,0.02030892783593357
250.71,0.016981786463820966
250.711,0.01131691852824337
250.71200000000002,0.003894523697309723
250.71300000000002,0.004168531170805602
250.714,0.011417843805802108
250.715,0.016406829647022676
250.716,0.01808986623406007
250.717,0.016139491030400275
250.71800000000002,0.01107958648757493
250.71900000000002,0.004179704647091919
250.72,0.0028700449648956304
250.721,0.008413046349029734
250.722,0.011274687124858622
250.723,0.0110693294167331
250.72400000000002,0.008272134726635152
250.72500000000002,0.004035227962126041
250.726,0.00019213025802374098
250.727,0.003118584893047696
250.728,0.003998083588195142
250.729,0.002830756197928682
250.73000000000002,0.00032022217490027514
250.73100000000002,0.002390746171572585
250.732,0.0041142241190861495
250.733,0.004010412943627588
250.734,0.0018548282323581295
250.735,0.001900449638675696
250.73600000000002,0.006281609859309957
250.73700000000002,0.010104192024638548
250.738,0.012333488212239735
250.739,0.01237777765145592
250.74,0.010227229193299919
250.741,0.006407619962799794
250.74200000000002,0.0017807535230485016
250.74300000000002,0.002729153402702511
250.744,0.006387139818305928
250.745,0.008798989383651283
250.746,0.009927852502999698
250.747,0.00999324576705481
250.74800000000002,0.009310441996741485
250.74900000000002,0.0081434407232656
250.75,0.006630126856149655
250.751,0.0048012065585845065
250.752,0.002670780237103691
250.75300000000001,0.0003439175218578007
250.75400000000002,0.0019214477653797305
250.75500000000002,0.0037412030467038
250.756,0.004723409680989918
250.757,0.004637604998016142
250.758,0.0035646929375285435
250.75900000000001,0.0019547962969506793
250.76000000000002,0.0005485070600744483
250.76100000000002,0.00016650203767261702
250.762,0.001425697787116953
250.763,0.0044766451731027964
250.764,0.008861357883673284
250.76500000000001,0.013558887916608068
250.76600000000002,0.017226548312627026
250.767,0.018577196902174974
250.768,0.01678096491987663
250.769,0.011762573362064564
250.77,0.004290981996838207
250.77100000000002,0.004179985062380765
250.77200000000002,0.01188261609127731
250.773,0.017210799637173896
250.774,0.01915613571712694
250.775,0.01757015574748917
250.776,0.013171678718318832
250.77700000000002,0.0072990824807474715
250.77800000000002,0.0014887947395388632
250.779,0.0029834804063166792
250.78,0.005451954417179801
250.781,0.005991724263611538
250.782,0.00529697556541058
250.78300000000002,0.004357051869984097
250.78400000000002,0.004048610832569746
250.785,0.0047892198060054065
250.786,0.006375126563987949
250.787,0.008061080953952828
250.788,0.008854852485309381
250.78900000000002,0.00792243696806737
250.79000000000002,0.004958187714565173
250.791,0.00038204350774968804
250.792,0.004718132730485772
250.793,0.008895285626761878
250.794,0.01081166208791646
250.79500000000002,0.009715932889796473
250.79600000000002,0.005766360429462758
250.797,7.9570432491986e-05
250.798,0.0055319997573552845
250.799,0.009071867967425453
250.8,0.008975160207510952
250.80100000000002,0.0046422873865900795
250.80200000000002,0.0032791991278626384
250.803,0.012965435064149548
250.804,0.02183868182116687
250.805,0.027235743430556656
250.806,0.02714091886563798
250.80700000000002,0.020777905588070127
250.80800000000002,0.008890206835915232
250.809,0.006375862079518327
250.81,0.021961802883902915
250.811,0.03463404085563628
250.812,0.04177253976480501
250.81300000000002,0.04200251384047305
250.81400000000002,0.03550485034050557
250.815,0.02392922410358953
250.816,0.009941349591129803
250.817,0.003467585155708474
250.818,0.013721705036963416
250.81900000000002,0.019256593108273663
250.82000000000002,0.019821393427699733
250.821,0.01642164544839094
250.822,0.010936380482733585
250.823,0.005529038867660322
250.824,0.0020221425132855297
250.82500000000002,0.0014079455845477915
250.82600000000002,0.003622574211181918
250.827,0.007633324873175373
250.828,0.011800281952439295
250.829,0.014398891419965582
250.83,0.01414962579293254
250.83100000000002,0.010604451680660482
250.83200000000002,0.004285050877299717
250.833,0.003459238484637513
250.834,0.010826217708976021
250.835,0.016057127897375033
250.836,0.017912782617329252
250.83700000000002,0.015998175978195316
250.83800000000002,0.010851036476219145
250.839,0.003778635466285745
250.84,0.003502334778508165
250.841,0.009315983992246517
250.842,0.012441310156279002
250.84300000000002,0.012381216218208296
250.84400000000002,0.009424737209917206
250.845,0.004502551195413953
250.846,0.0011067149135209383
250.847,0.00612545182238108
250.848,0.009581337350423297
250.84900000000002,0.010990788347462048
250.85000000000002,0.010389465380740587
250.851,0.008226415777999888
250.852,0.005176067148979684
250.853,0.0019378263903196192
250.854,0.000916274402061741
250.85500000000002,0.0030136821001573526
250.85600000000002,0.004176043225801172
250.857,0.004367673011008573
250.858,0.003640220296898663
250.859,0.00210731683665258
250.86,4.060970594623599e-05
250.86100000000002,0.0024987733059682817
250.86200000000002,0.004824165773103678
250.863,0.0064631954310694585
250.864,0.006850376898069729
250.865,0.005566065091568872
250.866,0.0025087961090208386
250.86700000000002,0.0019815857157217424
250.86800000000002,0.007110199713861742
250.869,0.01175454754789156
250.87,0.014719351909282976
250.871,0.015057697625973513
250.872,0.012365411140548547
250.87300000000002,0.006952414432316946
250.87400000000002,0.00017563396493472643
250.875,0.007537134332484329
250.876,0.013544084282772442
250.877,0.016918849258946572
250.87800000000001,0.0170354013860301
250.87900000000002,0.014080983899760452
250.88000000000002,0.008987305685612347
250.881,0.003151466347503252
250.882,0.0019672957028072976
250.883,0.005250293914873572
250.88400000000001,0.006198670325640983
250.88500000000002,0.0050085417986078405
250.88600000000002,0.00242964953635808
250.887,0.0005334646259976739
250.888,0.0029686990664071406
250.889,0.0043314398868197854
250.89000000000001,0.004557483942423913
250.89100000000002,0.003985730557582702
250.892,0.003133319001762436
250.893,0.002420096754187402
250.894,0.0019571212433126626
250.895,0.0014884275484840458
250.89600000000002,0.0005152757892403028
250.89700000000002,0.0014409172022986502
250.898,0.0045398518752381555
250.899,0.008413214252558787
250.9,0.012146285573430216
250.901,0.014486923601148541
250.90200000000002,0.014235111030053673
250.90300000000002,0.010693112300418433
250.904,0.0040204075637422735
250.905,0.004645805790728791
250.906,0.013376998372779997
250.907,0.019921960198671023
250.90800000000002,0.022336846455971743
250.90900000000002,0.019592627571340553
250.91,0.011968616974561952
250.911,0.0010943410335796813
250.912,0.010398002091869725
250.913,0.01953181354942109
250.91400000000002,0.02377948731898109
250.91500000000002,0.021768452455659653
250.916,0.013695978147857566
250.917,0.001328214748865693
250.918,0.012424222460777314
250.919,0.02424212158714004
250.92000000000002,0.031245622463498275
250.92100000000002,0.031724923038083726
250.922,0.025559539854400393
250.923,0.014220537278374924
250.924,0.0003655652686030544
250.925,0.012854591693943197
250.92600000000002,0.022586975002809328
250.92700000000002,0.026956454815998048
250.928,0.025465502299844414
250.929,0.019026450383574693
250.93,0.009639110174581772
250.931,0.00018284849730492323
250.93200000000002,0.008075470077785946
250.93300000000002,0.012404148048661514
250.934,0.012617892804871769
250.935,0.009302688522084115
250.936,0.003938731666031992
250.937,0.0015596879569180471
250.93800000000002,0.0053927741724265985
250.93900000000002,0.006367509630343798
250.94,0.004208959155385317
250.941,0.00038455108369176257
250.942,0.005951252558334114
250.943,0.010682524464258204
250.94400000000002,0.012935811219548595
250.94500000000002,0.011708430853573818
250.946,0.006945427641989182
250.947,0.00040442888512816567
250.948,0.008606102259778169
250.949,0.015578492066550527
250.95000000000002,0.019444783719820044
250.95100000000002,0.019046036531537122
250.952,0.014275448652766639
250.953,0.006135015263586315
250.954,0.003509463720132155
250.955,0.012414344052840729
250.95600000000002,0.018553291923657393
250.95700000000002,0.02065427560564655
250.958,0.018523624859912335
250.959,0.013061853234642228
250.96,0.005966307208385329
250.961,0.0007896731213617581
250.96200000000002,0.005542024502642025
250.96300000000002,0.0074054357263981735
250.964,0.00648233416537373
250.965,0.0037493360274584234
250.966,0.000663395813140565
250.967,0.0013778617410869225
250.96800000000002,0.0015379014530324945
250.96900000000002,0.00016713259000605986
250.97,0.00288923338611571
250.971,0.005277494858456496
250.972,0.006003302379741533
250.973,0.004297924964114705
250.97400000000002,0.00030845422042679726
250.97500000000002,0.004864955426269855
250.976,0.009480790770032317
250.977,0.011725732069326113
250.978,0.010356546809855474
250.979,0.0051948955437971745
250.98000000000002,0.0027040359170837766
250.98100000000002,0.011284929261520391
250.982,0.018070819610960683
250.983,0.020911825539237396
250.984,0.01866669233279438
250.985,0.011594980252475181
250.98600000000002,0.00132727275193097
250.98700000000002,0.009584289187118199
250.988,0.01839722974049285
250.989,0.022962912486067615
250.99,0.022319235726451392
250.991,0.016912166319832285
250.99200000000002,0.00838937605248478
250.99300000000002,0.0009514754214051847
250.994,0.008868760925207005
250.995,0.01380449239587931
250.996,0.015238578117434025
250.997,0.01367700138141447
250.99800000000002,0.010310707555725024
250.99900000000002,0.006492893447140062
251.0,0.00323628441140065
251.001,0.000911499756247168
251.002,0.0007576460505302621
251.00300000000001,0.0024232882598569415
251.00400000000002,0.004693827931416
251.00500000000002,0.007746720958477031
251.006,0.011139129451375662
251.007,0.013902009559839066
251.008,0.014889896983844169
251.00900000000001,0.013254826439163548
251.01000000000002,0.008858141020199212
251.01100000000002,0.0024499753587988193
251.012,0.004471785450347068
251.013,0.010092807996765103
251.014,0.012862430522578723
251.01500000000001,0.012019131920445542
251.01600000000002,0.007869465239428865
251.017,0.0017114318437485424
251.018,0.004581352151055147
251.019,0.009175542521857016
251.02,0.010879750927670148
251.02100000000002,0.009518955581699892
251.02200000000002,0.005947262361136244
251.023,0.001693718144559156
251.024,0.0016307677151116626
251.025,0.0029483204265556943
251.026,0.002122483113639402
251.02700000000002,3.9977497043068484e-06
251.02800000000002,0.0019109376444191245
251.029,0.002091334769824177
251.03,0.00037138414522664554
251.031,0.005307260243425748
251.032,0.011395771918019
251.03300000000002,0.016527519848854373
251.03400000000002,0.018493280657262585
251.035,0.01577106074637168
251.036,0.008136616659938159
251.037,0.003126266926875084
251.038,0.015508259135284029
251.03900000000002,0.02597507839864642
251.04000000000002,0.03186629403258187
251.041,0.031700150997395926
251.042,0.025619134096585325
251.043,0.015328871102421955
251.044,0.003551842889245129
251.04500000000002,0.006820780644106575
251.04600000000002,0.013596809437854846
251.047,0.01588561530524538
251.048,0.01424597549901614
251.049,0.010348152040786084
251.05,0.006285975852069667
251.05100000000002,0.00379162014824069
251.05200000000002,0.003632569346539179
251.053,0.005398674819098481
251.054,0.0077434342363277035
251.055,0.008979227242280553
251.056,0.007799580593016584
251.05700000000002,0.0038572753326935397
251.05800000000002,0.0020195336271048767
251.059,0.00805948208858599
251.06,0.012152098553838335
251.061,0.012611668831111133
251.062,0.00882794802745537
251.06300000000002,0.0015667666045936644
251.06400000000002,0.007196316297686397
251.065,0.014864071583360372
251.066,0.019034870823954397
251.067,0.01827567694633981
251.068,0.012590619713046296
251.06900000000002,0.0034277865676599502
251.07000000000002,0.0067769385014662
251.071,0.015364705104208001
251.072,0.020271574101870495
251.073,0.020630601446991078
251.074,0.016967307043098092
251.07500000000002,0.010938598188827541
251.07600000000002,0.004719486785518432
251.077,0.00025651479229337235
251.078,0.0013565106519786737
251.079,0.00017647318104071136
251.08,0.002701870023772458
251.08100000000002,0.005609769741492688
251.08200000000002,0.006941508376329935
251.083,0.005734485369877296
251.084,0.001992080056334981
251.085,0.003352416634770496
251.086,0.008801973049650911
251.08700000000002,0.012847648052724507
251.08800000000002,0.014501157259771181
251.089,0.013617481458550774
251.09,0.010898428619304425
251.091,0.00758611135752046
251.092,0.0049668596884220725
251.09300000000002,0.0038716912642047336
251.09400000000002,0.0043569614646361485
251.095,0.005680738174099524
251.096,0.00658243649503848
251.097,0.005764412691695984
251.098,0.00240298216205272
251.09900000000002,0.0034930589344484607
251.10000000000002,0.01100392298039231
251.101,0.018530061305911182
251.102,0.024256668094818582
251.103,0.026697239213157253
251.104,0.025138512163975175
251.10500000000002,0.019846181840693793
251.10600000000002,0.011973545835051967
251.107,0.003213761305836008
251.108,0.004683314083781125
251.109,0.010372799735184927
251.11,0.013216103367449026
251.11100000000002,0.013345472158825034
251.11200000000002,0.011498189869469082
251.113,0.008700325734490965
251.114,0.0059197864775479584
251.115,0.0038037570027372454
251.116,0.002572045558576304
251.11700000000002,0.0020743474159599247
251.11800000000002,0.001960609491075607
251.119,0.0018804276126109056
251.12,0.0016295341520611499
251.121,0.0011947240729939623
251.122,0.000697285939567133
251.12300000000002,0.00027857502411046225
251.12400000000002,7.4380391121574196e-06
251.125,0.00023832407303544677
251.126,0.0005809440241103035
251.127,0.001182613130710447
251.12800000000001,0.002049512372632653
251.12900000000002,0.002976460074927238
251.13000000000002,0.003573721163284057
251.131,0.0033962400037282673
251.132,0.002134616474361773
251.133,0.000205667847214249
251.13400000000001,0.0032153591886615973
251.13500000000002,0.006134790764300051
251.13600000000002,0.008051293618887465
251.137,0.008186836651387735
251.138,0.006181960832770829
251.139,0.002273729885147075
251.14000000000001,0.0027059630145937165
251.14100000000002,0.00752805437387919
251.142,0.010909333085526305
251.143,0.01189715113246132
251.144,0.010172326835773293
251.145,0.006168462670026443
251.14600000000002,0.0009630615801681163
251.14700000000002,0.004030238195951686
251.148,0.00747323303862951
251.149,0.008488493114222782
251.15,0.00689663240499185
251.151,0.003232683299721259
251.15200000000002,0.0014578216091499104
251.15300000000002,0.005969528581483254
251.154,0.009313633340979859
251.155,0.010993000867264043
251.156,0.011086867567062278
251.157,0.010124315472592259
251.15800000000002,0.008800951460387922
251.15900000000002,0.007649147422000001
251.16,0.0067891039657213504
251.161,0.005859548956911478
251.162,0.004162393564266746
251.163,0.0009770886784186321
251.16400000000002,0.004065047507617832
251.16500000000002,0.010685400773288837
251.166,0.017861931762019955
251.167,0.023991349458936696
251.168,0.027283595399992425
251.169,0.026281808041025957
251.17000000000002,0.020351330306193124
251.17100000000002,0.009980382331398691
251.172,0.0032153377299325965
251.173,0.016806079252616308
251.174,0.02810583521333775
251.175,0.034825251281822706
251.17600000000002,0.035638639072426176
251.17700000000002,0.03050642585837143
251.178,0.02066419531565815
251.179,0.008285432444140891
251.18,0.004082115974080507
251.181,0.014144923720522947
251.18200000000002,0.02038299110602762
251.18300000000002,0.022325137616175734
251.184,0.020522827163992088
251.185,0.01625578763967258
251.186,0.01107852822352583
251.187,0.006355228575144218
251.18800000000002,0.0029213439365663872
251.18900000000002,0.0009589606628966069
251.19,9.792413258017353e-05
251.191,0.0003186849576200297
251.192,0.000914350567843221
251.193,0.0020223347879131577
251.19400000000002,0.0035784907930051925
251.19500000000002,0.005190169763400818
251.196,0.0063418832403370744
251.197,0.006649407935378586
251.198,0.006058508513905215
251.199,0.004907098910141925
251.20000000000002,0.0038218333201249896
251.20100000000002,0.003482980991306638
251.202,0.004342528692560224
251.203,0.006401447386525517
251.204,0.009135108269322312
251.205,0.011606311000513231
251.20600000000002,0.012740099121530072
251.20700000000002,0.011676003331509572
251.208,0.00808209201969984
251.209,0.002322659228532371
251.21,0.0045841234904051625
251.211,0.0112150675304344
251.21200000000002,0.016126175565978455
251.21300000000002,0.018255617662858686
251.214,0.01722108882062497
251.215,0.01341980902484179
251.216,0.00790182323615234
251.217,0.002058752704744254
251.21800000000002,0.0027728631265546873
251.21900000000002,0.005670574461967809
251.22,0.006340734490877303
251.221,0.005132643120984014
251.222,0.0028624771331394413
251.223,0.0005174684424891242
251.22400000000002,0.0010555980360614104
251.22500000000002,0.001376689611714823
251.226,0.00041001303240292396
251.227,0.0015141729334953945
251.228,0.003884972557933045
251.229,0.006220980827004489
251.23000000000002,0.008221266096184426
251.23100000000002,0.009803913103239437
251.232,0.011028655906090775
251.233,0.011949557390841713
251.234,0.012473429530961573
251.235,0.012298055792227829
251.23600000000002,0.010971643833938121
251.23700000000002,0.008063690156304175
251.238,0.0033874416356726037
251.239,0.0028146899843157188
251.24,0.009806673857036778
251.241,0.016461040442281895
251.24200000000002,0.021514481577391546
251.24300000000002,0.023905348659111907
251.244,0.023085723564535664
251.245,0.01920187221346475
251.246,0.013076289416039645
251.247,0.005989487538342664
251.24800000000002,0.0006723517197496373
251.24900000000002,0.0057910987814655404
251.25,0.00879097629316755
251.251,0.009726938498618153
251.252,0.009165680376717122
251.25300000000001,0.007910639675701164
251.25400000000002,0.006676671440070577
251.25500000000002,0.0058359192044961945
251.256,0.005327556198595278
251.257,0.004760640614904937
251.258,0.0036644135935959814
251.25900000000001,0.0017818076214422978
251.26000000000002,0.0007178667021848749
251.26100000000002,0.0032035903907591747
251.262,0.0047552795930115
251.263,0.004494184833145167
251.264,0.0019549460108782024
251.26500000000001,0.002642325514725019
251.26600000000002,0.008335328224789171
251.267,0.01362283621463888
251.268,0.01688112906679433
251.269,0.016866977432695877
251.27,0.013141756514809269
251.27100000000002,0.0062690058802096155
251.27200000000002,0.0022920869259063204
251.273,0.010575190376646027
251.274,0.01666020195419002
251.275,0.01921714425225454
251.276,0.017867389270241833
251.27700000000002,0.013248947680206414
251.27800000000002,0.006771060869401894
251.279,0.000146490344914081
251.28,0.005138019527590522
251.281,0.008236519856233327
251.282,0.00911232839943516
251.28300000000002,0.008418390670733442
251.28400000000002,0.007149965355173248
251.285,0.006208325888649538
251.286,0.006040806521913426
251.287,0.0064886612828587336
251.288,0.006892912310612324
251.28900000000002,0.006409874483041017
251.29000000000002,0.004408742393190854
251.291,0.0007927641312671549
251.292,0.00388550594542555
251.293,0.008566288561461698
251.294,0.012035133638224579
251.29500000000002,0.013357252855169241
251.29600000000002,0.012230373105415878
251.297,0.009119151375506993
251.298,0.005112505843877967
251.299,0.0015472789484106027
251.3,0.00047003861762121013
251.30100000000002,0.0004702341479043997
251.30200000000002,0.0011948573916269476
251.303,0.0034656861720570448
251.304,0.004952626808762829
251.305,0.0044480472491523065
251.306,0.001391131758847552
251.30700000000002,0.0038831059862511714
251.30800000000002,0.01020491235676058
251.309,0.015925903974210502
251.31,0.019449772145544116
251.311,0.019753943373001466
251.312,0.016720672881357274
251.31300000000002,0.011163190258637344
251.31400000000002,0.004540792445115057
251.315,0.001532794253633582
251.316,0.005810875835714257
251.317,0.007779849409717645
251.318,0.007743695428390385
251.31900000000002,0.006605680553761993
251.32000000000002,0.005438426532517503
251.321,0.0050118911923422195
251.322,0.005463983561031609
251.323,0.006244332885601204
251.324,0.006357580042938956
251.32500000000002,0.004816649755289483
251.32600000000002,0.0011319416294559078
251.327,0.004358459255357942
251.328,0.010460235621864619
251.329,0.01543078545914556
251.33,0.0175333353982305
251.33100000000002,0.01565006773996672
251.33200000000002,0.009735058688570929
251.333,0.0009343281847404924
251.334,0.008689005488179538
251.335,0.016749496868475787
251.336,0.021264119393032636
251.33700000000002,0.021265573783517334
251.33800000000002,0.017094592800821446
251.339,0.01026744403418776
251.34,0.0029588153723090747
251.341,0.0027272994442883694
251.342,0.005451644705901363
251.34300000000002,0.005061820014497196
251.34400000000002,0.0025978521165735346
251.345,0.00012044807822530083
251.346,0.0011815734496418513
251.347,0.0006928107504280802
251.348,0.00563883887573354
251.34900000000002,0.012536822397634196
251.35000000000002,0.019337567980625008
251.351,0.023722614418290572
251.352,0.023877991391356008
251.353,0.019121959415161035
251.354,0.010176242927604577
251.35500000000002,0.0010098854058888907
251.35600000000002,0.011824153114061344
251.357,0.019758473423718885
251.358,0.023129778239557683
251.359,0.021527009502285983
251.36,0.015853493981071196
251.36100000000002,0.007971057931630405
251.36200000000002,8.203442768885371e-05
251.363,0.005936116823226946
251.364,0.009026437890327685
251.365,0.009132712172358897
251.366,0.007036240431545571
251.36700000000002,0.003941666893614733
251.36800000000002,0.0009853345917932846
251.369,0.0011461988794665208
251.37,0.0023549768020145988
251.371,0.0029971097289041167
251.372,0.003553765824680882
251.37300000000002,0.0042627801134325115
251.37400000000002,0.004880608961097921
251.375,0.0046920512812313265
251.376,0.002785303643332975
251.377,0.0015004157084483741
251.37800000000001,0.008126839931828255
251.37900000000002,0.016098003016955735
251.38000000000002,0.023527442983976493
251.381,0.028059673463802375
251.382,0.02754765426045775
251.383,0.02078652213684465
251.38400000000001,0.008064089509156233
251.38500000000002,0.00867286958857467
251.38600000000002,0.026130072247682823
251.387,0.04040449483948481
251.388,0.04796472331599993
251.389,0.04660369161820379
251.39000000000001,0.036090358339691785
251.39100000000002,0.018324602133103985
251.392,0.003063244119174686
251.393,0.02357094786915552
251.394,0.03891523198126741
251.395,0.046065248265286324
251.39600000000002,0.043947211986039486
251.39700000000002,0.0336421501432619
251.398,0.018038842184549708
251.399,0.0010500541330813848
251.4,0.013388693876394547
251.401,0.02227136288894038
251.40200000000002,0.024184535848719917
251.40300000000002,0.019530082208008642
251.404,0.010279378128539145
251.405,0.0006460379665195924
251.406,0.010182844425649502
251.407,0.015903695605463893
251.40800000000002,0.016569291674023823
251.40900000000002,0.012332975414515751
251.41,0.004575147308189119
251.411,0.004558132040585519
251.412,0.01276791781238844
251.413,0.018195077269573697
251.41400000000002,0.019841151138738206
251.41500000000002,0.017723440023724807
251.416,0.012748498606647866
251.417,0.006364793848307049
251.418,0.00011018132317578685
251.419,0.004810301931965328
251.42000000000002,0.007799553156075579
251.42100000000002,0.00893003774046189
251.422,0.008792344597149723
251.423,0.008194861491785525
251.424,0.007821281872837857
251.425,0.007961777438788186
251.42600000000002,0.008406950095479879
251.42700000000002,0.008539204962365278
251.428,0.007590504597526097
251.429,0.004978904056638308
251.43,0.0006069219534887536
251.431,0.004987130383333492
251.43200000000002,0.010689505856798549
251.43300000000002,0.015080151395796468
251.434,0.016837745036475147
251.435,0.015158128119522628
251.436,0.010051489429625996
251.437,0.0024148622757973856
251.43800000000002,0.0061570404745074706
251.43900000000002,0.013777938226530805
251.44,0.018777396311393496
251.441,0.020157359520910453
251.442,0.017856808733655513
251.443,0.012740579893996701
251.44400000000002,0.006314168649559967
251.44500000000002,0.0002536270513711694
251.446,0.00410023330843265
251.447,0.006121726266091502
251.448,0.006033214367222051
251.449,0.004751181490508182
251.45000000000002,0.0035010392534310588
251.45100000000002,0.0033342729011398477
251.452,0.004715472043617664
251.453,0.007324331823077366
251.454,0.010145401892355837
251.455,0.011819861723707407
251.45600000000002,0.0111420182399043
251.45700000000002,0.007530026388664729
251.458,0.0013045632737812213
251.459,0.006329344815466131
251.46,0.01360320629734739
251.461,0.01871112794123158
251.46200000000002,0.020370906371240477
251.46300000000002,0.018233598789578236
251.464,0.013001624428033159
251.465,0.006210468480128485
251.466,0.0002588476029898705
251.467,0.004777932121173571
251.46800000000002,0.006481823318193878
251.46900000000002,0.005521274861222927
251.47,0.002970468870052854
251.471,0.0004195421467586052
251.472,0.0006114799320623939
251.473,0.0007618541080280324
251.47400000000002,0.004438921715711271
251.47500000000002,0.009325838600208244
251.476,0.013680304845957109
251.477,0.015701476991539263
251.478,0.014171099725762934
251.479,0.008929585390842043
251.48000000000002,0.0010199417117537457
251.48100000000002,0.007561772452952263
251.482,0.01444252791570059
251.483,0.017599141899847178
251.484,0.016006459463393706
251.485,0.009997381257585885
251.48600000000002,0.0012128543951322665
251.48700000000002,0.007852270665038408
251.488,0.014574352417682323
251.489,0.01697770179368959
251.49,0.014325933377241435
251.491,0.0073472175649198735
251.49200000000002,0.001974931280193501
251.49300000000002,0.01098085518535016
251.494,0.01710772572785446
251.495,0.01862385762384352
251.496,0.015107735836002854
251.497,0.0075366646861204116
251.49800000000002,0.002029422777090066
251.49900000000002,0.011061889768636882
251.5,0.01728287733296225
251.501,0.019274590541115057
251.502,0.016805665938641377
251.50300000000001,0.010795742615613847
251.50400000000002,0.0029529628370505447
251.50500000000002,0.004783589848635552
251.506,0.010813134651461925
251.507,0.014279280704918495
251.508,0.01520112209079924
251.50900000000001,0.014312478055681746
251.51000000000002,0.012687564865506169
251.51100000000002,0.01129607905996463
251.512,0.010645210220936067
251.513,0.010627715241492381
251.514,0.010618441901669494
251.51500000000001,0.009773310764533104
251.51600000000002,0.007414647058845952
251.517,0.00335813180983629
251.518,0.0019414276454809737
251.519,0.007483745513652464
251.52,0.012029315998624718
251.52100000000002,0.01451493756264285
251.52200000000002,0.014433364755555258
251.523,0.01203966843431289
251.524,0.008302426757497526
251.525,0.004603448044183025
251.526,0.0022771098246862436
251.52700000000002,0.0021400657926800805
251.52800000000002,0.004172960632305806
251.529,0.0074724675417543246
251.53,0.01050683440752765
251.531,0.011607873611771348
251.532,0.00954957383168226
251.53300000000002,0.004026287790495808
251.53400000000002,0.004134112393567358
251.535,0.013109476153941719
251.536,0.020553213587164273
251.537,0.024265927456699164
251.538,0.022869736415275205
251.53900000000002,0.016276457060170894
251.54000000000002,0.005796757709455152
251.541,0.006156808246499908
251.542,0.01669655756975744
251.543,0.023237467921997993
251.544,0.024198563401759954
251.54500000000002,0.019421651425411607
251.54600000000002,0.010186310853989805
251.547,0.001177329053910357
251.548,0.011955002818201157
251.549,0.019789035055107297
251.55,0.02327196683495908
251.55100000000002,0.022225002847176118
251.55200000000002,0.017598190923794065
251.553,0.011050939076209791
251.554,0.004369774770186823
251.555,0.0010766938061690225
251.556,0.004670783226480521
251.55700000000002,0.006574919893443544
251.55800000000002,0.007476302399945077
251.559,0.008166318512202446
251.56,0.009128025236997534
251.561,0.010294686565885584
251.562,0.011072226353802544
251.56300000000002,0.010614402964626523
251.56400000000002,0.008239747124011045
251.565,0.003820749272422703
251.566,0.002019211907089362
251.567,0.007997669736847261
251.568,0.012542657090983093
251.56900000000002,0.014321091982781801
251.57000000000002,0.012738427639173771
251.571,0.008220003450111474
251.572,0.0021526934083385147
251.573,0.003517962714892738
251.574,0.006915159544969174
251.57500000000002,0.006874592605245693
251.57600000000002,0.0033783706842405443
251.577,0.002385335504289616
251.578,0.008378022844656751
251.579,0.012379302113616852
251.58,0.012751043291040659
251.58100000000002,0.009036729611142174
251.58200000000002,0.002181050907512862
251.583,0.0057231293472678225
251.584,0.0120942036033296
251.585,0.014719136583722507
251.586,0.012524406001234676
251.58700000000002,0.005995312011079229
251.58800000000002,0.002911452024621261
251.589,0.011350827495050753
251.59,0.016489684261115863
251.591,0.01643467232178349
251.592,0.01088131955403022
251.59300000000002,0.0012637262500376654
251.59400000000002,0.009654896345800265
251.595,0.01862731926809739
251.596,0.022934875324702467
251.597,0.021242028357449164
251.598,0.014017013370591568
251.59900000000002,0.003383057637503058
251.60000000000002,0.007550505119430594
251.601,0.01565996922827227
251.602,0.0187688443953628
251.603,0.016293689252826687
251.604,0.00937540823110497
251.60500000000002,0.00046679870170530485
251.60600000000002,0.007477484301616201
251.607,0.011938955371223562
251.608,0.011599483555916041
251.609,0.006696671237425869
251.61,0.0011237802638156139
251.61100000000002,0.00938728271993661
251.61200000000002,0.015594746699177509
251.613,0.01798463609476681
251.614,0.0160146547760858
251.615,0.01043066917326152
251.616,0.0029329810146018877
251.61700000000002,0.004420273339398761
251.61800000000002,0.009858663966284875
251.619,0.01238268122448522
251.62,0.011946584709078495
251.621,0.009316482496471388
251.622,0.005691068614717462
251.62300000000002,0.0022437463905420354
251.62400000000002,0.0002461418656302653
251.625,0.0015566464438277776
251.626,0.0019530373432059998
251.627,0.0019459469693015473
251.62800000000001,0.001997734404736315
251.62900000000002,0.0023039157945678418
251.63000000000002,0.0027334385592079993
251.631,0.0029386051413406882
251.632,0.0025730448546677337
251.633,0.0015129805549141835
251.63400000000001,2.093993259514259e-05
251.63500000000002,0.0014993234614207927
251.63600000000002,0.0022674012868498902
251.637,0.0018032516165625836
251.638,5.4552813039287095e-05
251.639,0.0030045624672044038
251.64000000000001,0.006350622369237822
251.64100000000002,0.009217981195186223
251.642,0.010835805469157085
251.643,0.010778431661726411
251.644,0.009074912969802488
251.645,0.006150087933688855
251.64600000000002,0.002628798490596738
251.64700000000002,0.0009098864634225189
251.648,0.004122423438837961
251.649,0.006953932223333399
251.65,0.009534522207724177
251.651,0.011969609682653861
251.65200000000002,0.014126972958941782
251.65300000000002,0.015533088154482464
251.654,0.015452092440514036
251.655,0.013145522912134316
251.656,0.008228437915334558
251.657,0.0009813804006827671
251.65800000000002,0.007526454960112712
251.65900000000002,0.0155926746374527
251.66,0.021307775104833025
251.661,0.023137177789680927
251.662,0.020469313288969962
251.663,0.01392785765360228
251.66400000000002,0.005307849293053277
251.66500000000002,0.002885550019534368
251.666,0.008179034665571213
251.667,0.008928795677852699
251.668,0.004910513612624847
251.669,0.0025112716293765698
251.67000000000002,0.01072045465919965
251.67100000000002,0.016615336371334635
251.672,0.017578561538188014
251.673,0.012347725275843853
251.674,0.001502359436891184
251.675,0.01260325072001728
251.67600000000002,0.026458646200370455
251.67700000000002,0.03638769119132385
251.678,0.03960992339616869
251.679,0.03504616003914622
251.68,0.02362151641303263
251.681,0.007978178704801633
251.68200000000002,0.008303487807143637
251.68300000000002,0.021724847163451532
251.684,0.02981076616702397
251.685,0.03169013492647447
251.686,0.028158365410413704
251.687,0.02123764544066388
251.68800000000002,0.01341090755418157
251.68900000000002,0.006800445604513277
251.69,0.002562601978250147
251.691,0.0006796499031948368
251.692,0.0001834105450992205
251.693,0.0003051767850450975
251.69400000000002,0.0019384738349709717
251.69500000000002,0.005145238089050807
251.696,0.009448784286021045
251.697,0.013651592796011853
251.698,0.016302046968389234
251.699,0.016259432581050347
251.70000000000002,0.013144154118392605
251.70100000000002,0.0075091905969822065
251.702,0.0006756552707634645
251.703,0.005700677968938972
251.704,0.01016940079637063
251.705,0.01193618934175815
251.70600000000002,0.011067437070985455
251.70700000000002,0.008387057974271223
251.708,0.00511817383567483
251.709,0.0024135827457994583
251.71,0.0009537758106164461
251.711,0.0007584076662449645
251.71200000000002,0.0012705285993885624
251.71300000000002,0.0016663110126502224
251.714,0.0012571018676759882
251.715,0.00018231103793373297
251.716,0.0022933867827346697
251.717,0.004271536749505034
251.71800000000002,0.005208123959314065
251.71900000000002,0.004499526455007833
251.72,0.0021552271222668494
251.721,0.0011285815629286096
251.722,0.004175567361162962
251.723,0.005753007664474093
251.72400000000002,0.005061103890443706
251.72500000000002,0.0021019444690672812
251.726,0.0022230695142928638
251.727,0.006345388901400433
251.728,0.008530117117552392
251.729,0.007482514634923681
251.73000000000002,0.002850123573820697
251.73100000000002,0.004563047332268617
251.732,0.012960911747949541
251.733,0.02006081640867471
251.734,0.02378388396619132
251.735,0.02290625517342203
251.73600000000002,0.017455405807542797
251.73700000000002,0.008717868905376257
251.738,0.0011467102398414989
251.739,0.009759211880479584
251.74,0.015227948374849417
251.741,0.016678922775083146
251.74200000000002,0.014442051904421462
251.74300000000002,0.009844551050474142
251.744,0.004696050225009178
251.745,0.0006520635344539584
251.746,0.0013216974141532325
251.747,0.0012035261752439766
251.74800000000002,0.0001882630749708041
251.74900000000002,0.0016053246960472027
251.75,0.0019247516281660543
251.751,0.0006395928119715776
251.752,0.001900397889544874
251.75300000000001,0.004590966075714848
251.75400000000002,0.005986666060235051
251.75500000000002,0.004879162185335627
251.756,0.0008311750636471606
251.757,0.0055331113447344375
251.758,0.012599989663091064
251.75900000000001,0.018196215792897808
251.76000000000002,0.0202490514855483
251.76100000000002,0.017466339759372507
251.762,0.009814112867038522
251.763,0.0013694779375830347
251.764,0.013670664607321832
251.76500000000001,0.0242242156436301
251.76600000000002,0.030480327957506426
251.767,0.03088719786074276
251.768,0.02529214110782305
251.769,0.014954334201425943
251.77,0.002181750972481594
251.77100000000002,0.010285491754999184
251.77200000000002,0.019957442824083772
251.773,0.02515047869522073
251.774,0.025280264488884673
251.775,0.020845706707998908
251.776,0.013153443884279031
251.77700000000002,0.003900795554921314
251.77800000000002,0.00524285146668332
251.779,0.012942348900113807
251.78,0.01833628181071332
251.781,0.021022690960169482
251.782,0.02095429898144441
251.78300000000002,0.01832289159921839
251.78400000000002,0.01349286938558543
251.785,0.007000448467215645
251.786,0.00041158264419628195
251.787,0.007782217482844827
251.788,0.014000114073702767
251.78900000000002,0.017974707001816023
251.79000000000002,0.018884402843961638
251.791,0.01642975942219089
251.792,0.01099791740957377
251.793,0.003658905347408755
251.794,0.004037256555212378
251.79500000000002,0.01042700197552774
251.79600000000002,0.014166105565444133
251.797,0.014599002383985225
251.798,0.011944360693513645
251.799,0.007228734431623984
251.8,0.001978582293337099
251.80100000000002,0.0022399862083223054
251.80200000000002,0.0042918386830552305
251.803,0.0038048483040224205
251.804,0.0012565889549270824
251.805,0.002212440621056438
251.806,0.00519791803081041
251.80700000000002,0.0065118106434018256
251.80800000000002,0.005584938782595997
251.809,0.002658696466003524
251.81,0.0012975931254111145
251.811,0.004916012272002521
251.812,0.0068961785213345235
251.81300000000002,0.006452536025820288
251.81400000000002,0.003593235596419246
251.815,0.000863137289551229
251.816,0.005539797261998848
251.817,0.00894074529887475
251.818,0.009932757037544588
251.81900000000002,0.008112819606392858
251.82000000000002,0.0039416250255879404
251.821,0.0013991948439422937
251.822,0.006378215498883048
251.823,0.009592382365569469
251.824,0.010197907935369645
251.82500000000002,0.008157401545126487
251.82600000000002,0.004228454519818438
251.827,0.0002964761672106501
251.828,0.004009621518491311
251.829,0.005829115487293805
251.83,0.005321408622260755
251.83100000000002,0.002807064962030149
251.83200000000002,0.0007751736305270263
251.833,0.0041930046814129185
251.834,0.006322684761807412
251.835,0.00649741319728559
251.836,0.004693683768028925
251.83700000000002,0.0015040039199954185
251.83800000000002,0.0020849671583616654
251.839,0.005028603366901093
251.84,0.0065620000319103295
251.841,0.0064313944097428065
251.842,0.004950572512406528
251.84300000000002,0.0028721949990171817
251.84400000000002,0.0011225775022067372
251.845,0.0004885673437966001
251.846,0.0013554809721424655
251.847,0.0035745159995496253
251.848,0.006495245994935447
251.84900000000002,0.00914847133140392
251.85000000000002,0.01052243866169979
251.851,0.009852767428778053
251.852,0.006847679840469771
251.853,0.001792126910788898
251.854,0.004491484331160666
251.85500000000002,0.01081254996097734
251.85600000000002,0.015869716179097017
251.857,0.01853871544458627
251.858,0.018129978359555432
251.859,0.014563507795781595
251.86,0.008424111527218702
251.86100000000002,0.000880302725860788
251.86200000000002,0.0065268521095945345
251.863,0.012194354742031191
251.864,0.014813445110471028
251.865,0.013699208833138946
251.866,0.009014377450620756
251.86700000000002,0.0018179400255812735
251.86800000000002,0.0061007676800315025
251.869,0.012593941843923016
251.87,0.015668108948236392
251.871,0.014022703290053147
251.872,0.007472553789179564
251.87300000000002,0.0028776412611806394
251.87400000000002,0.014788045018222817
251.875,0.025365782024405998
251.876,0.031777775364934896
251.877,0.03201883762642236
251.87800000000001,0.02552332711289429
251.87900000000002,0.013431781671824109
251.88000000000002,0.0015938603856695524
251.881,0.015990593520308717
251.882,0.026205817576981292
251.883,0.02965965312959787
251.88400000000001,0.025486701797399817
251.88500000000002,0.014833853246365278
251.88600000000002,0.0006084135214858144
251.887,0.013273642992765265
251.888,0.022941592505855077
251.889,0.025633517043893682
251.89000000000001,0.020466200738637485
251.89100000000002,0.008687458473082187
251.892,0.006665197511447721
251.893,0.02160296757198294
251.894,0.0322793536032389
251.895,0.03602366768605304
251.89600000000002,0.03202048631464717
251.89700000000002,0.0214503586086758
251.898,0.007070239179436534
251.899,0.0076216850879426605
251.9,0.019374240925957298
251.901,0.026028023788219556
251.90200000000002,0.026978303506605666
251.90300000000002,0.023147096781794912
251.904,0.016512693132029913
251.905,0.009379039941815544
251.906,0.0036363320389972286
251.907,0.00024845029303357646
251.90800000000002,0.0008885130593184199
251.90900000000002,0.0007059179547875003
251.91,0.0004589569601459835
251.911,0.0011600551280963965
251.912,0.003158305498302015
251.913,0.0060098183656940385
251.91400000000002,0.008672040366116402
251.91500000000002,0.009936358225980619
251.916,0.008929496376027668
251.917,0.0054937466845536844
251.918,0.0003043297289838032
251.919,0.005319749747083371
251.92000000000002,0.009843179797356412
251.92100000000002,0.012026539714991142
251.922,0.011340497779234304
251.923,0.008135897443676826
251.924,0.003511842508454254
251.925,0.0010684908423582514
251.92600000000002,0.004276164176249067
251.92700000000002,0.005352694233322222
251.928,0.004333039035335789
251.929,0.00198255694393574
251.93,0.0005219365202901602
251.931,0.00204641944428572
251.93200000000002,0.0019226762036835077
251.93300000000002,0.00018784554224089695
251.934,0.0024430955045116236
251.935,0.004857844773756773
251.936,0.005974829281690562
251.937,0.005160878604013348
251.93800000000002,0.002485413698118727
251.93900000000002,0.0012821477897809286
251.94,0.0049321729339652665
251.941,0.007239659707777035
251.942,0.0074028518594897695
251.943,0.00533927919254792
251.94400000000002,0.001733299842219857
251.94500000000002,0.00218321671673224
251.946,0.00504195976765294
251.947,0.005799439880540467
251.948,0.004090390605983658
251.949,0.0003537762897210444
251.95000000000002,0.004308902206880734
251.95100000000002,0.008491645932251754
251.952,0.010934875202364885
251.953,0.010917638298525226
251.954,0.008463864767891724
251.955,0.004302212116615745
251.95600000000002,0.0003961427789078062
251.95700000000002,0.004404468970669195
251.958,0.006818430638873804
251.959,0.007302160299918676
251.96,0.00613178966843766
251.961,0.004038960627321381
251.96200000000002,0.0019243390563326978
251.96300000000002,0.0005496469320056973
251.964,0.0003144285942927228
251.965,0.001184116415251663
251.966,0.0027756668698041436
251.967,0.004549382593013658
251.96800000000002,0.00602156183228041
251.96900000000002,0.006913487527480475
251.97,0.007185568519678922
251.971,0.006956645499762523
251.972,0.006356848926926563
251.973,0.0053890594004877826
251.97400000000002,0.0038690262596158096
251.97500000000002,0.0014800840350816026
251.976,0.002071053468112864
251.977,0.006856172230708785
251.978,0.01256701179967284
251.979,0.018469874534432183
251.98000000000002,0.023509702150781422
251.98100000000002,0.026547109505570543
251.982,0.02666269092132109
251.983,0.023435263708940713
251.984,0.017104628439079846
251.985,0.00856360242726063
251.98600000000002,0.0008234212318104251
251.98700000000002,0.009525361453927576
251.988,0.01618724064338644
251.989,0.01991795468092473
251.99,0.020451561666104144
251.991,0.018151839393043046
251.99200000000002,0.013875766710544126
251.99300000000002,0.008746977136436539
251.994,0.0039051902516437052
251.995,0.00029057748636255817
251.996,0.0015005755829362716
251.997,0.0012795788485093164
251.99800000000002,0.0007402823861235147
251.99900000000002,0.003999332859555041
252.0,0.007681576876092044
252.001,0.010833174422872592
252.002,0.012509455914565754
252.00300000000001,0.011947124409732116
252.00400000000002,0.008744327535105444
252.00500000000002,0.0030126445619084582
252.006,0.0045480594704606706
252.007,0.012698394539830907
252.008,0.019855021900092213
252.00900000000001,0.024415554401857636
252.01000000000002,0.025148913509602466
252.01100000000002,0.021551845919261667
252.012,0.014063350677539296
252.013,0.0040544212188049055
252.014,0.006432649345276198
252.01500000000001,0.015148240845894884
252.01600000000002,0.02018913753246573
252.017,0.020491430686070584
252.018,0.016119062932559002
252.019,0.008256795771606443
252.02,0.0010999817255093638
252.02100000000002,0.009676356687789033
252.02200000000002,0.015520048928254614
252.023,0.01750163032115534
252.024,0.015569633695282033
252.025,0.010691588808483652
252.026,0.004507529994199934
252.02700000000002,0.0011909032362245144
252.02800000000002,0.00499244888118053
252.029,0.006247743720694819
252.03,0.005191252012310951
252.031,0.0027797747253961538
252.032,0.0003137928788393634
252.03300000000002,0.0010263124804483397
252.03400000000002,0.0005760528578629297
252.035,0.001609557240894216
252.036,0.00480108850055583
252.037,0.007862055073880877
252.038,0.009641489998200609
252.03900000000002,0.009358789523583893
252.04000000000002,0.006856742798726401
252.041,0.0026471693163208406
252.042,0.0022561200903522425
252.043,0.006654270692201458
252.044,0.009523569914361294
252.04500000000002,0.010305107825713424
252.04600000000002,0.009039650669496727
252.047,0.006317416100405647
252.048,0.0030716260361072305
252.049,0.0002897780648086728
252.05,0.0012655479824258003
252.05100000000002,0.0012468226188240682
252.05200000000002,0.00022159255556929372
252.053,0.002619720736368339
252.054,0.005202900453109964
252.055,0.007208005151154176
252.056,0.008036003974772188
252.05700000000002,0.007369864082998667
252.05800000000002,0.005213149731101462
252.059,0.0018590101430569896
252.06,0.002186158942055763
252.061,0.006297806838647432
252.062,0.009827760714018268
252.06300000000002,0.012189610565830341
252.06400000000002,0.01293422819912742
252.065,0.011816039627220628
252.066,0.008845858374419554
252.067,0.004319071500037714
252.068,0.0011958552707485002
252.06900000000002,0.006920115292759488
252.07000000000002,0.011978649938808247
252.071,0.015549593097545744
252.072,0.01701845274318228
252.073,0.01609967107360885
252.074,0.012893237119968601
252.07500000000002,0.007860350289274735
252.07600000000002,0.0017247784344733847
252.077,0.0046722199627156485
252.078,0.010523319257633114
252.079,0.015174050215206684
252.08,0.018184590693137825
252.08100000000002,0.01933158518428283
252.08200000000002,0.018568245469195784
252.083,0.015973347207550757
252.084,0.011718732761550499
252.085,0.006071162800585294
252.086,0.000576475809724225
252.08700000000002,0.007668848992364614
252.08800000000002,0.014480370519292213
252.089,0.020164409432544182
252.09,0.023869256632257353
252.091,0.024904539574120147
252.092,0.022917915288530533
252.09300000000002,0.01802946085026568
252.09400000000002,0.010875774326345103
252.095,0.002537129496125241
252.096,0.0056470489952913155
252.097,0.012336571252621824
252.098,0.016462111410511206
252.09900000000002,0.017443699815831517
252.10000000000002,0.015302758001514294
252.101,0.010642087572870359
252.102,0.004502098620750615
252.103,0.0018683675788716365
252.104,0.007270136023705094
252.10500000000002,0.010781965331496774
252.10600000000002,0.0119127664076571
252.107,0.010653739991242585
252.108,0.007431161967794465
252.109,0.0029813186662977116
252.11,0.0018183012713956276
252.11100000000002,0.006124105915698659
252.11200000000002,0.009274743828010447
252.113,0.010888970322163264
252.114,0.010900748231542105
252.115,0.009530900382624987
252.116,0.0072053900390454005
252.11700000000002,0.004439559627207439
252.11800000000002,0.0017144082491536725
252.119,0.0006263923620376592
252.12,0.002433380731920032
252.121,0.0037469975596288773
252.122,0.004733188727842686
252.12300000000002,0.005578539611656253
252.12400000000002,0.0063797568393681205
252.125,0.007068178391698276
252.126,0.007402534566878076
252.127,0.007042560727793344
252.12800000000001,0.0056874752365470285
252.12900000000002,0.003236009370955079
252.13000000000002,9.097752512922265e-05
252.131,0.003720482369908546
252.132,0.006820230426118187
252.133,0.008504712673828657
252.13400000000001,0.008102075181400093
252.13500000000002,0.005399628173389306
252.13600000000002,0.0007811063180818202
252.137,0.0048056040920151115
252.138,0.010061235934333094
252.139,0.013679396360907755
252.14000000000001,0.01472384216404057
252.14100000000002,0.012919863431771659
252.142,0.008759323007618263
252.143,0.0033732457843256253
252.144,0.0017998937588506853
252.145,0.005452152697993396
252.14600000000002,0.0068113739297982374
252.14700000000002,0.0058787849873987675
252.148,0.0034144677075972634
252.149,0.0006682348458410427
252.15,0.0010597554968872415
252.151,0.0008826715978050493
252.15200000000002,0.0013448121737023638
252.15300000000002,0.0049525129497581455
252.154,0.008669482400061983
252.155,0.011062442324873153
252.156,0.011051925411479648
252.157,0.008326991787108709
252.15800000000002,0.0035075938452171318
252.15900000000002,0.002014206857543396
252.16,0.006513510189769161
252.161,0.008512073110825372
252.162,0.007303118440062471
252.163,0.0032374914089962747
252.16400000000002,0.0023377765171851274
252.16500000000002,0.0074821912208170764
252.166,0.010282585822987456
252.167,0.009490411228496686
252.168,0.004962177676840108
252.169,0.002249803051440983
252.17000000000002,0.010195475654378823
252.17100000000002,0.01662371989454093
252.172,0.01968638543603956
252.173,0.01852028334119922
252.174,0.01351622958537636
252.175,0.006187007755039983
252.17600000000002,0.0013212286285614388
252.17700000000002,0.006911843177646736
252.178,0.009189616324157157
252.179,0.007869313052262124
252.18,0.003812679053418759
252.181,0.0013081679724455389
252.18200000000002,0.005597993686311401
252.18300000000002,0.007572196499689388
252.184,0.006622664434221597
252.185,0.003164544920408082
252.186,0.0015735414938533702
252.187,0.006029148181960962
252.18800000000002,0.00887742568634528
252.18900000000002,0.009488895375150672
252.19,0.008113412941372487
252.191,0.005731125348781475
252.192,0.003631682313649714
252.193,0.002880266363398768
252.19400000000002,0.0038690505991159077
252.19500000000002,0.006121776087924303
252.196,0.0084285617312567
252.197,0.009269945106001473
252.198,0.007385048285719899
252.199,0.00228506118279832
252.20000000000002,0.005471434460840199
252.20100000000002,0.014345835096812743
252.202,0.02221889053814511
252.203,0.02699943700504462
252.204,0.027249148010352102
252.205,0.022623996722929567
252.20600000000002,0.01399305419103574
252.20700000000002,0.0032000098205636728
252.208,0.007453251391558063
252.209,0.015836336887954643
252.21,0.020539009776431673
252.211,0.02117833719713711
252.21200000000002,0.01838740182636902
252.21300000000002,0.013512445545127708
252.214,0.0081344761346957
252.215,0.0035776719538500867
252.216,0.0005578902741662667
252.217,0.0009331669116543159
252.21800000000002,0.0014966733698718161
252.21900000000002,0.0020176222206743583
252.22,0.003298363681985234
252.221,0.0057618583056674106
252.222,0.009315729179325305
252.223,0.013405210278244872
252.22400000000002,0.01721684275834186
252.22500000000002,0.019948067584882226
252.226,0.021044829544374546
252.227,0.020331219234183885
252.228,0.018001085355195123
252.229,0.014493130149517431
252.23000000000002,0.010309618728711773
252.23100000000002,0.005852111966662596
252.232,0.0013332683827160599
252.233,0.0032105644060771523
252.234,0.00782148705730097
252.235,0.01248373384965926
252.23600000000002,0.017007757523030215
252.23700000000002,0.020983727251329645
252.238,0.023827007547595123
252.239,0.024905586162855913
252.24,0.023712096194738432
252.241,0.020029383865076678
252.24200000000002,0.014041342929802306
252.24300000000002,0.006357144247412444
252.244,0.002059564889985918
252.245,0.010041909598000675
252.246,0.01642005041578363
252.247,0.02023088981350712
252.24800000000002,0.020897794809970095
252.24900000000002,0.018347217286144822
252.25,0.013039374477541436
252.251,0.005903128748013493
252.252,0.0018195594508588703
252.25300000000001,0.00879733385215256
252.25400000000002,0.013862435438897383
252.25500000000002,0.016241723275333814
252.256,0.0157113451980751
252.257,0.012631170904966538
252.258,0.007840263959914114
252.25900000000001,0.002430487492157735
252.26000000000002,0.0025473722210463405
252.26100000000002,0.0063639805088656996
252.262,0.008792554778411323
252.263,0.010127497302059628
252.264,0.011024063719960989
252.26500000000001,0.012200916347333841
252.26600000000002,0.014098786037427662
252.267,0.016613989176634016
252.268,0.019012931715877233
252.269,0.020082635883735177
252.27,0.01849598119555985
252.27100000000002,0.013292448532766201
252.27200000000002,0.004322577759445845
252.273,0.007502004637678938
252.274,0.02026429995162069
252.275,0.031425421480335995
252.276,0.03845241239233145
252.27700000000002,0.03951935257387543
252.27800000000002,0.03407166661149918
252.279,0.023069711914946518
252.28,0.008815064775055694
252.281,0.0056132282113456585
252.282,0.01716298807670079
252.28300000000002,0.023623511190209775
252.28400000000002,0.024208489588431553
252.285,0.01972933902033513
252.286,0.012302791251475933
252.287,0.004678784818193394
252.288,0.0006076015980959895
252.28900000000002,0.0020011071775741436
252.29000000000002,0.0006254649052058363
252.291,0.005974510386151816
252.292,0.011772174691989311
252.293,0.015517565945783704
252.294,0.015296162379585174
252.29500000000002,0.010404424472956898
252.29600000000002,0.0015957048104337102
252.297,0.009121125552790208
252.298,0.019059068013440306
252.299,0.025621608229295892
252.3,0.027025778601441834
252.30100000000002,0.022766860080947304
252.30200000000002,0.013701202377706978
252.303,0.0017469420793060672
252.304,0.010681331073154754
252.305,0.02131554834641418
252.306,0.028558628311774217
252.30700000000002,0.03174957636958847
252.30800000000002,0.031124352009650507
252.309,0.027529795482213303
252.31,0.022021735599679345
252.311,0.015501151390140303
252.312,0.008510045327042484
252.31300000000002,0.0012367821781610257
252.31400000000002,0.00630284246694422
252.315,0.01400717623727968
252.316,0.02147509832481503
252.317,0.027936134539615125
252.318,0.0323638282394037
252.31900000000002,0.033739732692852735
252.32000000000002,0.03137725798037405
252.321,0.025191016364007328
252.322,0.015815411281324614
252.323,0.00452784694615472
252.324,0.007002702032066455
252.32500000000002,0.017065653489833296
252.32600000000002,0.024254688355284822
252.327,0.0277166111527401
252.328,0.027250008008581374
252.329,0.023253499786353292
252.33,0.016569175746817544
252.33100000000002,0.008289154082813225
252.33200000000002,0.000413801356082422
252.333,0.0084008899737836
252.334,0.014634412562246457
252.335,0.018232517456270497
252.336,0.018550977316450012
252.33700000000002,0.01530962698539823
252.33800000000002,0.008742381515995936
252.339,0.00028811658217928144
252.34,0.010287904186596086
252.341,0.019302630337047003
252.342,0.025274976340059655
252.34300000000002,0.02653329015596276
252.34400000000002,0.02229187518929465
252.345,0.013008768416630227
252.346,0.00046019774628794173
252.347,0.012544558001010427
252.348,0.02278311983132262
252.34900000000002,0.02744158945293608
252.35000000000002,0.02492392335796975
252.351,0.015411898149567458
252.352,0.00098606593030005
252.353,0.014771333237749618
252.354,0.02762571228270198
252.35500000000002,0.0337885466474384
252.35600000000002,0.030974001678199966
252.357,0.019114724495031363
252.358,0.0005162997131311165
252.359,0.02062329734050444
252.36,0.03922755664683053
252.36100000000002,0.05063291372705484
252.36200000000002,0.05181500456358218
252.363,0.04221388911608286
252.364,0.023924414433481533
252.365,0.001188029337322987
252.366,0.02068633129657461
252.36700000000002,0.036686107090803305
252.36800000000002,0.0433769958435162
252.369,0.0397571469060628
252.37,0.027455280384524258
252.371,0.010225353179898438
252.372,0.007115765630993872
252.37300000000002,0.02000901030861844
252.37400000000002,0.025365862960189216
252.375,0.02234201326625912
252.376,0.012468414379235338
252.377,0.0008806642657061377
252.37800000000001,0.013516697264597213
252.37900000000002,0.021660581094317226
252.38000000000002,0.023009744591427118
252.381,0.017349492987426468
252.382,0.006545852370605068
252.383,0.006062148370310262
252.38400000000001,0.016680509504739562
252.38500000000002,0.022183971902100856
252.38600000000002,0.021016553926598375
252.387,0.013611703633330328
252.388,0.0022200882453028738
252.389,0.009791629732353613
252.39000000000001,0.01895403248028183
252.39100000000002,0.02271599946798948
252.392,0.020173225192937863
252.393,0.01229616995896333
252.394,0.0016014144323284354
252.395,0.008624017215969799
252.39600000000002,0.01530607898560435
252.39700000000002,0.016479713633776014
252.398,0.011835516289662706
252.399,0.00276563729171391
252.4,0.008089522514736327
252.401,0.017643861489103976
252.40200000000002,0.02326821130519298
252.40300000000002,0.02352262994783651
252.404,0.01850889359055795
252.405,0.009755961914989925
252.406,0.0003045326883421741
252.407,0.009094360118921303
252.40800000000002,0.014636067941761678
252.40900000000002,0.01606608784866244
252.41,0.013771892321676173
252.411,0.00913581181596655
252.412,0.003992243922953316
252.413,1.025155505961878e-05
252.41400000000002,0.0019304699896352077
252.41500000000002,0.001776841949823325
252.416,0.00040672855210925797
252.417,0.0008652878765550244
252.418,0.0008038726859952569
252.419,0.001254962055967599
252.42000000000002,0.005124459375245127
252.42100000000002,0.00979305989407306
252.422,0.013744145620881153
252.423,0.015460285282889985
252.424,0.01394312654854882
252.425,0.00907713098723896
252.42600000000002,0.0017184257306902767
252.42700000000002,0.0065196284751547024
252.428,0.013715267853961738
252.429,0.018179988204764675
252.43,0.018925930902805276
252.431,0.015919997047270727
252.43200000000002,0.010056449809787404
252.43300000000002,0.0028688859443305533
252.434,0.003919175662365677
252.435,0.00886254645573283
252.436,0.01114256351475881
252.437,0.01070308451601606
252.43800000000002,0.008154527535840166
252.43900000000002,0.004499492516616407
252.44,0.0007841556102555463
252.441,0.002207102537013716
252.442,0.004122136569333827
252.443,0.005038427894046175
252.44400000000002,0.005311087096947675
252.44500000000002,0.005344027204993129
252.446,0.005377416793154272
252.447,0.005371616424281361
252.448,0.005027791268666461
252.449,0.003933318776056067
252.45000000000002,0.001774246346091393
252.45100000000002,0.0014672985205425543
252.452,0.005408223303516362
252.453,0.009298405056733296
252.454,0.012192981639037198
252.455,0.013215805038682062
252.45600000000002,0.011835163294594954
252.45700000000002,0.008065935796363407
252.458,0.002531864647251238
252.459,0.003638800057175212
252.46,0.009063511023957097
252.461,0.012439188226426845
252.46200000000002,0.012873252088742671
252.46300000000002,0.010125308922924703
252.464,0.004695522387561992
252.465,0.0022654126058564523
252.466,0.009205231689378578
252.467,0.014519693427805848
252.46800000000002,0.01692061880134783
252.46900000000002,0.015736386158555608
252.47,0.011075263429483735
252.471,0.0038140225120221086
252.472,0.004585716236540531
252.473,0.012392146865821848
252.47400000000002,0.01797858664647514
252.47500000000002,0.02017589690970029
252.476,0.018523939942704244
252.477,0.013366782158412503
252.478,0.005771425136579754
252.479,0.002710570700926723
252.48000000000002,0.010383997427722247
252.48100000000002,0.015776096427791937
252.482,0.01794548775823554
252.483,0.016665621893757608
252.484,0.01244428453032996
252.485,0.0063792157785718005
252.48600000000002,0.00011216046199131449
252.48700000000002,0.005622711881924997
252.488,0.009067320119606767
252.489,0.009905515828666655
252.49,0.00822790780911906
252.491,0.004693211979676872
252.49200000000002,0.00033814628335416066
252.49300000000002,0.0036891682880087428
252.494,0.006406737859877053
252.495,0.007222775128016491
252.496,0.006057812221311064
252.497,0.003342133257050115
252.49800000000002,0.00010502689810520623
252.49900000000002,0.003282209402870859
252.5,0.0052487556374130485
252.501,0.00534865382290177
252.502,0.0033657527026567007
252.50300000000001,0.0004230627124012051
252.50400000000002,0.00530752961170999
252.50500000000002,0.010302580728914289
252.506,0.014369895877535281
252.507,0.016651708369797128
252.508,0.016662135352457582
252.50900000000001,0.014389824812089731
252.51000000000002,0.010285956748139832
252.51100000000002,0.0051398121384187085
252.512,0.00012624735297979062
252.513,0.004687409048210168
252.514,0.008008375855708717
252.51500000000001,0.009941289771490266
252.51600000000002,0.010700655298027217
252.517,0.010723906858162135
252.518,0.010464132304388429
252.519,0.010187091794592856
252.52,0.009848011723186952
252.52100000000002,0.009100972624058897
252.52200000000002,0.007449893890787161
252.523,0.004498055506065798
252.524,0.00021029219930017413
252.525,0.004915063639700167
252.526,0.009849274053226127
252.52700000000002,0.013244638835867151
252.52800000000002,0.013816785924514926
252.529,0.010792749344371813
252.53,0.004279774712632071
252.531,0.0045850832133008754
252.532,0.013790376021720122
252.53300000000002,0.020906070659818105
252.53400000000002,0.023735092193592124
252.535,0.02097913740461604
252.536,0.012712037728253993
252.537,0.0004938379388090658
252.538,0.012943308893117343
252.53900000000002,0.024377536892988137
252.54000000000002,0.030968126413368362
252.541,0.031063744291664527
252.542,0.024700949129496712
252.543,0.013628506324410893
252.544,0.0008322005157846094
252.54500000000002,0.010311536849087411
252.54600000000002,0.0170056184033797
252.547,0.017833318685129825
252.548,0.01314410599778303
252.549,0.004903743187513484
252.55,0.003945408591536174
252.55100000000002,0.010413608298876196
252.55200000000002,0.01239026526833514
252.553,0.0092768411869685
252.554,0.0021302877817876023
