Czas,AbsSum,Sum
85.534,0.13556621313760875,0.13556621313760875
85.53500000000001,0.1283881713308479,0.1283881713308479
85.536,0.12520111452707505,0.12520111452707505
85.537,0.12492305022952266,0.12492305022952266
85.53800000000001,0.12571514924211713,0.12571514924211713
85.539,0.12580696722693063,0.12580696722693063
85.54,0.12418822589659806,0.12418822589659806
85.54100000000001,0.12094438948513808,0.12094438948513808
85.542,0.11715319121226586,0.11715319121226586
85.543,0.11441592001261269,0.11441592001261269
85.54400000000001,0.11421703108682735,0.11421703108682735
85.545,0.11735073227013326,0.11735073227013326
85.546,0.12361345480148023,0.12361345480148023
85.54700000000001,0.13185575085810375,0.13185575085810375
85.548,0.14035651259843518,0.14035651259843518
85.549,0.14737298937988808,0.14737298937988808
85.55000000000001,0.15166831474718667,0.15166831474718667
85.551,0.1528385366810796,0.1528385366810796
85.552,0.1513420864877668,0.1513420864877668
85.55300000000001,0.14824438772343895,0.14824438772343895
85.554,0.14478875812204195,0.14478875812204195
85.555,0.14195789395451164,0.14195789395451164
85.55600000000001,0.1401817995349648,0.1401817995349648
85.557,0.1392844024463331,0.1392844024463331
85.558,0.13866795752243766,0.13866795752243766
85.55900000000001,0.13764670559596293,0.13764670559596293
85.56,0.13579059479115374,0.13579059479115374
85.561,0.133143019514955,0.133143019514955
85.56200000000001,0.13023018005831655,0.13023018005831655
85.563,0.12786228282879675,0.12786228282879675
85.56400000000001,0.12680700463469008,0.12680700463469008
85.56500000000001,0.12746385280479644,0.12746385280479644
85.566,0.12966715775280857,0.12966715775280857
85.56700000000001,0.13269669245146787,0.13269669245146787
85.56800000000001,0.13549706700477548,0.13549706700477548
85.569,0.13702915226449086,0.13702915226449086
85.57000000000001,0.13662746553053995,0.13662746553053995
85.57100000000001,0.13423450773181678,0.13423450773181678
85.572,0.1304271741390126,0.1304271741390126
85.57300000000001,0.12622515924021682,0.12622515924021682
85.57400000000001,0.12274939238916893,0.12274939238916893
85.575,0.12085171203606637,0.12085171203606637
85.57600000000001,0.12084624749148043,0.12084624749148043
85.57700000000001,0.12243538172013779,0.12243538172013779
85.578,0.12485265733811146,0.12485265733811146
85.57900000000001,0.12716717675534617,0.12716717675534617
85.58000000000001,0.12863689331383665,0.12863689331383665
85.581,0.12898194302418275,0.12898194302418275
85.58200000000001,0.1284792182367991,0.1284792182367991
85.58300000000001,0.1278445359455016,0.1278445359455016
85.584,0.12794543353091536,0.12794543353091536
85.58500000000001,0.1294484611464306,0.1294484611464306
85.58600000000001,0.1325284439759944,0.1325284439759944
85.587,0.1367456409885892,0.1367456409885892
85.58800000000001,0.14113814328526253,0.14113814328526253
85.58900000000001,0.14450220452820783,0.14450220452820783
85.59,0.14576864785664756,0.14576864785664756
85.59100000000001,0.1443511112961735,0.1443511112961735
85.59200000000001,0.14035202932293167,0.14035202932293167
85.593,0.13456029491848542,0.13456029491848542
85.59400000000001,0.1282430629153104,0.1282430629153104
85.59500000000001,0.12279942496522622,0.12279942496522622
85.596,0.11938420802855942,0.11938420802855942
85.59700000000001,0.11861395428593213,0.11861395428593213
85.59800000000001,0.12043538040161073,0.12043538040161073
85.599,0.1241823053064639,0.1241823053064639
85.60000000000001,0.12878969076361924,0.12878969076361924
85.60100000000001,0.13309175835954612,0.13309175835954612
85.602,0.1361165648763849,0.1361165648763849
85.60300000000001,0.13730282573778685,0.13730282573778685
85.60400000000001,0.13659741132224035,0.13659741132224035
85.605,0.13442979663592025,0.13442979663592025
85.60600000000001,0.13158951596952795,0.13158951596952795
85.60700000000001,0.12904677184664903,0.12904677184664903
85.608,0.12775502303359754,0.12775502303359754
85.60900000000001,0.12846428133849863,0.12846428133849863
85.61000000000001,0.13156388509969652,0.13156388509969652
85.611,0.1369699805235045,0.1369699805235045
85.61200000000001,0.14407620394057918,0.14407620394057918
85.613,0.15179039514710468,0.15179039514710468
85.614,0.15867688142592984,0.15867688142592984
85.61500000000001,0.16320633286532815,0.16320633286532815
85.616,0.16408352514813296,0.16408352514813296
85.617,0.16058633229586405,0.16058633229586405
85.61800000000001,0.1528221822727187,0.1528221822727187
85.619,0.14180698967680505,0.14180698967680505
85.62,0.12930546592670433,0.12930546592670433
85.62100000000001,0.11743735063336236,0.11743735063336236
85.622,0.10813407107826234,0.10813407107826234
85.623,0.10259732278123979,0.10259732278123979
85.62400000000001,0.10093704048014818,0.10093704048014818
85.625,0.1021334662997262,0.1021334662997262
85.626,0.10437788113374036,0.10437788113374036
85.62700000000001,0.1057222065808765,0.1057222065808765
85.628,0.10484877334531828,0.10484877334531828
85.629,0.10170190114857824,0.10170190114857824
85.63000000000001,0.09773486107157359,0.09773486107157359
85.631,0.09562665341759202,0.09562665341759202
85.632,0.09848924637246737,0.09848924637246737
85.63300000000001,0.10876752325390804,0.10876752325390804
85.634,0.12716950547895478,0.12716950547895478
85.635,0.15200059702947977,0.15200059702947977
85.63600000000001,0.1791882203023223,0.1791882203023223
85.637,0.203087935475609,0.203087935475609
85.638,0.21791339424005107,0.21791339424005107
85.63900000000001,0.21940856329439384,0.21940856329439384
85.64,0.20625912489074172,0.20625912489074172
85.641,0.18077115904483065,0.18077115904483065
85.64200000000001,0.14853284584385995,0.14853284584385995
85.643,0.11707099664078391,0.11707099664078391
85.644,0.093831058076294,0.093831058076294
85.64500000000001,0.08404576174683132,0.08404576174683132
85.646,0.08913190089606493,0.08913190089606493
85.647,0.10613230291621156,0.10613230291621156
85.64800000000001,0.1284280535392801,0.1284280535392801
85.649,0.14756777740121985,0.14756777740121985
85.65,0.1557116890139194,0.1557116890139194
85.65100000000001,0.14797972393315462,0.14797972393315462
85.652,0.12399673799707633,0.12399673799707633
85.653,0.08815014043296432,0.08815014043296432
85.65400000000001,0.04845376670220447,0.04845376670220447
85.655,0.014332280769014494,0.014332280769014494
85.656,0.0060273971500555135,-0.0060273971500555135
85.65700000000001,0.007972539768699827,-0.007972539768699827
85.658,0.0083550072527665,0.0083550072527665
85.659,0.03816635627219722,0.03816635627219722
85.66000000000001,0.07352542156939856,0.07352542156939856
85.661,0.10573537323967219,0.10573537323967219
85.662,0.1278809576884723,0.1278809576884723
85.66300000000001,0.13675805624741288,0.13675805624741288
85.664,0.1336214041947823,0.1336214041947823
85.665,0.123553759919806,0.123553759919806
85.66600000000001,0.1136864982047261,0.1136864982047261
85.667,0.11084847398929165,0.11084847398929165
85.668,0.11938027451418787,0.11938027451418787
85.66900000000001,0.13977886822194208,0.13977886822194208
85.67,0.16856189608343763,0.16856189608343763
85.671,0.19935385875631706,0.19935385875631706
85.67200000000001,0.22482313834991952,0.22482313834991952
85.673,0.2388555230574343,0.2388555230574343
85.674,0.23830732910266605,0.23830732910266605
85.67500000000001,0.22384309303100602,0.22384309303100602
85.676,0.19966738409659857,0.19966738409659857
85.677,0.1723031622631641,0.1723031622631641
85.67800000000001,0.1488393270522761,0.1488393270522761
85.679,0.13518697813638303,0.13518697813638303
85.68,0.13482217200281021,0.13482217200281021
85.68100000000001,0.1482881432052694,0.1482881432052694
85.682,0.17346288332937765,0.17346288332937765
85.683,0.20636441323930188,0.20636441323930188
85.68400000000001,0.24214266383541516,0.24214266383541516
85.685,0.27592519601665044,0.27592519601665044
85.686,0.3033218417491248,0.3033218417491248
85.68700000000001,0.32058563435096477,0.32058563435096477
85.688,0.3245922383858806,0.3245922383858806
85.68900000000001,0.31287037292212183,0.31287037292212183
85.69000000000001,0.28386445867727206,0.28386445867727206
85.691,0.23746100482469124,0.23746100482469124
85.69200000000001,0.1756262410625924,0.1756262410625924
85.69300000000001,0.1028647619238725,0.1028647619238725
85.694,0.026183236470603388,0.026183236470603388
85.69500000000001,0.04564580539206753,-0.04564580539206753
85.69600000000001,0.10350546393979976,-0.10350546393979976
85.697,0.1397711111235832,-0.1397711111235832
85.69800000000001,0.15009360244361492,-0.15009360244361492
85.69900000000001,0.13459873913914566,-0.13459873913914566
85.7,0.09808423475763872,-0.09808423475763872
85.70100000000001,0.049058134729018765,-0.049058134729018765
85.70200000000001,0.002199994436709485,0.002199994436709485
85.703,0.046068612332179404,0.046068612332179404
85.70400000000001,0.07584692270399396,0.07584692270399396
85.70500000000001,0.08921827779249081,0.08921827779249081
85.706,0.08850280215641959,0.08850280215641959
85.70700000000001,0.07964037071317698,0.07964037071317698
85.70800000000001,0.07022049214791082,0.07022049214791082
85.709,0.06715571523599295,0.06715571523599295
85.71000000000001,0.07469104640699409,0.07469104640699409
85.71100000000001,0.09332343641493002,0.09332343641493002
85.712,0.11991146311659429,0.11991146311659429
85.71300000000001,0.1488810057669463,0.1488810057669463
85.71400000000001,0.17409813370913185,0.17409813370913185
85.715,0.19079139182961002,0.19079139182961002
85.71600000000001,0.1969190676983985,0.1969190676983985
85.71700000000001,0.1935828953058243,0.1935828953058243
85.718,0.18441545398155346,0.18441545398155346
85.71900000000001,0.17420420454466345,0.17420420454466345
85.72000000000001,0.16725024839159408,0.16725024839159408
85.721,0.16602039308385463,0.16602039308385463
85.72200000000001,0.17052306983480192,0.17052306983480192
85.72300000000001,0.17857167066805824,0.17857167066805824
85.724,0.18678788743318786,0.18678788743318786
85.72500000000001,0.1919497973265416,0.1919497973265416
85.72600000000001,0.1921875077948827,0.1921875077948827
85.727,0.18760385579615724,0.18760385579615724
85.72800000000001,0.1801181959934255,0.1801181959934255
85.72900000000001,0.1726172417585301,0.1726172417585301
85.73,0.1677466582785705,0.1677466582785705
85.73100000000001,0.16680336702724596,0.16680336702724596
85.73200000000001,0.1691483371038025,0.1691483371038025
85.733,0.17236872729494235,0.17236872729494235
85.73400000000001,0.17314497092885794,0.17314497092885794
85.73500000000001,0.1685196274278138,0.1685196274278138
85.736,0.1571121099347481,0.1571121099347481
85.73700000000001,0.13983121231333695,0.13983121231333695
85.738,0.11980428927329645,0.11980428927329645
85.739,0.10151121026399479,0.10151121026399479
85.74000000000001,0.08939022887675918,0.08939022887675918
85.741,0.08637511979924728,0.08637511979924728
85.742,0.09286092476000696,0.09286092476000696
85.74300000000001,0.10646430144118546,0.10646430144118546
85.744,0.12268626091213264,0.12268626091213264
85.745,0.13628580242484545,0.13628580242484545
85.74600000000001,0.14293279080411647,0.14293279080411647
85.747,0.1406082087022329,0.1406082087022329
85.748,0.1302940134685926,0.1302940134685926
85.74900000000001,0.11571967541892847,0.11571967541892847
85.75,0.10223457506444045,0.10223457506444045
85.751,0.09515595479858496,0.09515595479858496
85.75200000000001,0.09810972189139378,0.09810972189139378
85.753,0.11188231855908248,0.11188231855908248
85.754,0.13413723114475418,0.13413723114475418
85.75500000000001,0.160074490923658,0.160074490923658
85.756,0.18381581747929832,0.18381581747929832
85.757,0.2000770546857824,0.2000770546857824
85.75800000000001,0.20561235923282473,0.20561235923282473
85.759,0.20000226681121358,0.20000226681121358
85.76,0.18557750965273478,0.18557750965273478
85.76100000000001,0.1665477418508916,0.1665477418508916
85.762,0.14764826835425593,0.14764826835425593
85.763,0.13275140177119904,0.13275140177119904
85.76400000000001,0.12387368922599484,0.12387368922599484
85.765,0.1208573773341628,0.1208573773341628
85.766,0.12177000838693663,0.12177000838693663
85.76700000000001,0.12383037845957579,0.12383037845957579
85.768,0.12450975275684506,0.12450975275684506
85.769,0.1224232770156759,0.1224232770156759
85.77000000000001,0.11772327547254435,0.11772327547254435
85.771,0.11189500671986208,0.11189500671986208
85.772,0.10706846461443287,0.10706846461443287
85.77300000000001,0.10512343560705517,0.10512343560705517
85.774,0.10692518708901533,0.10692518708901533
85.775,0.11196792707678127,0.11196792707678127
85.77600000000001,0.11854736385280518,0.11854736385280518
85.777,0.12438925221909858,0.12438925221909858
85.778,0.12749655152368722,0.12749655152368722
85.77900000000001,0.1269006193863409,0.1269006193863409
85.78,0.12303746495584167,0.12303746495584167
85.781,0.11760485115652486,0.11760485115652486
85.78200000000001,0.11294223934698211,0.11294223934698211
85.783,0.11114815033422332,0.11114815033422332
85.784,0.11324844885084828,0.11324844885084828
85.78500000000001,0.1187197206560473,0.1187197206560473
85.786,0.1255566259503622,0.1255566259503622
85.787,0.13088915071780827,0.13088915071780827
85.78800000000001,0.1319662303038036,0.1319662303038036
85.789,0.12718985750556833,0.12718985750556833
85.79,0.11685333021555122,0.11685333021555122
85.79100000000001,0.10332008774519008,0.10332008774519008
85.792,0.09054994590063581,0.09054994590063581
85.793,0.0830833548105816,0.0830833548105816
85.79400000000001,0.08476677767277385,0.08476677767277385
85.795,0.09758891026741146,0.09758891026741146
85.796,0.1209713046962071,0.1209713046962071
85.79700000000001,0.15172682399019544,0.15172682399019544
85.798,0.18470630804665356,0.18470630804665356
85.799,0.2139575774584883,0.2139575774584883
85.80000000000001,0.23408058103400142,0.23408058103400142
85.801,0.24141824319646443,0.24141824319646443
85.802,0.23478369524061593,0.23478369524061593
85.80300000000001,0.21556788476976352,0.21556788476976352
85.804,0.18725000369066525,0.18725000369066525
85.805,0.15449166002405956,0.15449166002405956
85.80600000000001,0.12208870234158531,0.12208870234158531
85.807,0.0940597970464141,0.0940597970464141
85.808,0.07307477522611405,0.07307477522611405
85.80900000000001,0.06029975277927013,0.06029975277927013
85.81,0.05560449994054428,0.05560449994054428
85.811,0.05798266865913293,0.05798266865913293
85.81200000000001,0.06600356050186984,0.06600356050186984
85.813,0.07814796649905675,0.07814796649905675
85.81400000000001,0.0929603774316039,0.0929603774316039
85.81500000000001,0.10904142851357057,0.10904142851357057
85.816,0.12497230146070892,0.12497230146070892
85.81700000000001,0.1392827965628045,0.1392827965628045
85.81800000000001,0.15054225854976044,0.15054225854976044
85.819,0.15758326841577408,0.15758326841577408
85.82000000000001,0.15979172287491505,0.15979172287491505
85.82100000000001,0.15734587093537766,0.15734587093537766
85.822,0.1512836396804642,0.1512836396804642
85.82300000000001,0.14332642204756119,0.14332642204756119
85.82400000000001,0.13547241705262847,0.13547241705262847
85.825,0.12946281570741114,0.12946281570741114
85.82600000000001,0.12628505372502596,0.12628505372502596
85.82700000000001,0.12588338723803782,0.12588338723803782
85.828,0.1271913941690357,0.1271913941690357
85.82900000000001,0.12849912328677182,0.12849912328677182
85.83000000000001,0.12805278724412328,0.12805278724412328
85.831,0.1246972146192078,0.1246972146192078
85.83200000000001,0.11834369286869229,0.11834369286869229
85.83300000000001,0.110092083408454,0.110092083408454
85.834,0.10194477779983169,0.10194477779983169
85.83500000000001,0.09618726652195075,0.09618726652195075
85.83600000000001,0.09462993895386007,0.09462993895386007
85.837,0.09796567557255509,0.09796567557255509
85.83800000000001,0.1054735003664653,0.1054735003664653
85.83900000000001,0.11519330698845098,0.11519330698845098
85.84,0.12454172687215492,0.12454172687215492
85.84100000000001,0.13118467222394847,0.13118467222394847
85.84200000000001,0.1338808317155309,0.1338808317155309
85.843,0.13300023303375053,0.13300023303375053
85.84400000000001,0.1305120277811329,0.1305120277811329
85.84500000000001,0.12940167935086544,0.12940167935086544
85.846,0.13266854528978533,0.13266854528978533
85.84700000000001,0.1422080050047334,0.1422080050047334
85.84800000000001,0.1579443957458888,0.1579443957458888
85.849,0.17752598298902145,0.17752598298902145
85.85000000000001,0.19673224201091033,0.19673224201091033
85.85100000000001,0.21052356784749215,0.21052356784749215
85.852,0.21445264359774163,0.21445264359774163
85.85300000000001,0.20602387725870863,0.20602387725870863
85.85400000000001,0.18557919340212004,0.18557919340212004
85.855,0.15641337744522876,0.15641337744522876
85.85600000000001,0.12404594388918366,0.12404594388918366
85.85700000000001,0.09483194140320439,0.09483194140320439
85.858,0.07430156865656934,0.07430156865656934
85.85900000000001,0.065711126567364,0.065711126567364
85.86000000000001,0.06923353298850365,0.06923353298850365
85.861,0.08202914748046819,0.08202914748046819
85.86200000000001,0.09917333323010746,0.09917333323010746
85.863,0.11515772943378777,0.11515772943378777
85.864,0.12550896425750868,0.12550896425750868
85.86500000000001,0.12803641054979797,0.12803641054979797
85.866,0.1233401167114907,0.1233401167114907
85.867,0.11444361136578096,0.11444361136578096
85.86800000000001,0.10568984722166674,0.10568984722166674
85.869,0.10126532415630418,0.10126532415630418
85.87,0.10382581502108645,0.10382581502108645
85.87100000000001,0.11365384013643709,0.11365384013643709
85.872,0.1285988645392564,0.1285988645392564
85.873,0.14479563159200493,0.14479563159200493
85.87400000000001,0.15790772789071061,0.15790772789071061
85.875,0.16448265742950396,0.16448265742950396
85.876,0.16298198166678324,0.16298198166678324
85.87700000000001,0.15417000072653786,0.15417000072653786
85.878,0.14076446398116071,0.14076446398116071
85.879,0.12649789270755796,0.12649789270755796
85.88000000000001,0.11492615447051668,0.11492615447051668
85.881,0.10839029687959822,0.10839029687959822
85.882,0.10746765622874466,0.10746765622874466
85.88300000000001,0.11106577428440967,0.11106577428440967
85.884,0.11708252655151297,0.11708252655151297
85.885,0.1233584862426873,0.1233584862426873
85.88600000000001,0.12855124958718678,0.12855124958718678
85.887,0.1325990669451147,0.1325990669451147
85.888,0.13659876711625807,0.13659876711625807
85.88900000000001,0.14214479682135073,0.14214479682135073
85.89,0.15038365507911022,0.15038365507911022
85.891,0.16115685880743058,0.16115685880743058
85.89200000000001,0.17259167345300463,0.17259167345300463
85.893,0.18135365773922874,0.18135365773922874
85.894,0.18354577187681365,0.18354577187681365
85.89500000000001,0.17600268725014612,0.17600268725014612
85.896,0.15756749574445617,0.15756749574445617
85.897,0.1299092970448359,0.1299092970448359
85.89800000000001,0.09755880551704044,0.09755880551704044
85.899,0.06707089866014204,0.06707089866014204
85.9,0.045495491816239575,0.045495491816239575
85.90100000000001,0.03856415708461913,0.03856415708461913
85.902,0.04910612759554156,0.04910612759554156
85.903,0.07615800481929824,0.07615800481929824
85.90400000000001,0.11504009214261735,0.11504009214261735
85.905,0.15839703642764702,0.15839703642764702
85.906,0.1979254898497198,0.1979254898497198
85.90700000000001,0.22631992557478542,0.22631992557478542
85.908,0.2389155918728445,0.2389155918728445
85.909,0.2346069621171314,0.2346069621171314
85.91000000000001,0.21583659624281326,0.21583659624281326
85.911,0.18771455571824625,0.18771455571824625
85.912,0.15656224312699685,0.15656224312699685
85.91300000000001,0.12831016051667454,0.12831016051667454
85.914,0.10718327393262994,0.10718327393262994
85.915,0.09498864140604346,0.09498864140604346
85.91600000000001,0.09112221979880641,0.09112221979880641
85.917,0.09319990765118558,0.09319990765118558
85.918,0.09805524570149382,0.09805524570149382
85.91900000000001,0.10277556202913618,0.10277556202913618
85.92,0.10548065718716715,0.10548065718716715
85.921,0.10566218307826736,0.10566218307826736
85.92200000000001,0.10405416548997848,0.10405416548997848
85.923,0.10214567280646958,0.10214567280646958
85.924,0.10153518651385429,0.10153518651385429
85.92500000000001,0.10334353188675216,0.10334353188675216
85.926,0.10785329087207662,0.10785329087207662
85.927,0.11445183362451772,0.11445183362451772
85.92800000000001,0.12185582563324604,0.12185582563324604
85.929,0.1285178265856326,0.1285178265856326
85.93,0.13307904167652396,0.13307904167652396
85.93100000000001,0.13473946136774373,0.13473946136774373
85.932,0.13345701620717665,0.13345701620717665
85.933,0.12994302807481728,0.12994302807481728
85.93400000000001,0.12547411191773983,0.12547411191773983
85.935,0.12157834239502918,0.12157834239502918
85.936,0.11967146132449424,0.11967146132449424
85.93700000000001,0.12071942475321062,0.12071942475321062
85.938,0.12499225412247061,0.12499225412247061
85.93900000000001,0.1319562091699964,0.1319562091699964
85.94000000000001,0.14032951617974065,0.14032951617974065
85.941,0.14830172797396268,0.14830172797396268
85.94200000000001,0.1538883932538324,0.1538883932538324
85.94300000000001,0.15536328411083655,0.15536328411083655
85.944,0.151685527550657,0.151685527550657
85.94500000000001,0.14282663616808722,0.14282663616808722
85.94600000000001,0.1299102222158135,0.1299102222158135
85.947,0.11510849627725328,0.11510849627725328
85.94800000000001,0.10129083032709052,0.10129083032709052
85.94900000000001,0.09147957084283709,0.09147957084283709
85.95,0.08822093408738318,0.08822093408738318
85.95100000000001,0.09300831314660574,0.09300831314660574
85.95200000000001,0.10589140031066724,0.10589140031066724
85.953,0.1253664596471411,0.1253664596471411
85.95400000000001,0.14858043027970558,0.14858043027970558
85.95500000000001,0.17181121111667697,0.17181121111667697
85.956,0.1911271822233318,0.1911271822233318
85.95700000000001,0.20309516599135713,0.20309516599135713
85.95800000000001,0.2054034075656248,0.2054034075656248
85.959,0.19729097757267988,0.19729097757267988
85.96000000000001,0.17971658032978044,0.17971658032978044
85.96100000000001,0.15524546126193783,0.15524546126193783
85.962,0.12767343828966138,0.12767343828966138
85.96300000000001,0.101438531782579,0.101438531782579
85.96400000000001,0.08089523746206373,0.08089523746206373
85.965,0.0695481326700973,0.0695481326700973
85.96600000000001,0.06936140790130318,0.06936140790130318
85.96700000000001,0.0802741411452268,0.0802741411452268
85.968,0.10004684588628221,0.10004684588628221
85.96900000000001,0.12453064887496201,0.12453064887496201
85.97000000000001,0.1483796141260625,0.1483796141260625
85.971,0.16612491952684239,0.16612491952684239
85.97200000000001,0.17341805222623963,0.17341805222623963
85.97300000000001,0.1681624826031105,0.1681624826031105
85.974,0.15122560263070506,0.15122560263070506
85.97500000000001,0.12648038147648344,0.12648038147648344
85.97600000000001,0.10007104602808203,0.10007104602808203
85.977,0.07900120805547606,0.07900120805547606
85.97800000000001,0.06935221167067906,0.06935221167067906
85.97900000000001,0.07458806085114378,0.07458806085114378
85.98,0.09443412008668295,0.09443412008668295
85.98100000000001,0.12470308326300028,0.12470308326300028
85.98200000000001,0.15820056662599802,0.15820056662599802
85.983,0.18653521493415126,0.18653521493415126
85.98400000000001,0.20237441943733647,0.20237441943733647
85.98500000000001,0.20151863803079895,0.20151863803079895
85.986,0.18417838677018938,0.18417838677018938
85.98700000000001,0.15503938373829818,0.15503938373829818
85.988,0.12204354319138644,0.12204354319138644
85.989,0.09419780685157142,0.09419780685157142
85.99000000000001,0.07903015818981096,0.07903015818981096
85.991,0.08044116066197371,0.08044116066197371
85.992,0.09760059274324284,0.09760059274324284
85.99300000000001,0.12523401744629625,0.12523401744629625
85.994,0.1552228539464533,0.1552228539464533
85.995,0.179034456034729,0.179034456034729
85.99600000000001,0.1902365580949681,0.1902365580949681
85.997,0.18632082476011336,0.18632082476011336
85.998,0.1692772815762993,0.1692772815762993
85.99900000000001,0.1447589405994203,0.1447589405994203
86.0,0.12012725279126646,0.12012725279126646
86.001,0.10202745518278356,0.10202745518278356
86.00200000000001,0.09429013970673483,0.09429013970673483
86.003,0.0968414399318045,0.0968414399318045
86.004,0.10596519189408027,0.10596519189408027
86.00500000000001,0.11580764102805707,0.11580764102805707
86.006,0.12059905781938696,0.12059905781938696
86.007,0.11682626668326668,0.11682626668326668
86.00800000000001,0.10460689474997653,0.10460689474997653
86.009,0.08778556264862969,0.08778556264862969
86.01,0.07270471677987911,0.07270471677987911
86.01100000000001,0.0660534017446257,0.0660534017446257
86.012,0.07251424878545465,0.07251424878545465
86.013,0.09300495834556366,0.09300495834556366
86.01400000000001,0.12411904108558214,0.12411904108558214
86.015,0.1589750187998511,0.1589750187998511
86.016,0.18921589854473675,0.18921589854473675
86.01700000000001,0.20751795782078863,0.20751795782078863
86.018,0.20979764417083424,0.20979764417083424
86.019,0.19640411728485163,0.19640411728485163
86.02000000000001,0.17191884075754427,0.17191884075754427
86.021,0.1436404578829904,0.1436404578829904
86.022,0.11926053310461415,0.11926053310461415
86.02300000000001,0.10449237601401506,0.10449237601401506
86.024,0.10141819723198964,0.10141819723198964
86.025,0.10807171116210568,0.10807171116210568
86.02600000000001,0.11935973674895362,0.11935973674895362
86.027,0.12898646755559295,0.12898646755559295
86.028,0.131723105179695,0.131723105179695
86.02900000000001,0.12526642078075678,0.12526642078075678
86.03,0.11108000547426089,0.11108000547426089
86.031,0.09395627927110173,0.09395627927110173
86.03200000000001,0.08045835115251809,0.08045835115251809
86.033,0.07675954375447258,0.07675954375447258
86.034,0.08658061939011374,0.08658061939011374
86.03500000000001,0.10987768271933018,0.10987768271933018
86.036,0.14268090228284325,0.14268090228284325
86.037,0.17811450253683314,0.17811450253683314
86.03800000000001,0.20826430484196856,0.20826430484196856
86.039,0.2263149029378515,0.2263149029378515
86.04,0.22832431156967026,0.22832431156967026
86.04100000000001,0.2141451733368882,0.2141451733368882
86.042,0.1872818378517216,0.1872818378517216
86.043,0.15379571251813418,0.15379571251813418
86.04400000000001,0.12063519995625072,0.12063519995625072
86.045,0.09389635634136706,0.09389635634136706
86.046,0.07748971046306719,0.07748971046306719
86.04700000000001,0.07252328452420631,0.07252328452420631
86.048,0.07747619778013615,0.07747619778013615
86.049,0.0890097004336543,0.0890097004336543
86.05000000000001,0.10310901000804762,0.10310901000804762
86.051,0.11620428005863936,0.11620428005863936
86.052,0.1259789444428765,0.1259789444428765
86.05300000000001,0.13170417569412862,0.13170417569412862
86.054,0.1340899720591655,0.1340899720591655
86.055,0.13477035640865176,0.13477035640865176
86.05600000000001,0.13561313037891498,0.13561313037891498
86.057,0.1380564698307376,0.1380564698307376
86.058,0.1426368873275392,0.1426368873275392
86.05900000000001,0.14880685910158964,0.14880685910158964
86.06,0.15506669679461615,0.15506669679461615
86.061,0.1593684878402819,0.1593684878402819
86.06200000000001,0.15969697048697862,0.15969697048697862
86.063,0.154695528416827,0.154695528416827
86.06400000000001,0.144187774178282,0.144187774178282
86.06500000000001,0.12945182741631145,0.12945182741631145
86.066,0.11314188510684242,0.11314188510684242
86.06700000000001,0.09882246866869915,0.09882246866869915
86.06800000000001,0.0901772351412482,0.0901772351412482
86.069,0.09005589720644136,0.09005589720644136
86.07000000000001,0.0995990148428667,0.0995990148428667
86.07100000000001,0.11769974874823652,0.11769974874823652
86.072,0.14100443870729418,0.14100443870729418
86.07300000000001,0.16452327644132114,0.16452327644132114
86.07400000000001,0.18274858807293404,0.18274858807293404
86.075,0.1910125999789989,0.1910125999789989
86.07600000000001,0.18671591434048507,0.18671591434048507
86.07700000000001,0.1700644959494515,0.1700644959494515
86.078,0.1440766667720248,0.1440766667720248
86.07900000000001,0.11383220779471959,0.11383220779471959
86.08000000000001,0.0851692646096287,0.0851692646096287
86.081,0.06321349296717127,0.06321349296717127
86.08200000000001,0.05118296981063586,0.05118296981063586
86.08300000000001,0.049824775268633825,0.049824775268633825
86.084,0.057628305533777846,0.057628305533777846
86.08500000000001,0.07169542094811798,0.07169542094811798
86.08600000000001,0.08892099914512364,0.08892099914512364
86.087,0.10703279308373004,0.10703279308373004
86.08800000000001,0.1250996914170157,0.1250996914170157
86.08900000000001,0.14332673377979321,0.14332673377979321
86.09,0.1622412856886135,0.1622412856886135
86.09100000000001,0.18163249266235293,0.18163249266235293
86.09200000000001,0.19973484068677627,0.19973484068677627
86.093,0.21308816134340924,0.21308816134340924
86.09400000000001,0.21726957967336635,0.21726957967336635
86.09500000000001,0.20835469946694563,0.20835469946694563
86.096,0.18464670781746162,0.18464670781746162
86.09700000000001,0.14803594734045,0.14803594734045
86.09800000000001,0.10439826151235643,0.10439826151235643
86.099,0.06271172985055484,0.06271172985055484
86.10000000000001,0.032989660562592116,0.032989660562592116
86.10100000000001,0.023555047181084365,0.023555047181084365
86.102,0.03846688522088626,0.03846688522088626
86.10300000000001,0.0759404351595887,0.0759404351595887
86.10400000000001,0.12835213618253216,0.12835213618253216
86.105,0.183952580683568,0.183952580683568
86.10600000000001,0.2298731228103461,0.2298731228103461
86.10700000000001,0.25558006719165016,0.25558006719165016
86.108,0.2557534115100799,0.2557534115100799
86.10900000000001,0.23171293501434942,0.23171293501434942
86.11000000000001,0.19094501204926773,0.19094501204926773
86.111,0.14486476513939972,0.14486476513939972
86.11200000000001,0.10549317465809649,0.10549317465809649
86.113,0.08206012889607517,0.08206012889607517
86.114,0.0785540943128622,0.0785540943128622
86.11500000000001,0.0929252348051266,0.0929252348051266
86.116,0.11811647278841253,0.11811647278841253
86.117,0.14452248116555633,0.14452248116555633
86.11800000000001,0.1630476246475212,0.1630476246475212
86.119,0.16778618587296235,0.16778618587296235
86.12,0.15752074452711273,0.15752074452711273
86.12100000000001,0.13565835710904484,0.13565835710904484
86.122,0.10874849510598139,0.10874849510598139
86.123,0.08417277652341948,0.08417277652341948
86.12400000000001,0.067819580355311,0.067819580355311
86.125,0.062494331365598565,0.062494331365598565
86.126,0.0675069567386326,0.0675069567386326
86.12700000000001,0.07944321353252048,0.07944321353252048
86.128,0.09372460203630206,0.09372460203630206
86.129,0.10633010046258784,0.10633010046258784
86.13000000000001,0.11506114760388253,0.11506114760388253
86.131,0.11995851009061131,0.11995851009061131
86.132,0.12282751782628543,0.12282751782628543
86.13300000000001,0.1261604458785659,0.1261604458785659
86.134,0.1319396972119855,0.1319396972119855
86.135,0.14079997945803902,0.14079997945803902
86.13600000000001,0.15183862271565363,0.15183862271565363
86.137,0.16307677227986717,0.16307677227986717
86.138,0.17230976112836727,0.17230976112836727
86.13900000000001,0.17794715123976168,0.17794715123976168
86.14,0.1794809744142165,0.1794809744142165
86.141,0.17741060898514927,0.17741060898514927
86.14200000000001,0.17270880070313255,0.17270880070313255
86.143,0.16612415887702836,0.16612415887702836
86.144,0.15768988389429905,0.15768988389429905
86.14500000000001,0.1467132654801493,0.1467132654801493
86.146,0.1322945124191326,0.1322945124191326
86.147,0.114162649510134,0.114162649510134
86.14800000000001,0.09343478303476638,0.09343478303476638
86.149,0.07288836673281618,0.07288836673281618
86.15,0.056503873777398184,0.056503873777398184
86.15100000000001,0.048330130439934615,0.048330130439934615
86.152,0.051031650820325014,0.051031650820325014
86.153,0.06466811658513949,0.06466811658513949
86.15400000000001,0.08624004504917382,0.08624004504917382
86.155,0.11029808888911807,0.11029808888911807
86.156,0.13053041050134828,0.13053041050134828
86.15700000000001,0.14185155868450638,0.14185155868450638
86.158,0.14226989148908897,0.14226989148908897
86.159,0.13381720392441898,0.13381720392441898
86.16000000000001,0.12210305519155851,0.12210305519155851
86.161,0.11452416833267054,0.11452416833267054
86.162,0.11765562932583062,0.11765562932583062
86.16300000000001,0.13469318840574962,0.13469318840574962
86.164,0.16386769095202625,0.16386769095202625
86.165,0.1984751367227775,0.1984751367227775
86.16600000000001,0.22863890052942426,0.22863890052942426
86.167,0.24431913856792553,0.24431913856792553
86.168,0.238619243735666,0.238619243735666
86.16900000000001,0.21028253431073396,0.21028253431073396
86.17,0.1644938569010841,0.1644938569010841
86.171,0.11163868180450054,0.11163868180450054
86.17200000000001,0.06435062993643315,0.06435062993643315
86.173,0.033765908590581484,0.033765908590581484
86.174,0.026193524436208815,0.026193524436208815
86.17500000000001,0.04129555677018537,0.04129555677018537
86.176,0.0723831419001999,0.0723831419001999
86.177,0.10873275251434733,0.10873275251434733
86.17800000000001,0.1391517180809685,0.1391517180809685
86.179,0.1556036773216789,0.1556036773216789
86.18,0.15568872594022531,0.15568872594022531
86.18100000000001,0.14316608330522396,0.14316608330522396
86.182,0.12637448975347088,0.12637448975347088
86.183,0.11511784695347171,0.11511784695347171
86.18400000000001,0.11709656380853417,0.11709656380853417
86.185,0.13510461883886715,0.13510461883886715
86.186,0.16593483037598733,0.16593483037598733
86.18700000000001,0.20134106442516697,0.20134106442516697
86.188,0.2307047338135031,0.2307047338135031
86.18900000000001,0.24448623964025806,0.24448623964025806
86.19000000000001,0.2373009257904899,0.2373009257904899
86.191,0.20961762858578914,0.20961762858578914
86.19200000000001,0.16756971677969346,0.16756971677969346
86.19300000000001,0.12101375257984426,0.12101375257984426
86.194,0.08054232428125885,0.08054232428125885
86.19500000000001,0.05446199412335351,0.05446199412335351
86.19600000000001,0.04669258479411864,0.04669258479411864
86.197,0.05616828942214602,0.05616828942214602
86.19800000000001,0.07777407912221368,0.07777407912221368
86.19900000000001,0.10433579405960658,0.10433579405960658
86.2,0.1288801057286637,0.1288801057286637
86.20100000000001,0.14638494416398973,0.14638494416398973
86.20200000000001,0.15452770636704383,0.15452770636704383
86.203,0.1533793262456391,0.1533793262456391
86.20400000000001,0.14440728851562157,0.14440728851562157
86.20500000000001,0.12937894905664837,0.12937894905664837
86.206,0.1097173527052564,0.1097173527052564
86.20700000000001,0.08658390182533071,0.08658390182533071
86.20800000000001,0.061570499176945015,0.061570499176945015
86.209,0.03754822321985607,0.03754822321985607
86.21000000000001,0.019087385099703313,0.019087385099703313
86.21100000000001,0.0120000261808213,0.0120000261808213
86.212,0.021916018737859977,0.021916018737859977
86.21300000000001,0.05224901360366796,0.05224901360366796
86.21400000000001,0.10225768560937953,0.10225768560937953
86.215,0.166008342579675,0.166008342579675
86.21600000000001,0.23283350457180152,0.23283350457180152
86.21700000000001,0.28941189502171594,0.28941189502171594
86.218,0.3230251792324459,0.3230251792324459
86.21900000000001,0.3250802153005896,0.3250802153005896
86.22000000000001,0.29380043647605025,0.29380043647605025
86.221,0.23517087769445322,0.23517087769445322
86.22200000000001,0.16172538066446007,0.16172538066446007
86.22300000000001,0.08943258056883518,0.08943258056883518
86.224,0.03354771480510821,0.03354771480510821
86.22500000000001,0.00464275902209188,0.00464275902209188
86.22600000000001,0.005987702621785385,0.005987702621785385
86.227,0.033040484411666515,0.033040484411666515
86.22800000000001,0.07514862735552463,0.07514862735552463
86.22900000000001,0.11888792579031127,0.11888792579031127
86.23,0.1519835691494107,0.1519835691494107
86.23100000000001,0.16662730093035893,0.16662730093035893
86.23200000000001,0.16125106276399537,0.16125106276399537
86.233,0.14034668666171335,0.14034668666171335
86.23400000000001,0.11254666897966303,0.11254666897966303
86.23500000000001,0.08769445429892042,0.08769445429892042
86.236,0.07387511365556554,0.07387511365556554
86.23700000000001,0.07529105388883206,0.07529105388883206
86.238,0.0915093289188793,0.0915093289188793
86.239,0.11812129014540451,0.11812129014540451
86.24000000000001,0.14841630940214512,0.14841630940214512
86.241,0.1754205169103209,0.1754205169103209
86.242,0.19364977326200594,0.19364977326200594
86.24300000000001,0.20013928494856592,0.20013928494856592
86.244,0.19463291412888872,0.19463291412888872
86.245,0.17911000263449361,0.17911000263449361
86.24600000000001,0.15699075209717073,0.15699075209717073
86.247,0.1323533534406245,0.1323533534406245
86.248,0.10935304566110049,0.10935304566110049
86.24900000000001,0.0918444064603825,0.0918444064603825
86.25,0.08307328827985883,0.08307328827985883
86.251,0.08528922705418807,0.08528922705418807
86.25200000000001,0.09923529299031975,0.09923529299031975
86.253,0.12363985501203967,0.12363985501203967
86.254,0.15496869528566992,0.15496869528566992
86.25500000000001,0.1877112202697544,0.1877112202697544
86.256,0.21533717875296432,0.21533717875296432
86.257,0.23180771401363787,0.23180771401363787
86.25800000000001,0.23325502871025905,0.23325502871025905
86.259,0.21927928822036336,0.21927928822036336
86.26,0.19334177445019152,0.19334177445019152
86.26100000000001,0.16197984192058845,0.16197984192058845
86.262,0.13296346125107084,0.13296346125107084
86.263,0.11291706251052536,0.11291706251052536
86.26400000000001,0.10518586091525672,0.10518586091525672
86.265,0.10871642538682247,0.10871642538682247
86.266,0.11842255517020672,0.11842255517020672
86.26700000000001,0.12700512502490247,0.12700512502490247
86.268,0.1276600372241874,0.1276600372241874
86.269,0.1167401616040642,0.1167401616040642
86.27000000000001,0.09538643214502085,0.09538643214502085
86.271,0.06945328038045795,0.06945328038045795
86.272,0.04763548511821214,0.04763548511821214
86.27300000000001,0.03836094550732905,0.03836094550732905
86.274,0.04650940455689656,0.04650940455689656
86.275,0.07115797237483679,0.07115797237483679
86.27600000000001,0.10526621140551384,0.10526621140551384
86.277,0.1375749156603463,0.1375749156603463
86.278,0.15621398949437837,0.15621398949437837
86.27900000000001,0.1528685772282219,0.1528685772282219
86.28,0.1260776061745732,0.1260776061745732
86.281,0.08245238752157924,0.08245238752157924
86.28200000000001,0.035253098140382244,0.035253098140382244
86.283,0.0006388329185937902,0.0006388329185937902
86.284,0.007285102645975039,-0.007285102645975039
86.28500000000001,0.018955604364936818,0.018955604364936818
86.286,0.07751331795636163,0.07751331795636163
86.287,0.1573434786102652,0.1573434786102652
86.28800000000001,0.24116802109098723,0.24116802109098723
86.289,0.3103697107053547,0.3103697107053547
86.29,0.350273613596378,0.350273613596378
86.29100000000001,0.35414760048016225,0.35414760048016225
86.292,0.3246851798020447,0.3246851798020447
86.293,0.27257383634645516,0.27257383634645516
86.29400000000001,0.21271295945324686,0.21271295945324686
86.295,0.15939978010265876,0.15939978010265876
86.296,0.12209589903230755,0.12209589903230755
86.29700000000001,0.10312918965303797,0.10312918965303797
86.298,0.09797654536057743,0.09797654536057743
86.299,0.09786729689817997,0.09786729689817997
86.30000000000001,0.09366340922827998,0.09366340922827998
86.301,0.07957929538747788,0.07957929538747788
86.302,0.05542644573899147,0.05542644573899147
86.30300000000001,0.026646704110512953,0.026646704110512953
86.304,0.0022141755766567073,0.0022141755766567073
86.305,0.008757192708299,-0.008757192708299
86.30600000000001,0.0004321388154582273,-0.0004321388154582273
86.307,0.027532490371364737,0.027532490371364737
86.308,0.06973528179330657,0.06973528179330657
86.30900000000001,0.11676728948052761,0.11676728948052761
86.31,0.1582586630523235,0.1582586630523235
86.311,0.18612007729562396,0.18612007729562396
86.31200000000001,0.1968488495534133,0.1968488495534133
86.313,0.19216145144514907,0.19216145144514907
86.31400000000001,0.17785191979897252,0.17785191979897252
86.31500000000001,0.16141409877410684,0.16141409877410684
86.316,0.14936920129253606,0.14936920129253606
86.31700000000001,0.1452709638944365,0.1452709638944365
86.31800000000001,0.14902702907360288,0.14902702907360288
86.319,0.1576236940340785,0.1576236940340785
86.32000000000001,0.16679608730721807,0.16679608730721807
86.32100000000001,0.1728601650818593,0.1728601650818593
86.322,0.1739355529011386,0.1739355529011386
86.32300000000001,0.17011928018622968,0.17011928018622968
86.32400000000001,0.16267153094030706,0.16267153094030706
86.325,0.15273001915889028,0.15273001915889028
86.32600000000001,0.14028426169433317,0.14028426169433317
86.32700000000001,0.12401985566055718,0.12401985566055718
86.328,0.10223132035490745,0.10223132035490745
86.32900000000001,0.07447024789272083,0.07447024789272083
86.33000000000001,0.043171682005138656,0.043171682005138656
86.331,0.01438029542077568,0.01438029542077568
86.33200000000001,0.0030417172434064055,-0.0030417172434064055
86.33300000000001,0.00022446245682483656,0.00022446245682483656
86.334,0.030642080729305965,0.030642080729305965
86.33500000000001,0.08867707002660619,0.08867707002660619
86.33600000000001,0.16706895415469103,0.16706895415469103
86.337,0.2514067094757604,0.2514067094757604
86.33800000000001,0.32317113515875917,0.32317113515875917
86.33900000000001,0.3645359028067181,0.3645359028067181
86.34,0.36352375975865825,0.36352375975865825
86.34100000000001,0.3178612198304982,0.3178612198304982
86.34200000000001,0.23618715244494703,0.23618715244494703
86.343,0.1360714058688579,0.1360714058688579
86.34400000000001,0.03933162976642968,0.03933162976642968
86.34500000000001,0.03395253006490617,-0.03395253006490617
86.346,0.0708621785211142,-0.0708621785211142
86.34700000000001,0.0687881377469679,-0.0687881377469679
86.34800000000001,0.03533417181921439,-0.03533417181921439
86.349,0.014919729206416932,0.014919729206416932
86.35000000000001,0.0656408508492421,0.0656408508492421
86.35100000000001,0.10414872825495958,0.10414872825495958
86.352,0.1251693285215998,0.1251693285215998
86.35300000000001,0.13171569595950983,0.13171569595950983
86.35400000000001,0.13290417699652668,0.13290417699652668
86.355,0.13960430185180672,0.13960430185180672
86.35600000000001,0.1595795488483165,0.1595795488483165
86.35700000000001,0.19393550468222065,0.19393550468222065
86.358,0.23619579295728488,0.23619579295728488
86.35900000000001,0.27435450066053857,0.27435450066053857
86.36000000000001,0.29515822993271157,0.29515822993271157
86.361,0.2890481840315642,0.2890481840315642
86.36200000000001,0.2539415882561795,0.2539415882561795
86.363,0.19644425418152767,0.19644425418152767
86.364,0.13001338097378756,0.13001338097378756
86.36500000000001,0.0706952941930743,0.0706952941930743
86.366,0.031944406739335074,0.031944406739335074
86.367,0.02036533438279431,0.02036533438279431
86.36800000000001,0.03388604719471067,0.03388604719471067
86.369,0.06298659920465055,0.06298659920465055
86.37,0.0944970283266573,0.0944970283266573
86.37100000000001,0.11654568464286563,0.11654568464286563
86.372,0.12282797346712515,0.12282797346712515
86.373,0.11462804409863314,0.11462804409863314
86.37400000000001,0.09986812506191578,0.09986812506191578
86.375,0.08957374604863433,0.08957374604863433
86.376,0.0931173567152146,0.0931173567152146
86.37700000000001,0.11407505959551023,0.11407505959551023
86.378,0.14832043948604756,0.14832043948604756
86.379,0.1851554500276824,0.1851554500276824
86.38000000000001,0.211138560890489,0.211138560890489
86.381,0.2152337348894513,0.2152337348894513
86.382,0.19335799691762023,0.19335799691762023
86.38300000000001,0.15056382718517147,0.15056382718517147
86.384,0.09991326601720796,0.09991326601720796
86.385,0.058296821155849,0.058296821155849
86.38600000000001,0.04059136783247941,0.04059136783247941
86.387,0.05421720808202957,0.05421720808202957
86.388,0.09608921384022873,0.09608921384022873
86.38900000000001,0.153164596147771,0.153164596147771
86.39,0.20653809076417984,0.20653809076417984
86.391,0.23776390329592867,0.23776390329592867
86.39200000000001,0.23524890416363653,0.23524890416363653
86.393,0.19847249151911028,0.19847249151911028
86.394,0.13849391836848657,0.13849391836848657
86.39500000000001,0.07447407395686545,0.07447407395686545
86.396,0.027328534350110623,0.027328534350110623
86.397,0.012653760028114025,0.012653760028114025
86.39800000000001,0.035361466694750154,0.035361466694750154
86.399,0.0879029652847445,0.0879029652847445
86.4,0.15274731230143868,0.15274731230143868
86.40100000000001,0.20831149935229543,0.20831149935229543
86.402,0.23633594917330214,0.23633594917330214
86.403,0.22817647281001574,0.22817647281001574
86.40400000000001,0.18783236185386154,0.18783236185386154
86.405,0.1306357620578773,0.1306357620578773
86.406,0.07801275171436228,0.07801275171436228
86.40700000000001,0.05008099504223473,0.05008099504223473
86.408,0.05860503788341109,0.05860503788341109
86.409,0.10272589888844541,0.10272589888844541
86.41000000000001,0.1689499914747048,0.1689499914747048
86.411,0.23544102652972865,0.23544102652972865
86.412,0.2791991169212813,0.2791991169212813
86.41300000000001,0.28373054709336554,0.28373054709336554
86.414,0.24464125702910366,0.24464125702910366
86.415,0.17128146317846582,0.17128146317846582
86.41600000000001,0.08388890450099962,0.08388890450099962
86.417,0.007175441280526718,0.007175441280526718
86.418,0.03752732889252319,-0.03752732889252319
86.41900000000001,0.038990574757757246,-0.038990574757757246
86.42,0.0004949914662375487,0.0004949914662375487
86.421,0.06607282696418948,0.06607282696418948
86.42200000000001,0.13527042184862914,0.13527042184862914
86.423,0.18528337533544326,0.18528337533544326
86.424,0.20021528667861266,0.20021528667861266
86.42500000000001,0.17596923999766445,0.17596923999766445
86.426,0.12130370952427905,0.12130370952427905
86.427,0.05483505899867769,0.05483505899867769
86.42800000000001,0.0009381283971411358,-0.0009381283971411358
86.429,0.02661646564592479,-0.02661646564592479
86.43,0.011685587518586171,-0.011685587518586171
86.43100000000001,0.04261368882370942,0.04261368882370942
86.432,0.12405095291641843,0.12405095291641843
86.433,0.2133587847445617,0.2133587847445617
86.43400000000001,0.28997049629280025,0.28997049629280025
86.435,0.3376947135441215,0.3376947135441215
86.436,0.34864580955746094,0.34864580955746094
86.43700000000001,0.3244306290656849,0.3244306290656849
86.438,0.27452799156527985,0.27452799156527985
86.43900000000001,0.21266609227958266,0.21266609227958266
86.44000000000001,0.1525307934579967,0.1525307934579967
86.441,0.1041869313366941,0.1041869313366941
86.44200000000001,0.07219706922270608,0.07219706922270608
86.44300000000001,0.055753950880646164,0.055753950880646164
86.444,0.050452893232547424,0.050452893232547424
86.44500000000001,0.050849020177451854,0.050849020177451854
86.44600000000001,0.052807804345508025,0.052807804345508025
86.447,0.05487090456541788,0.05487090456541788
86.44800000000001,0.058308384557149706,0.058308384557149706
86.44900000000001,0.06603115934426973,0.06603115934426973
86.45,0.08091469806640461,0.08091469806640461
86.45100000000001,0.10422213374986322,0.10422213374986322
86.45200000000001,0.13469504915105412,0.13469504915105412
86.453,0.16857859025247457,0.16857859025247457
86.45400000000001,0.20049398264386675,0.20049398264386675
86.45500000000001,0.22479714779222149,0.22479714779222149
86.456,0.2369518981368297,0.2369518981368297
86.45700000000001,0.23451382363801576,0.23451382363801576
86.45800000000001,0.21751326488905898,0.21751326488905898
86.459,0.18825164637955494,0.18825164637955494
86.46000000000001,0.1506960251350442,0.1506960251350442
86.46100000000001,0.10971959891404715,0.10971959891404715
86.462,0.07039097132175387,0.07039097132175387
86.46300000000001,0.03740703156806946,0.03740703156806946
86.46400000000001,0.014658048352192088,0.014658048352192088
86.465,0.004862442936722333,0.004862442936722333
86.46600000000001,0.009231487184563791,0.009231487184563791
86.46700000000001,0.027198755149303144,0.027198755149303144
86.468,0.056325240234998075,0.056325240234998075
86.46900000000001,0.0925155148794976,0.0925155148794976
86.47000000000001,0.13062373454205978,0.13062373454205978
86.471,0.16540084411543576,0.16540084411543576
86.47200000000001,0.1925839725347136,0.1925839725347136
86.47300000000001,0.20982232691261338,0.20982232691261338
86.474,0.21712769360936846,0.21712769360936846
86.47500000000001,0.2166527447893285,0.2166527447893285
86.47600000000001,0.2118091027068667,0.2118091027068667
86.477,0.20597032860233466,0.20597032860233466
86.47800000000001,0.20117625527778182,0.20117625527778182
86.47900000000001,0.19729351116089178,0.19729351116089178
86.48,0.19196598267961273,0.19196598267961273
86.48100000000001,0.1814388606139441,0.1814388606139441
86.48200000000001,0.1620405678406891,0.1620405678406891
86.483,0.13186051735638693,0.13186051735638693
86.48400000000001,0.09205609380078394,0.09205609380078394
86.48500000000001,0.04730273553680231,0.04730273553680231
86.486,0.005147731390034771,0.005147731390034771
86.48700000000001,0.025634294822759363,-0.025634294822759363
86.488,0.03726568349141712,-0.03726568349141712
86.489,0.025150780359718072,-0.025150780359718072
86.49000000000001,0.010612974443691359,0.010612974443691359
86.491,0.06485770989710327,0.06485770989710327
86.492,0.12824987719555048,0.12824987719555048
86.49300000000001,0.18927198218460917,0.18927198218460917
86.494,0.2367846529322244,0.2367846529322244
86.495,0.2625235495463918,0.2625235495463918
86.49600000000001,0.2629142573996668,0.2629142573996668
86.497,0.23977660571389348,0.23977660571389348
86.498,0.19977749633408215,0.19977749633408215
86.49900000000001,0.15279717985766816,0.15279717985766816
86.5,0.10962093506519133,0.10962093506519133
86.501,0.07950316075481845,0.07950316075481845
86.50200000000001,0.06815429300787401,0.06815429300787401
86.503,0.0765849980738631,0.0765849980738631
86.504,0.10104172117684018,0.10104172117684018
86.50500000000001,0.13402857391010592,0.13402857391010592
86.506,0.1661790413454567,0.1661790413454567
86.507,0.18855797684550413,0.18855797684550413
86.50800000000001,0.19487247823956322,0.19487247823956322
86.509,0.18307187877498232,0.18307187877498232
86.51,0.1559308060447011,0.1559308060447011
86.51100000000001,0.12042450725838227,0.12042450725838227
86.512,0.08598802062180089,0.08598802062180089
86.513,0.06204205023019971,0.06204205023019971
86.51400000000001,0.05539482437470378,0.05539482437470378
86.515,0.06821900782373702,0.06821900782373702
86.516,0.0972091878262582,0.0972091878262582
86.51700000000001,0.134248148477069,0.134248148477069
86.518,0.16850535331352234,0.16850535331352234
86.519,0.18946438673831967,0.18946438673831967
86.52000000000001,0.19005620488381902,0.19005620488381902
86.521,0.16897424363245706,0.16897424363245706
86.522,0.13142153620723085,0.13142153620723085
86.52300000000001,0.08796181754102661,0.08796181754102661
86.524,0.0517048552698498,0.0517048552698498
86.525,0.034583693505465085,0.034583693505465085
86.52600000000001,0.04380575551703614,0.04380575551703614
86.527,0.07956131175715342,0.07956131175715342
86.528,0.13473018223819655,0.13473018223819655
86.52900000000001,0.19673228305678525,0.19673228305678525
86.53,0.25100135844662064,0.25100135844662064
86.531,0.28503955004182235,0.28503955004182235
86.53200000000001,0.29181120284860285,0.29181120284860285
86.533,0.27143458048829405,0.27143458048829405
86.534,0.23067478090479399,0.23067478090479399
86.53500000000001,0.1804557507991802,0.1804557507991802
86.536,0.1322558619285168,0.1322558619285168
86.537,0.09460872706044743,0.09460872706044743
86.53800000000001,0.07087210223141738,0.07087210223141738
86.539,0.05896826531158972,0.05896826531158972
86.54,0.053095551419164666,0.053095551419164666
86.54100000000001,0.0467086773606169,0.0467086773606169
86.542,0.03561537481321153,0.03561537481321153
86.543,0.020003735624978924,0.020003735624978924
86.54400000000001,0.004616590771343354,0.004616590771343354
86.545,0.0030134468330453856,-0.0030134468330453856
86.546,0.004386935648458268,0.004386935648458268
86.54700000000001,0.03066535750785282,0.03066535750785282
86.548,0.07421091677974423,0.07421091677974423
86.549,0.12791676124437923,0.12791676124437923
86.55000000000001,0.1812664732305862,0.1812664732305862
86.551,0.22385705384508547,0.22385705384508547
86.552,0.24907745446524476,0.24907745446524476
86.55300000000001,0.25652462017752553,0.25652462017752553
86.554,0.25213483142859894,0.25213483142859894
86.555,0.24581793684364084,0.24581793684364084
86.55600000000001,0.2473265476793034,0.2473265476793034
86.557,0.2618263787313426,0.2618263787313426
86.558,0.2868703355388962,0.2868703355388962
86.55900000000001,0.31209645690599164,0.31209645690599164
86.56,0.32206672503116573,0.32206672503116573
86.561,0.30153430289953875,0.30153430289953875
86.56200000000001,0.24146559948958113,0.24146559948958113
86.563,0.143709252756256,0.143709252756256
86.56400000000001,0.022488732411088508,0.022488732411088508
86.56500000000001,0.09815305294079035,-0.09815305294079035
86.566,0.19050039704754096,-0.19050039704754096
86.56700000000001,0.23117992185087866,-0.23117992185087866
86.56800000000001,0.20855915781608225,-0.20855915781608225
86.569,0.1270752939374531,-0.1270752939374531
86.57000000000001,0.00689834209222473,-0.00689834209222473
86.57100000000001,0.1212324759032335,0.1212324759032335
86.572,0.22460403263570794,0.22460403263570794
86.57300000000001,0.2779975384465645,0.2779975384465645
86.57400000000001,0.2711006272419332,0.2711006272419332
86.575,0.21150516865283842,0.21150516865283842
86.57600000000001,0.12228325767618631,0.12228325767618631
86.57700000000001,0.03483903837642477,0.03483903837642477
86.578,0.020757747400911186,-0.020757747400911186
86.57900000000001,0.02493563198799298,-0.02493563198799298
86.58000000000001,0.02558533399569951,0.02558533399569951
86.581,0.11716017337457219,0.11716017337457219
86.58200000000001,0.22387722386398146,0.22387722386398146
86.58300000000001,0.3159441020804492,0.3159441020804492
86.584,0.3690579189807712,0.3690579189807712
86.58500000000001,0.3717376490334332,0.3717376490334332
86.58600000000001,0.32830571333938696,0.32830571333938696
86.587,0.2566630895906792,0.2566630895906792
86.58800000000001,0.18172175096952392,0.18172175096952392
86.58900000000001,0.12677038416986797,0.12677038416986797
86.59,0.10569068379803026,0.10569068379803026
86.59100000000001,0.11860818407770846,0.11860818407770846
86.59200000000001,0.15237508330273086,0.15237508330273086
86.593,0.18564644205170433,0.18564644205170433
86.59400000000001,0.19677410168947862,0.19677410168947862
86.59500000000001,0.171814203281619,0.171814203281619
86.596,0.10992572813531876,0.10992572813531876
86.59700000000001,0.024324795411482025,0.024324795411482025
86.59800000000001,0.06155185316057998,-0.06155185316057998
86.599,0.12142993690711412,-0.12142993690711412
86.60000000000001,0.13471586498190224,-0.13471586498190224
86.60100000000001,0.09337313127742763,-0.09337313127742763
86.602,0.004924137567608455,-0.004924137567608455
86.60300000000001,0.10939320301824207,0.10939320301824207
86.60400000000001,0.22072738369420963,0.22072738369420963
86.605,0.3010438131701092,0.3010438131701092
86.60600000000001,0.3312523027804153,0.3312523027804153
86.60700000000001,0.3065481729238775,0.3065481729238775
86.608,0.23741000823327219,0.23741000823327219
86.60900000000001,0.14608214377076378,0.14608214377076378
86.61000000000001,0.059758846515316044,0.059758846515316044
86.611,0.0026418506136456354,0.0026418506136456354
86.61200000000001,0.010717293452609966,-0.010717293452609966
86.613,0.021106081141274657,0.021106081141274657
86.614,0.08694104817008141,0.08694104817008141
86.61500000000001,0.16713009021676162,0.16713009021676162
86.616,0.23974323277485632,0.23974323277485632
86.617,0.2869068815340672,0.2869068815340672
86.61800000000001,0.29938609278896156,0.29938609278896156
86.619,0.2782444789490581,0.2782444789490581
86.62,0.23338849670368966,0.23338849670368966
86.62100000000001,0.17975101423124618,0.17975101423124618
86.622,0.13249160217043965,0.13249160217043965
86.623,0.10272728525257424,0.10272728525257424
86.62400000000001,0.09496727277158246,0.09496727277158246
86.625,0.1067688708830885,0.1067688708830885
86.626,0.1304028068244576,0.1304028068244576
86.62700000000001,0.1557524553188323,0.1557524553188323
86.628,0.17342766770614482,0.17342766770614482
86.629,0.17718029793663037,0.17718029793663037
86.63000000000001,0.16507641116513905,0.16507641116513905
86.631,0.13934764243178188,0.13934764243178188
86.632,0.10524170331980587,0.10524170331980587
86.63300000000001,0.06940252676923753,0.06940252676923753
86.634,0.03830296637149999,0.03830296637149999
86.635,0.01708015800262097,0.01708015800262097
86.63600000000001,0.00888909665548443,0.00888909665548443
86.637,0.014699598069144226,0.014699598069144226
86.638,0.0333809608361193,0.0333809608361193
86.63900000000001,0.061950847077268056,0.061950847077268056
86.64,0.0959589106259191,0.0959589106259191
86.641,0.13005565356409576,0.13005565356409576
86.64200000000001,0.15880134056068296,0.15880134056068296
86.643,0.17768182970963875,0.17768182970963875
86.644,0.1841550093195119,0.1841550093195119
86.64500000000001,0.17842793377226673,0.17842793377226673
86.646,0.16363876573819058,0.16363876573819058
86.647,0.14523270493725837,0.14523270493725837
86.64800000000001,0.1295611696810961,0.1295611696810961
86.649,0.1220225193927682,0.1220225193927682
86.65,0.12528995733173676,0.12528995733173676
86.65100000000001,0.13823535655375174,0.13823535655375174
86.652,0.15600533436272257,0.15600533436272257
86.653,0.17136451160319233,0.17136451160319233
86.65400000000001,0.17699294581145963,0.17699294581145963
86.655,0.16805683319847864,0.16805683319847864
86.656,0.1442033763153081,0.1442033763153081
86.65700000000001,0.11024238706261058,0.11024238706261058
86.658,0.07515521892991406,0.07515521892991406
86.659,0.049606578306993,0.049606578306993
86.66000000000001,0.0426537272428289,0.0426537272428289
86.661,0.058671181260161465,0.058671181260161465
86.662,0.09551383466423169,0.09551383466423169
86.66300000000001,0.14460599336022328,0.14460599336022328
86.664,0.19306091546726067,0.19306091546726067
86.665,0.22728589460419357,0.22728589460419357
86.66600000000001,0.23702270683525062,0.23702270683525062
86.667,0.21858390137010653,0.21858390137010653
86.668,0.17624544884990923,0.17624544884990923
86.66900000000001,0.1212940531978901,0.1212940531978901
86.67,0.06894027264387437,0.06894027264387437
86.671,0.03397373008113691,0.03397373008113691
86.67200000000001,0.026442814705535334,0.026442814705535334
86.673,0.048656915125411926,0.048656915125411926
86.674,0.09442550398137706,0.09442550398137706
86.67500000000001,0.15078216422110113,0.15078216422110113
86.676,0.20169813122829505,0.20169813122829505
86.677,0.23269735640115563,0.23269735640115563
86.67800000000001,0.23502279742283472,0.23502279742283472
86.679,0.20814677031078754,0.20814677031078754
86.68,0.15991652625003017,0.15991652625003017
86.68100000000001,0.10432279838472192,0.10432279838472192
86.682,0.05756171602974591,0.05756171602974591
86.683,0.03352862038967874,0.03352862038967874
86.68400000000001,0.04000747341651323,0.04000747341651323
86.685,0.076580858183938,0.076580858183938
86.686,0.13477029689802666,0.13477029689802666
86.68700000000001,0.2002875791088934,0.2002875791088934
86.688,0.2567198194650837,0.2567198194650837
86.68900000000001,0.2896344813326337,0.2896344813326337
86.69000000000001,0.2900501549268679,0.2900501549268679
86.691,0.25645823161044135,0.25645823161044135
86.69200000000001,0.1950067374671307,0.1950067374671307
86.69300000000001,0.11793636343933644,0.11793636343933644
86.694,0.04075895195117352,0.04075895195117352
86.69500000000001,0.021100419992916897,-0.021100419992916897
86.69600000000001,0.055445527027644825,-0.055445527027644825
86.697,0.05562346469318791,-0.05562346469318791
86.69800000000001,0.021644368507116263,-0.021644368507116263
86.69900000000001,0.03999007396674381,0.03999007396674381
86.7,0.11761223424040446,0.11761223424040446
86.70100000000001,0.19656810244250544,0.19656810244250544
86.70200000000001,0.26186105397412707,0.26186105397412707
86.703,0.300838312433404,0.300838312433404
86.70400000000001,0.3055063835897802,0.3055063835897802
86.70500000000001,0.27410126459094686,0.27410126459094686
86.706,0.21161676138297825,0.21161676138297825
86.70700000000001,0.12912307436834025,0.12912307436834025
86.70800000000001,0.04189429425230706,0.04189429425230706
86.709,0.03340682827887209,-0.03340682827887209
86.71000000000001,0.08200687144436103,-0.08200687144436103
86.71100000000001,0.09411119744653529,-0.09411119744653529
86.712,0.06710742742996512,-0.06710742742996512
86.71300000000001,0.0063077490059230135,-0.0063077490059230135
86.71400000000001,0.0760545212947441,0.0760545212947441
86.715,0.163452904769948,0.163452904769948
86.71600000000001,0.2387766074728288,0.2387766074728288
86.71700000000001,0.2882564596668573,0.2882564596668573
86.718,0.3046300398904145,0.3046300398904145
86.71900000000001,0.28871343220033396,0.28871343220033396
86.72000000000001,0.24893263320633396,0.24893263320633396
86.721,0.1989003352203238,0.1989003352203238
86.72200000000001,0.1536593204681156,0.1536593204681156
86.72300000000001,0.12559702861662392,0.12559702861662392
86.724,0.12114825043308297,0.12114825043308297
86.72500000000001,0.13920026491689197,0.13920026491689197
86.72600000000001,0.1716449445135113,0.1716449445135113
86.727,0.20591482030902974,0.20591482030902974
86.72800000000001,0.2287697004422098,0.2287697004422098
86.72900000000001,0.23023600283215706,0.23023600283215706
86.73,0.2065539120713813,0.2065539120713813
86.73100000000001,0.1612765351151213,0.1612765351151213
86.73200000000001,0.10420871413487132,0.10420871413487132
86.733,0.04851175508136585,0.04851175508136585
86.73400000000001,0.006844141936260151,0.006844141936260151
86.73500000000001,0.012306052990520677,-0.012306052990520677
86.736,0.0070009248896361065,-0.0070009248896361065
86.73700000000001,0.017763090900583478,0.017763090900583478
86.738,0.05177282540710482,0.05177282540710482
86.739,0.0828896938941226,0.0828896938941226
86.74000000000001,0.1009105783081945,0.1009105783081945
86.741,0.10081983506498249,0.10081983506498249
86.742,0.08443431364078036,0.08443431364078036
86.74300000000001,0.05992432630663935,0.05992432630663935
86.744,0.039331100544749864,0.039331100544749864
86.745,0.034804548456849105,0.034804548456849105
86.74600000000001,0.054674284364089054,0.054674284364089054
86.747,0.10052655654777087,0.10052655654777087
86.748,0.1661736335914994,0.1661736335914994
86.74900000000001,0.23885627614914262,0.23885627614914262
86.75,0.30237603358856946,0.30237603358856946
86.751,0.3413007135355597,0.3413007135355597
86.75200000000001,0.34508253651779963,0.34508253651779963
86.753,0.31095764622762867,0.31095764622762867
86.754,0.2448429348812371,0.2448429348812371
86.75500000000001,0.16000537278544713,0.16000537278544713
86.756,0.07388636535087545,0.07388636535087545
86.757,0.00394710428778966,0.00394710428778966
86.75800000000001,0.03636969811962565,-0.03636969811962565
86.759,0.04054346229178396,-0.04054346229178396
86.76,0.010073842330006078,-0.010073842330006078
86.76100000000001,0.04639065534529241,0.04639065534529241
86.762,0.11553936131366993,0.11553936131366993
86.763,0.1827601702656385,0.1827601702656385
86.76400000000001,0.2354725150155359,0.2354725150155359
86.765,0.26562206758629503,0.26562206758629503
86.766,0.2708228576707654,0.2708228576707654
86.76700000000001,0.25403398180480274,0.25403398180480274
86.768,0.22204528123384915,0.22204528123384915
86.769,0.183315638643339,0.183315638643339
86.77000000000001,0.14579898814161285,0.14579898814161285
86.771,0.11530309088294222,0.11530309088294222
86.772,0.09470210517601418,0.09470210517601418
86.77300000000001,0.08404530648109265,0.08404530648109265
86.774,0.08135576845316272,0.08135576845316272
86.775,0.08375974822395271,0.08375974822395271
86.77600000000001,0.08855958950895082,0.08855958950895082
86.777,0.09395022360819882,0.09395022360819882
86.778,0.09924025831700956,0.09924025831700956
86.77900000000001,0.10461605360463122,0.10461605360463122
86.78,0.1106266851555966,0.1106266851555966
86.781,0.1176327105698074,0.1176327105698074
86.78200000000001,0.1254414788134126,0.1254414788134126
86.783,0.13326139277187377,0.13326139277187377
86.784,0.1399807334490395,0.1399807334490395
86.78500000000001,0.14465463817530488,0.14465463817530488
86.786,0.1470037283236152,0.1470037283236152
86.787,0.14771330629978197,0.14771330629978197
86.78800000000001,0.14837772338402466,0.14837772338402466
86.789,0.15104569462272788,0.15104569462272788
86.79,0.15745848606747592,0.15745848606747592
86.79100000000001,0.16819496644093412,0.16819496644093412
86.792,0.18200728871161598,0.18200728871161598
86.793,0.19562100547484906,0.19562100547484906
86.79400000000001,0.20417554961293694,0.20417554961293694
86.795,0.20231121120620998,0.20231121120620998
86.796,0.1857064718726087,0.1857064718726087
86.79700000000001,0.15269041249966797,0.15269041249966797
86.798,0.10545716556580431,0.10545716556580431
86.799,0.05043704265725557,0.05043704265725557
86.80000000000001,0.0024542312408829536,-0.0024542312408829536
86.801,0.04168707433140739,-0.04168707433140739
86.802,0.05678205788943458,-0.05678205788943458
86.80300000000001,0.0411540300705866,-0.0411540300705866
86.804,0.005624541659790205,0.005624541659790205
86.805,0.07684999961037686,0.07684999961037686
86.80600000000001,0.15944700869205675,0.15944700869205675
86.807,0.23647508420869956,0.23647508420869956
86.808,0.2909095016337788,0.2909095016337788
86.80900000000001,0.30981726841175417,0.30981726841175417
86.81,0.28785069566629207,0.28785069566629207
86.811,0.22907092178950705,0.22907092178950705
86.81200000000001,0.146491956323759,0.146491956323759
86.813,0.05931620745761923,0.05931620745761923
86.81400000000001,0.011538878506446748,-0.011538878506446748
86.81500000000001,0.04852611318828437,-0.04852611318828437
86.816,0.041854817033400105,-0.041854817033400105
86.81700000000001,0.007987794777003066,0.007987794777003066
86.81800000000001,0.09026925219269111,0.09026925219269111
86.819,0.18660724274501583,0.18660724274501583
86.82000000000001,0.27544498821772834,0.27544498821772834
86.82100000000001,0.3372214939840088,0.3372214939840088
86.822,0.35888527097394785,0.35888527097394785
86.82300000000001,0.336616530368373,0.336616530368373
86.82400000000001,0.2761531593299391,0.2761531593299391
86.825,0.19079663145464032,0.19079663145464032
86.82600000000001,0.09779885590156301,0.09779885590156301
86.82700000000001,0.014215635284715145,0.014215635284715145
86.828,0.046646752934544566,-0.046646752934544566
86.82900000000001,0.07735980046734259,-0.07735980046734259
86.83000000000001,0.07675852511066283,-0.07675852511066283
86.831,0.0488218715317833,-0.0488218715317833
86.83200000000001,0.0006953192211870407,-0.0006953192211870407
86.83300000000001,0.059354779189502826,0.059354779189502826
86.834,0.12341644604069257,0.12341644604069257
86.83500000000001,0.18456086661497761,0.18456086661497761
86.83600000000001,0.23676897584994583,0.23676897584994583
86.837,0.2746089393984683,0.2746089393984683
86.83800000000001,0.29319404576892505,0.29319404576892505
86.83900000000001,0.28876718967454273,0.28876718967454273
86.84,0.25989215892811823,0.25989215892811823
86.84100000000001,0.20883673770562794,0.20883673770562794
86.84200000000001,0.14248025405256848,0.14248025405256848
86.843,0.07209287795428221,0.07209287795428221
86.84400000000001,0.011641308617911239,0.011641308617911239
86.84500000000001,0.025213431357512084,-0.025213431357512084
86.846,0.02872250605015203,-0.02872250605015203
86.84700000000001,0.003803981000707557,0.003803981000707557
86.84800000000001,0.0664001083853758,0.0664001083853758
86.849,0.1451305077843943,0.1451305077843943
86.85000000000001,0.2211396469136082,0.2211396469136082
86.85100000000001,0.2753917270703641,0.2753917270703641
86.852,0.2938274636274927,0.2938274636274927
86.85300000000001,0.2714279273358946,0.2714279273358946
86.85400000000001,0.21390925996411103,0.21390925996411103
86.855,0.13642757160488395,0.13642757160488395
86.85600000000001,0.05955938984163134,0.05955938984163134
86.85700000000001,0.0036632817695503306,0.0036632817695503306
86.858,0.016749312869495214,-0.016749312869495214
86.85900000000001,0.003021811237688077,0.003021811237688077
86.86000000000001,0.05673545351204923,0.05673545351204923
86.861,0.12922654614593587,0.12922654614593587
86.86200000000001,0.20093002543942595,0.20093002543942595
86.863,0.25351729727934935,0.25351729727934935
86.864,0.2749403503147918,0.2749403503147918
86.86500000000001,0.2624038702413407,0.2624038702413407
86.866,0.22246862060044492,0.22246862060044492
86.867,0.1684034669952632,0.1684034669952632
86.86800000000001,0.11575056576683518,0.11575056576683518
86.869,0.07757768632685824,0.07757768632685824
86.87,0.06090919372588055,0.06090919372588055
86.87100000000001,0.06536424279422381,0.06536424279422381
86.872,0.08425690290184229,0.08425690290184229
86.873,0.10759585582131104,0.10759585582131104
86.87400000000001,0.12583423168860342,0.12583423168860342
86.875,0.13304961510540725,0.13304961510540725
86.876,0.12851928302508564,0.12851928302508564
86.87700000000001,0.11627876468887699,0.11627876468887699
86.878,0.1029835717838039,0.1029835717838039
86.879,0.09497576226070659,0.09497576226070659
86.88000000000001,0.0956913304543685,0.0956913304543685
86.881,0.10436200818196029,0.10436200818196029
86.882,0.1164458011583065,0.1164458011583065
86.88300000000001,0.12556159510445286,0.12556159510445286
86.884,0.1261463013146682,0.1261463013146682
86.885,0.11579793901267887,0.11579793901267887
86.88600000000001,0.09640179589415077,0.09640179589415077
86.887,0.07360442127961586,0.07360442127961586
86.888,0.054826401659260116,0.054826401659260116
86.88900000000001,0.046558337168274955,0.046558337168274955
86.89,0.05196157155371739,0.05196157155371739
86.891,0.06969333477045536,0.06969333477045536
86.89200000000001,0.09443002787778854,0.09443002787778854
86.893,0.11893256297278754,0.11893256297278754
86.894,0.13691210708433044,0.13691210708433044
86.89500000000001,0.14562798539134092,0.14562798539134092
86.896,0.14720633649508574,0.14720633649508574
86.897,0.14809742997311925,0.14809742997311925
86.89800000000001,0.15674739052740638,0.15674739052740638
86.899,0.1802185819082942,0.1802185819082942
86.9,0.22091912583812978,0.22091912583812978
86.90100000000001,0.27463892671980616,0.27463892671980616
86.902,0.3307113306966345,0.3307113306966345
86.903,0.37444213694582773,0.37444213694582773
86.90400000000001,0.3911910849779321,0.3911910849779321
86.905,0.3709060326486642,0.3709060326486642
86.906,0.3116949161950515,0.3116949161950515
86.90700000000001,0.22125455692300244,0.22125455692300244
86.908,0.1155924631584957,0.1155924631584957
86.909,0.015288065688391805,0.015288065688391805
86.91000000000001,0.05970891215306828,-0.05970891215306828
86.911,0.0952865605632629,-0.0952865605632629
86.912,0.08690398334268756,-0.08690398334268756
86.91300000000001,0.04078273635228913,-0.04078273635228913
86.914,0.027784885108425916,0.027784885108425916
86.915,0.09853569544868512,0.09853569544868512
86.91600000000001,0.15160269637067647,0.15160269637067647
86.917,0.17268208287111797,0.17268208287111797
86.918,0.1566279136647475,0.1566279136647475
86.91900000000001,0.10857413739716582,0.10857413739716582
86.92,0.042381455356818254,0.042381455356818254
86.921,0.023076936058988973,-0.023076936058988973
86.92200000000001,0.06874048265969002,-0.06874048265969002
86.923,0.08002551641760003,-0.08002551641760003
86.924,0.050186031260044284,-0.050186031260044284
86.92500000000001,0.01835572087892734,0.01835572087892734
86.926,0.11486990924569485,0.11486990924569485
86.927,0.2229809800361382,0.2229809800361382
86.92800000000001,0.3243466327935458,0.3243466327935458
86.929,0.4024174289352298,0.4024174289352298
86.93,0.4454391081822566,0.4454391081822566
86.93100000000001,0.4481506265375559,0.4481506265375559
86.932,0.4120123950680499,0.4120123950680499
86.933,0.34415969540217217,0.34415969540217217
86.93400000000001,0.25552628208943995,0.25552628208943995
86.935,0.1586764682464199,0.1586764682464199
86.936,0.06582386226107095,0.06582386226107095
86.93700000000001,0.012653684538605825,-0.012653684538605825
86.938,0.06910217130056029,-0.06910217130056029
86.93900000000001,0.09896152006718362,-0.09896152006718362
86.94000000000001,0.10079670546725128,-0.10079670546725128
86.941,0.076170844132321,-0.076170844132321
86.94200000000001,0.02946044258362379,-0.02946044258362379
86.94300000000001,0.03240686860670272,0.03240686860670272
86.944,0.10041457360929229,0.10041457360929229
86.94500000000001,0.16427696574119866,0.16427696574119866
86.94600000000001,0.21371329708226394,0.21371329708226394
86.947,0.2401239520498053,0.2401239520498053
86.94800000000001,0.238420228470398,0.238420228470398
86.94900000000001,0.20858508191658132,0.20858508191658132
86.95,0.15646405994990453,0.15646405994990453
86.95100000000001,0.0933589277601361,0.0933589277601361
86.95200000000001,0.0342345303714191,0.0342345303714191
86.953,0.005289040335153983,-0.005289040335153983
86.95400000000001,0.012594213468103299,-0.012594213468103299
86.95500000000001,0.01849338726788119,0.01849338726788119
86.956,0.08544505289938686,0.08544505289938686
86.95700000000001,0.17673570571819153,0.17673570571819153
86.95800000000001,0.27385907198370196,0.27385907198370196
86.959,0.35537889985842397,0.35537889985842397
86.96000000000001,0.40212474527251807,0.40212474527251807
86.96100000000001,0.40220822661470823,0.40220822661470823
86.962,0.3544475762111441,0.3544475762111441
86.96300000000001,0.2691137022666128,0.2691137022666128
86.96400000000001,0.1655957724667969,0.1655957724667969
86.965,0.06745436047712405,0.06745436047712405
86.96600000000001,0.0038659206598987694,-0.0038659206598987694
86.96700000000001,0.03490998774780163,-0.03490998774780163
86.968,0.023933926953310092,-0.023933926953310092
86.96900000000001,0.018714522997841376,0.018714522997841376
86.97000000000001,0.07379661906914414,0.07379661906914414
86.971,0.11912465298688946,0.11912465298688946
86.97200000000001,0.1365261958016728,0.1365261958016728
86.97300000000001,0.11772114947991708,0.11772114947991708
86.974,0.06725195275797313,0.06725195275797313
86.97500000000001,0.0014517440587025199,0.0014517440587025199
86.97600000000001,0.056363927998509644,-0.056363927998509644
86.977,0.08310420963952403,-0.08310420963952403
86.97800000000001,0.06332784620137188,-0.06332784620137188
86.97900000000001,0.00543779788225196,0.00543779788225196
86.98,0.11121854625213978,0.11121854625213978
86.98100000000001,0.23053320314493542,0.23053320314493542
86.98200000000001,0.33495358632001415,0.33495358632001415
86.983,0.3993289209975601,0.3993289209975601
86.98400000000001,0.40915455005287593,0.40915455005287593
86.98500000000001,0.36479034968028445,0.36479034968028445
86.986,0.2811941499378934,0.2811941499378934
86.98700000000001,0.1832352921145315,0.1832352921145315
86.988,0.0980497536999958,0.0980497536999958
86.989,0.04684057802516439,0.04684057802516439
86.99000000000001,0.03870565537235682,0.03870565537235682
86.991,0.06842381260641717,0.06842381260641717
86.992,0.11885416314797226,0.11885416314797226
86.99300000000001,0.16711360956685462,0.16711360956685462
86.994,0.19247779711596125,0.19247779711596125
86.995,0.18340104271732516,0.18340104271732516
86.99600000000001,0.14135259802871114,0.14135259802871114
86.997,0.08022270703036694,0.08022270703036694
86.998,0.021516333977588786,0.021516333977588786
86.99900000000001,0.013056197279668558,-0.013056197279668558
87.0,0.009122147012920467,-0.009122147012920467
87.001,0.03519260261657542,0.03519260261657542
87.00200000000001,0.10821711332613271,0.10821711332613271
87.003,0.1881835475646949,0.1881835475646949
87.004,0.25007337941018326,0.25007337941018326
87.00500000000001,0.27365007074988723,0.27365007074988723
87.006,0.2500770159603607,0.2500770159603607
87.007,0.18497866497761528,0.18497866497761528
87.00800000000001,0.09695439503003866,0.09695439503003866
87.009,0.012017514183284339,0.012017514183284339
87.01,0.04427272522653003,-0.04427272522653003
87.01100000000001,0.05450696447024905,-0.05450696447024905
87.012,0.014562754281315482,-0.014562754281315482
87.013,0.06535393054922789,0.06535393054922789
87.01400000000001,0.1639828790479405,0.1639828790479405
87.015,0.25547144225334506,0.25547144225334506
87.016,0.31694791411656653,0.31694791411656653
87.01700000000001,0.3348713029724446,0.3348713029724446
87.018,0.3083070642419128,0.3083070642419128
87.019,0.24831951520832618,0.24831951520832618
87.02000000000001,0.17391013385529597,0.17391013385529597
87.021,0.10596138394390531,0.10596138394390531
87.022,0.0611517032496427,0.0611517032496427
87.02300000000001,0.04766097047551909,0.04766097047551909
87.024,0.06377965690317278,0.06377965690317278
87.025,0.09953834546144424,0.09953834546144424
87.02600000000001,0.1405329326959257,0.1405329326959257
87.027,0.172535714848693,0.172535714848693
87.028,0.18541193967276137,0.18541193967276137
87.02900000000001,0.17527723800680373,0.17527723800680373
87.03,0.14454287387119935,0.14454287387119935
87.031,0.10022812509161905,0.10022812509161905
87.03200000000001,0.051416386397646896,0.051416386397646896
87.033,0.006846220048557949,0.006846220048557949
87.034,0.0266338604918529,-0.0266338604918529
87.03500000000001,0.0445126464227672,-0.0445126464227672
87.036,0.04423786368027349,-0.04423786368027349
87.037,0.024596439870559594,-0.024596439870559594
87.03800000000001,0.014559118394333659,0.014559118394333659
87.039,0.07193749946934624,0.07193749946934624
87.04,0.14392519154538896,0.14392519154538896
87.04100000000001,0.22371680534874194,0.22371680534874194
87.042,0.30113939921196975,0.30113939921196975
87.043,0.3636896828004381,0.3636896828004381
87.04400000000001,0.39886706330173394,0.39886706330173394
87.045,0.3973347993659164,0.3973347993659164
87.046,0.3559928471524463,0.3559928471524463
87.04700000000001,0.27989060124175436,0.27989060124175436
87.048,0.182136452345238,0.182136452345238
87.049,0.0815251399856105,0.0815251399856105
87.05000000000001,0.0016731417463518028,-0.0016731417463518028
87.051,0.050680703931251014,-0.050680703931251014
87.052,0.056531769863571446,-0.056531769863571446
87.05300000000001,0.020453742305732492,-0.020453742305732492
87.054,0.04644244159594613,0.04644244159594613
87.055,0.12612187109637252,0.12612187109637252
87.05600000000001,0.19839757699699745,0.19839757699699745
87.057,0.2461365658973873,0.2461365658973873
87.058,0.25941228749872614,0.25941228749872614
87.05900000000001,0.23747023166502212,0.23747023166502212
87.06,0.18807108805467165,0.18807108805467165
87.061,0.12458531471543277,0.12458531471543277
87.06200000000001,0.061870412266293195,0.061870412266293195
87.063,0.012260959956445605,0.012260959956445605
87.06400000000001,0.017140367555730673,-0.017140367555730673
87.06500000000001,0.025198023957660576,-0.025198023957660576
87.066,0.015532468552094447,-0.015532468552094447
87.06700000000001,0.005967958935431117,0.005967958935431117
87.06800000000001,0.03387220355956355,0.03387220355956355
87.069,0.06514123737448796,0.06514123737448796
87.07000000000001,0.09961669033668263,0.09961669033668263
87.07100000000001,0.1389923900521035,0.1389923900521035
87.072,0.18478131274525222,0.18478131274525222
87.07300000000001,0.23616681118628047,0.23616681118628047
87.07400000000001,0.2886692589722655,0.2886692589722655
87.075,0.334260535253041,0.334260535253041
87.07600000000001,0.36303078826012136,0.36303078826012136
87.07700000000001,0.36594293938968026,0.36594293938968026
87.078,0.33779846171184635,0.33779846171184635
87.07900000000001,0.27942307812870726,0.27942307812870726
87.08000000000001,0.19829944642445518,0.19829944642445518
87.081,0.1073492934736966,0.1073492934736966
87.08200000000001,0.02214025383193885,0.02214025383193885
87.08300000000001,0.04272391481661153,-0.04272391481661153
87.084,0.07702838776405874,-0.07702838776405874
87.08500000000001,0.0772524006483225,-0.0772524006483225
87.08600000000001,0.04716116047879826,-0.04716116047879826
87.087,0.003408964950418536,0.003408964950418536
87.08800000000001,0.06116749609380734,0.06116749609380734
87.08900000000001,0.11263615671730087,0.11263615671730087
87.09,0.14720238668166896,0.14720238668166896
87.09100000000001,0.15923698537370035,0.15923698537370035
87.09200000000001,0.14887246016127698,0.14887246016127698
87.093,0.12142463324099739,0.12142463324099739
87.09400000000001,0.08577281894324074,0.08577281894324074
87.09500000000001,0.05220732845879983,0.05220732845879983
87.096,0.0302776128049127,0.0302776128049127
87.09700000000001,0.027058145477913964,0.027058145477913964
87.09800000000001,0.0460593448320592,0.0460593448320592
87.099,0.08682395182431923,0.08682395182431923
87.10000000000001,0.14512229476945637,0.14512229476945637
87.10100000000001,0.2136126633508244,0.2136126633508244
87.102,0.2828473691709519,0.2828473691709519
87.10300000000001,0.3425390050087891,0.3425390050087891
87.10400000000001,0.3830117776278896,0.3830117776278896
87.105,0.3967265024277771,0.3967265024277771
87.10600000000001,0.37969323626079077,0.37969323626079077
87.10700000000001,0.3325094327136553,0.3325094327136553
87.108,0.26073360868088824,0.26073360868088824
87.10900000000001,0.17436516021646975,0.17436516021646975
87.11000000000001,0.0863613267697414,0.0863613267697414
87.111,0.010354728578662709,0.010354728578662709
87.11200000000001,0.04202232089900981,-0.04202232089900981
87.113,0.06362508624361551,-0.06362508624361551
87.114,0.05347360172813698,-0.05347360172813698
87.11500000000001,0.017127498744500258,-0.017127498744500258
87.116,0.0344501270104387,0.0344501270104387
87.117,0.08737461288910287,0.08737461288910287
87.11800000000001,0.12813604300327386,0.12813604300327386
87.119,0.14692444091982382,0.14692444091982382
87.12,0.14013649542774553,0.14013649542774553
87.12100000000001,0.11137855868024671,0.11137855868024671
87.122,0.07063726769102585,0.07063726769102585
87.123,0.03175494131349499,0.03175494131349499
87.12400000000001,0.008801515658295456,0.008801515658295456
87.125,0.01225437398543927,0.01225437398543927
87.126,0.045988619826164534,0.045988619826164534
87.12700000000001,0.10590721129383396,0.10590721129383396
87.128,0.1806370180115877,0.1806370180115877
87.129,0.2541815316376195,0.2541815316376195
87.13000000000001,0.30989252001895395,0.30989252001895395
87.131,0.3347450851506373,0.3347450851506373
87.132,0.3227829693676074,0.3227829693676074
87.13300000000001,0.27678720824164516,0.27678720824164516
87.134,0.20767349540045,0.20767349540045
87.135,0.1317285616349515,0.1317285616349515
87.13600000000001,0.06639205944801208,0.06639205944801208
87.137,0.025710999817277314,0.025710999817277314
87.138,0.016713212288009593,0.016713212288009593
87.13900000000001,0.037718510084369994,0.037718510084369994
87.14,0.07908218106622766,0.07908218106622766
87.141,0.12618366084292942,0.12618366084292942
87.14200000000001,0.16382440224125605,0.16382440224125605
87.143,0.18077268359556986,0.18077268359556986
87.144,0.17312218169312477,0.17312218169312477
87.14500000000001,0.14544934346431715,0.14544934346431715
87.146,0.10938185897966246,0.10938185897966246
87.147,0.07995164168604108,0.07995164168604108
87.14800000000001,0.07077868388387354,0.07077868388387354
87.149,0.08951318986218415,0.08951318986218415
87.15,0.1349292425625257,0.1349292425625257
87.15100000000001,0.1966115792375409,0.1966115792375409
87.152,0.25743128012942607,0.25743128012942607
87.153,0.2981819741149476,0.2981819741149476
87.15400000000001,0.30309035444379484,0.30309035444379484
87.155,0.26462344683825423,0.26462344683825423
87.156,0.18618351255023646,0.18618351255023646
87.15700000000001,0.08186591610141702,0.08186591610141702
87.158,0.02671369064782725,-0.02671369064782725
87.159,0.11568350784596593,-0.11568350784596593
87.16000000000001,0.164842213963161,-0.164842213963161
87.161,0.16264487797398852,-0.16264487797398852
87.162,0.10893137994159952,-0.10893137994159952
87.16300000000001,0.014734895133447057,-0.014734895133447057
87.164,0.10067067810246044,0.10067067810246044
87.165,0.21458240034244613,0.21458240034244613
87.16600000000001,0.306185630905371,0.306185630905371
87.167,0.3609805665827348,0.3609805665827348
87.168,0.37327532588465173,0.37327532588465173
87.16900000000001,0.34632261094719907,0.34632261094719907
87.17,0.2903591155129699,0.2903591155129699
87.171,0.21934324589490894,0.21934324589490894
87.17200000000001,0.1474303601664575,0.1474303601664575
87.173,0.08613239604040124,0.08613239604040124
87.174,0.042747426536783095,0.042747426536783095
87.17500000000001,0.020161268182222747,0.020161268182222747
87.176,0.017689709617586757,0.017689709617586757
87.177,0.03238346220140875,0.03238346220140875
87.17800000000001,0.06021715263836258,0.06021715263836258
87.179,0.09679468889263632,0.09679468889263632
87.18,0.1375192049773608,0.1375192049773608
87.18100000000001,0.1774607264265058,0.1774607264265058
87.182,0.21129598055330678,0.21129598055330678
87.183,0.23364352279124057,0.23364352279124057
87.18400000000001,0.23990380953090606,0.23990380953090606
87.185,0.22743266437734366,0.22743266437734366
87.186,0.1966484919055802,0.1966484919055802
87.18700000000001,0.15159832222976233,0.15159832222976233
87.188,0.09962576335011408,0.09962576335011408
87.18900000000001,0.050060792988243286,0.050060792988243286
87.19000000000001,0.012190288894997625,0.012190288894997625
87.191,0.00695425913997294,-0.00695425913997294
87.19200000000001,0.004344277626242787,-0.004344277626242787
87.19300000000001,0.01830752005389291,0.01830752005389291
87.194,0.05507189376569244,0.05507189376569244
87.19500000000001,0.09746038505203725,0.09746038505203725
87.19600000000001,0.1367328272260151,0.1367328272260151
87.197,0.1661706252377535,0.1661706252377535
87.19800000000001,0.18264592648714473,0.18264592648714473
87.19900000000001,0.18704284447366604,0.18704284447366604
87.2,0.18344990807779227,0.18344990807779227
87.20100000000001,0.1774250269830504,0.1774250269830504
87.20200000000001,0.17391399014561237,0.17391399014561237
87.203,0.17549525278909717,0.17549525278909717
87.20400000000001,0.18150402739837235,0.18150402739837235
87.20500000000001,0.18830098640388315,0.18830098640388315
87.206,0.19058892384518278,0.19058892384518278
87.20700000000001,0.18335676921806687,0.18335676921806687
87.20800000000001,0.16383987802975097,0.16383987802975097
87.209,0.13287970111337244,0.13287970111337244
87.21000000000001,0.09523970218416178,0.09523970218416178
87.21100000000001,0.058732251592110485,0.058732251592110485
87.212,0.03234691154015534,0.03234691154015534
87.21300000000001,0.023853041972267786,0.023853041972267786
87.21400000000001,0.0375073081011672,0.0375073081011672
87.215,0.07249292473800462,0.07249292473800462
87.21600000000001,0.12255599722044619,0.12255599722044619
87.21700000000001,0.1770243026190217,0.1770243026190217
87.218,0.22305892595400012,0.22305892595400012
87.21900000000001,0.2486736547342101,0.2486736547342101
87.22000000000001,0.2458322846315888,0.2458322846315888
87.221,0.21285594097800842,0.21285594097800842
87.22200000000001,0.1554709419625493,0.1554709419625493
87.22300000000001,0.0860977282579587,0.0860977282579587
87.224,0.021378990039290002,0.021378990039290002
87.22500000000001,0.021610265614021684,-0.021610265614021684
87.22600000000001,0.02964165793114315,-0.02964165793114315
87.227,0.0029475666731848538,0.0029475666731848538
87.22800000000001,0.07211584203955912,0.07211584203955912
87.22900000000001,0.16427463497368255,0.16427463497368255
87.23,0.2589225797795569,0.2589225797795569
87.23100000000001,0.3332906032583789,0.3332906032583789
87.23200000000001,0.36794300504571775,0.36794300504571775
87.233,0.3519228134614447,0.3519228134614447
87.23400000000001,0.28603455257773236,0.28603455257773236
87.23500000000001,0.1832599827614929,0.1832599827614929
87.236,0.06602292670141119,0.06602292670141119
87.23700000000001,0.039125693717288024,-0.039125693717288024
87.238,0.10808330415913425,-0.10808330415913425
87.239,0.12529967055919045,-0.12529967055919045
87.24000000000001,0.08774353892497677,-0.08774353892497677
87.241,0.0056165593679536885,-0.0056165593679536885
87.242,0.10040855365399515,0.10040855365399515
87.24300000000001,0.2046696208479719,0.2046696208479719
87.244,0.28318686946099625,0.28318686946099625
87.245,0.3196658634553342,0.3196658634553342
87.24600000000001,0.30919226391816856,0.30919226391816856
87.247,0.25868453981426054,0.25868453981426054
87.248,0.18414339771646748,0.18414339771646748
87.24900000000001,0.10567266305728173,0.10567266305728173
87.25,0.04185363868891634,0.04185363868891634
87.251,0.00514939994267305,0.00514939994267305
87.25200000000001,0.00041824833582793097,-0.00041824833582793097
87.253,0.021120043185007376,0.021120043185007376
87.254,0.06032563543572622,0.06032563543572622
87.25500000000001,0.10611077235846111,0.10611077235846111
87.256,0.14921864800859397,0.14921864800859397
87.257,0.18427955792108186,0.18427955792108186
87.25800000000001,0.20993580411686552,0.20993580411686552
87.259,0.22730889215678984,0.22730889215678984
87.26,0.23771344542055406,0.23771344542055406
87.26100000000001,0.24077024497956034,0.24077024497956034
87.262,0.2338483229124113,0.2338483229124113
87.263,0.21316353779340003,0.21316353779340003
87.26400000000001,0.17611447017157644,0.17611447017157644
87.265,0.12384041948897528,0.12384041948897528
87.266,0.06278398811113806,0.06278398811113806
87.26700000000001,0.004330734147259596,0.004330734147259596
87.268,0.03770713826792116,-0.03770713826792116
87.269,0.05114451011406007,-0.05114451011406007
87.27000000000001,0.02970721840406998,-0.02970721840406998
87.271,0.02401175402447908,0.02401175402447908
87.272,0.09816788441899904,0.09816788441899904
87.27300000000001,0.1742954947310038,0.1742954947310038
87.274,0.23236799863745294,0.23236799863745294
87.275,0.2568058859997915,0.2568058859997915
87.27600000000001,0.24151250093658705,0.24151250093658705
87.277,0.19221944457609674,0.19221944457609674
87.278,0.12522609487360392,0.12522609487360392
87.27900000000001,0.06276942367991878,0.06276942367991878
87.28,0.026378014308920283,0.026378014308920283
87.281,0.030264758245967194,0.030264758245967194
87.28200000000001,0.07684708185315192,0.07684708185315192
87.283,0.15582675998638873,0.15582675998638873
87.284,0.24712533056762198,0.24712533056762198
87.28500000000001,0.32673437540301187,0.32673437540301187
87.286,0.3736179971525446,0.3736179971525446
87.287,0.3755062872918684,0.3755062872918684
87.28800000000001,0.33183769316623724,0.33183769316623724
87.289,0.25309224308857514,0.25309224308857514
87.29,0.156961046132986,0.156961046132986
87.29100000000001,0.06280401964004634,0.06280401964004634
87.292,0.013683013981734438,-0.013683013981734438
87.293,0.0638842404018547,-0.0638842404018547
87.29400000000001,0.08685257790064282,-0.08685257790064282
87.295,0.08723780375140033,-0.08723780375140033
87.296,0.07167859865562232,-0.07167859865562232
87.29700000000001,0.045275272718118154,-0.045275272718118154
87.298,0.009616769483907217,-0.009616769483907217
87.299,0.03687505148508352,0.03687505148508352
87.30000000000001,0.09651962591877572,0.09651962591877572
87.301,0.1690065905816518,0.1690065905816518
87.302,0.2486675636355491,0.2486675636355491
87.30300000000001,0.3237996813226647,0.3237996813226647
87.304,0.3786935379865346,0.3786935379865346
87.305,0.39795931149212094,0.39795931149212094
87.30600000000001,0.3717788535225739,0.3717788535225739
87.307,0.30021015733104384,0.30021015733104384
87.308,0.1948435581427046,0.1948435581427046
87.30900000000001,0.07692279549229064,0.07692279549229064
87.31,0.0277712791251844,-0.0277712791251844
87.311,0.09583431086620409,-0.09583431086620409
87.31200000000001,0.11281922771317632,-0.11281922771317632
87.313,0.07737442943907125,-0.07737442943907125
87.31400000000001,0.001571860006981396,-0.001571860006981396
87.31500000000001,0.09272175340758171,0.09272175340758171
87.316,0.18029261484156134,0.18029261484156134
87.31700000000001,0.23980101836750145,0.23980101836750145
87.31800000000001,0.2595109000569895,0.2595109000569895
87.319,0.23980261584890283,0.23980261584890283
87.32000000000001,0.1918496470650044,0.1918496470650044
87.32100000000001,0.13312281264265358,0.13312281264265358
87.322,0.08139964416528245,0.08139964416528245
87.32300000000001,0.04935756430359062,0.04935756430359062
87.32400000000001,0.04149573449951616,0.04149573449951616
87.325,0.05420332466550648,0.05420332466550648
87.32600000000001,0.07862160688967745,0.07862160688967745
87.32700000000001,0.10496329362170376,0.10496329362170376
87.328,0.12650724548328562,0.12650724548328562
87.32900000000001,0.14172773372784753,0.14172773372784753
87.33000000000001,0.15383620808415266,0.15383620808415266
87.331,0.16808765104025603,0.16808765104025603
87.33200000000001,0.1881181645245671,0.1881181645245671
87.33300000000001,0.21298297704256064,0.21298297704256064
87.334,0.23629659848200113,0.23629659848200113
87.33500000000001,0.2480361151386079,0.2480361151386079
87.33600000000001,0.23847192756403124,0.23847192756403124
87.337,0.20275895436478542,0.20275895436478542
87.33800000000001,0.14432417049980906,0.14432417049980906
87.33900000000001,0.07549987780691647,0.07549987780691647
87.34,0.014790015751497965,0.014790015751497965
87.34100000000001,0.01860497293649832,-0.01860497293649832
87.34200000000001,0.011289381098494089,-0.011289381098494089
87.343,0.039045361834566306,0.039045361834566306
87.34400000000001,0.12154817700891818,0.12154817700891818
87.34500000000001,0.21435154913194765,0.21435154913194765
87.346,0.2905368691359751,0.2905368691359751
87.34700000000001,0.32619087394531787,0.32619087394531787
87.34800000000001,0.3080172064672242,0.3080172064672242
87.349,0.23799331908401844,0.23799331908401844
87.35000000000001,0.13343853387318205,0.13343853387318205
87.35100000000001,0.02230988789202204,0.02230988789202204
87.352,0.0649083270370423,-0.0649083270370423
87.35300000000001,0.10422588374164277,-0.10422588374164277
87.35400000000001,0.08525635066549819,-0.08525635066549819
87.355,0.014184326246530987,-0.014184326246530987
87.35600000000001,0.08832186044225532,0.08832186044225532
87.35700000000001,0.19355189484827307,0.19355189484827307
87.358,0.2734744452434532,0.2734744452434532
87.35900000000001,0.3089719934238473,0.3089719934238473
87.36000000000001,0.2950357738568381,0.2950357738568381
87.361,0.24139659222654464,0.24139659222654464
87.36200000000001,0.16856307436773954,0.16856307436773954
87.363,0.10070338357240183,0.10070338357240183
87.364,0.05776438981200749,0.05776438981200749
87.36500000000001,0.04937740272972668,0.04937740272972668
87.366,0.07242734177778853,0.07242734177778853
87.367,0.11290932033358558,0.11290932033358558
87.36800000000001,0.15129047193501433,0.15129047193501433
87.369,0.1694963555423663,0.1694963555423663
87.37,0.1571923781863811,0.1571923781863811
87.37100000000001,0.11534766101576976,0.11534766101576976
87.372,0.05601493106087552,0.05601493106087552
87.373,0.0014971754972066265,-0.0014971754972066265
87.37400000000001,0.03675349323686705,-0.03675349323686705
87.375,0.034651674743216176,-0.034651674743216176
87.376,0.009780412823152451,0.009780412823152451
87.37700000000001,0.08964930295011664,0.08964930295011664
87.378,0.1879413888576642,0.1879413888576642
87.379,0.2821239069668089,0.2821239069668089
87.38000000000001,0.35018767759198366,0.35018767759198366
87.381,0.37639701849970786,0.37639701849970786
87.382,0.35520932769587765,0.35520932769587765
87.38300000000001,0.2924328563547003,0.2924328563547003
87.384,0.20349059124056934,0.20349059124056934
87.385,0.1094081493259158,0.1094081493259158
87.38600000000001,0.031650667450027425,0.031650667450027425
87.387,0.01289752071892758,-0.01289752071892758
87.388,0.015673959118961744,-0.015673959118961744
87.38900000000001,0.02184655098032695,0.02184655098032695
87.39,0.08871504678128206,0.08871504678128206
87.391,0.16712504763820912,0.16712504763820912
87.39200000000001,0.23647812553908842,0.23647812553908842
87.393,0.2780514765149529,0.2780514765149529
87.394,0.27932518788397886,0.27932518788397886
87.39500000000001,0.23707665560728763,0.23707665560728763
87.396,0.15854261217893684,0.15854261217893684
87.397,0.060280308934744786,0.060280308934744786
87.39800000000001,0.035195258012983066,-0.035195258012983066
87.399,0.1044212334339788,-0.1044212334339788
87.4,0.1286135952214823,-0.1286135952214823
87.40100000000001,0.09860047901201419,-0.09860047901201419
87.402,0.01776214476480331,-0.01776214476480331
87.403,0.09796319688738353,0.09796319688738353
87.40400000000001,0.2232773185893664,0.2232773185893664
87.405,0.3293546460166312,0.3293546460166312
87.406,0.39095961707809246,0.39095961707809246
87.40700000000001,0.3930190418098225,0.3930190418098225
87.408,0.3348242596606903,0.3348242596606903
87.409,0.2305779568851758,0.2305779568851758
87.41000000000001,0.10596248988618173,0.10596248988618173
87.411,0.00846896413501863,-0.00846896413501863
87.412,0.08532386326219288,-0.08532386326219288
87.41300000000001,0.1075923402495561,-0.1075923402495561
87.414,0.07299940788847303,-0.07299940788847303
87.415,0.005775699559715575,0.005775699559715575
87.41600000000001,0.10507623699638069,0.10507623699638069
87.417,0.1972618082202653,0.1972618082202653
87.418,0.2586414762679916,0.2586414762679916
87.41900000000001,0.27599826881793144,0.27599826881793144
87.42,0.249807167051892,0.249807167051892
87.421,0.1932807053839325,0.1932807053839325
87.42200000000001,0.1276654179658696,0.1276654179658696
87.423,0.0753503993842366,0.0753503993842366
87.424,0.05297767028285749,0.05297767028285749
87.42500000000001,0.06667101931894925,0.06667101931894925
87.426,0.11076237219285878,0.11076237219285878
87.427,0.17024394081467897,0.17024394081467897
87.42800000000001,0.22599112008106914,0.22599112008106914
87.429,0.2609678128771291,0.2609678128771291
87.43,0.26540055093337056,0.26540055093337056
87.43100000000001,0.23934135516042,0.23934135516042
87.432,0.19196406242885966,0.19196406242885966
87.433,0.1380306949676149,0.1380306949676149
87.43400000000001,0.09285601294938872,0.09285601294938872
87.435,0.06750382266283417,0.06750382266283417
87.436,0.0657569560700082,0.0657569560700082
87.43700000000001,0.08370901824461563,0.08370901824461563
87.438,0.11189056405045861,0.11189056405045861
87.43900000000001,0.13899592644986014,0.13899592644986014
87.44000000000001,0.1558039414473431,0.1558039414473431
87.441,0.157928566750986,0.157928566750986
87.44200000000001,0.14655066981636433,0.14655066981636433
87.44300000000001,0.12706415974876184,0.12706415974876184
87.444,0.10632817728530641,0.10632817728530641
87.44500000000001,0.0896833029781956,0.0896833029781956
87.44600000000001,0.07890970333479297,0.07890970333479297
87.447,0.07188988081383418,0.07188988081383418
87.44800000000001,0.06405458127237273,0.06405458127237273
87.44900000000001,0.05099483436694929,0.05099483436694929
87.45,0.031170193345690267,0.031170193345690267
87.45100000000001,0.007593703024767029,0.007593703024767029
87.45200000000001,0.012259236021012643,-0.012259236021012643
87.453,0.01842398108149257,-0.01842398108149257
87.45400000000001,0.0017133886896436579,-0.0017133886896436579
87.45500000000001,0.042805407444548305,0.042805407444548305
87.456,0.11333073417984796,0.11333073417984796
87.45700000000001,0.2007578029886583,0.2007578029886583
87.45800000000001,0.29033166676407096,0.29033166676407096
87.459,0.36511720193328223,0.36511720193328223
87.46000000000001,0.4102954628925706,0.4102954628925706
87.46100000000001,0.41702700506525314,0.41702700506525314
87.462,0.3847516012359664,0.3847516012359664
87.46300000000001,0.3212694333782973,0.3212694333782973
87.46400000000001,0.24061201340492522,0.24061201340492522
87.465,0.1593505665245809,0.1593505665245809
87.46600000000001,0.09241240250654181,0.09241240250654181
87.46700000000001,0.04956669027280758,0.04956669027280758
87.468,0.033493028694290494,0.033493028694290494
87.46900000000001,0.039854254765679276,0.039854254765679276
87.47000000000001,0.05921847303918293,0.05921847303918293
87.471,0.08018434526466622,0.08018434526466622
87.47200000000001,0.09278751521820006,0.09278751521820006
87.47300000000001,0.0912601529303474,0.0912601529303474
87.474,0.07545487901009151,0.07545487901009151
87.47500000000001,0.0506408005698884,0.0506408005698884
87.47600000000001,0.025815220997892796,0.025815220997892796
87.477,0.011037777005082017,0.011037777005082017
87.47800000000001,0.014505479322041603,0.014505479322041603
87.47900000000001,0.040114675305167324,0.040114675305167324
87.48,0.08611128141264901,0.08611128141264901
87.48100000000001,0.14515918544511708,0.14515918544511708
87.48200000000001,0.20582263033053194,0.20582263033053194
87.483,0.25513111300382185,0.25513111300382185
87.48400000000001,0.28163953588172075,0.28163953588172075
87.48500000000001,0.27826427757612016,0.27826427757612016
87.486,0.24420015349711255,0.24420015349711255
87.48700000000001,0.18540941545229317,0.18540941545229317
87.488,0.11349395389456207,0.11349395389456207
87.489,0.043152686417436525,0.043152686417436525
87.49000000000001,0.011202689892300777,-0.011202689892300777
87.491,0.038848200434093205,-0.038848200434093205
87.492,0.03528723878860007,-0.03528723878860007
87.49300000000001,0.0032366723299473987,-0.0032366723299473987
87.494,0.04824186988582291,0.04824186988582291
87.495,0.10626355028406209,0.10626355028406209
87.49600000000001,0.1576177611310705,0.1576177611310705
87.497,0.19226342852758993,0.19226342852758993
87.498,0.205821346794842,0.205821346794842
87.49900000000001,0.20034261683908605,0.20034261683908605
87.5,0.18314396065145777,0.18314396065145777
87.501,0.16409336589920676,0.16409336589920676
87.50200000000001,0.15221681074398452,0.15221681074398452
87.503,0.1527168974781301,0.1527168974781301
87.504,0.16536582680719936,0.16536582680719936
87.50500000000001,0.18478954888682586,0.18478954888682586
87.506,0.20253595220807208,0.20253595220807208
87.507,0.2102215047754159,0.2102215047754159
87.50800000000001,0.20267976115974706,0.20267976115974706
87.509,0.18002217146483002,0.18002217146483002
87.51,0.1478785924157977,0.1478785924157977
87.51100000000001,0.11569735486165,0.11569735486165
87.512,0.09364796869928593,0.09364796869928593
87.513,0.08915724421791671,0.08915724421791671
87.51400000000001,0.10425191802163214,0.10425191802163214
87.515,0.13462445340299323,0.13462445340299323
87.516,0.17076719417383734,0.17076719417383734
87.51700000000001,0.20082690936561276,0.20082690936561276
87.518,0.21425397801245483,0.21425397801245483
87.519,0.20505628875377058,0.20505628875377058
87.52000000000001,0.1736073944187737,0.1736073944187737
87.521,0.12645152584173425,0.12645152584173425
87.522,0.07422210608642343,0.07422210608642343
87.52300000000001,0.028411112738760513,0.028411112738760513
87.524,0.001919168199675969,-0.001919168199675969
87.525,0.012419683902215928,-0.012419683902215928
87.52600000000001,0.004063917114526694,-0.004063917114526694
87.527,0.017978293296907255,0.017978293296907255
87.528,0.04666142670031714,0.04666142670031714
87.52900000000001,0.07565671253276474,0.07565671253276474
87.53,0.10126216752770989,0.10126216752770989
87.531,0.12299439461952022,0.12299439461952022
87.53200000000001,0.14276548674496148,0.14276548674496148
87.533,0.1631007251964416,0.1631007251964416
87.534,0.18520976712745973,0.18520976712745973
87.53500000000001,0.20775422201041915,0.20775422201041915
87.536,0.22685213870694843,0.22685213870694843
87.537,0.23734617899504173,0.23734617899504173
87.53800000000001,0.23483885205231259,0.23483885205231259
87.539,0.21767036832880615,0.21767036832880615
87.54,0.18801265121815902,0.18801265121815902
87.54100000000001,0.1515815209252569,0.1515815209252569
87.542,0.11600417465684343,0.11600417465684343
87.543,0.0884144506425113,0.0884144506425113
87.54400000000001,0.07317337385726996,0.07317337385726996
87.545,0.07059357225133422,0.07059357225133422
87.546,0.07718017783892384,0.07718017783892384
87.54700000000001,0.08731968902683596,0.08731968902683596
87.548,0.09577194937184097,0.09577194937184097
87.549,0.09997497693114998,0.09997497693114998
87.55000000000001,0.10120325172498612,0.10120325172498612
87.551,0.10403308503596365,0.10403308503596365
87.552,0.11422233580107855,0.11422233580107855
87.55300000000001,0.13576491285050385,0.13576491285050385
87.554,0.16827981388065671,0.16827981388065671
87.555,0.2058696158410327,0.2058696158410327
87.55600000000001,0.23811535751466884,0.23811535751466884
87.557,0.2531105722609617,0.2531105722609617
87.558,0.24164334246071384,0.24164334246071384
87.55900000000001,0.20110524964290644,0.20110524964290644
87.56,0.13765422994747567,0.13765422994747567
87.561,0.06563743536172151,0.06563743536172151
87.56200000000001,0.004154580508146211,0.004154580508146211
87.563,0.02837259787407831,-0.02837259787407831
87.56400000000001,0.02000222109871197,-0.02000222109871197
87.56500000000001,0.030429530734395138,0.030429530734395138
87.566,0.11202274611522012,0.11202274611522012
87.56700000000001,0.20415829194683965,0.20415829194683965
87.56800000000001,0.28195024375903843,0.28195024375903843
87.569,0.32326537819855194,0.32326537819855194
87.57000000000001,0.3152121229717779,0.3152121229717779
87.57100000000001,0.2581018065207856,0.2581018065207856
87.572,0.1656245712632638,0.1656245712632638
87.57300000000001,0.06113231341360437,0.06113231341360437
87.57400000000001,0.028883760990570106,-0.028883760990570106
87.575,0.08217483334029996,-0.08217483334029996
87.57600000000001,0.08678030457921682,-0.08678030457921682
87.57700000000001,0.043977920234436696,-0.043977920234436696
87.578,0.032648376768350085,0.032648376768350085
87.57900000000001,0.12161490079299875,0.12161490079299875
87.58000000000001,0.19997647738536473,0.19997647738536473
87.581,0.24979992520324745,0.24979992520324745
87.58200000000001,0.26275996374514365,0.26275996374514365
87.58300000000001,0.24161450922929184,0.24161450922929184
87.584,0.1983351394896622,0.1983351394896622
87.58500000000001,0.14969838462521645,0.14969838462521645
87.58600000000001,0.11185941804834365,0.11185941804834365
87.587,0.09562462045959674,0.09562462045959674
87.58800000000001,0.10378559038041235,0.10378559038041235
87.58900000000001,0.13112515089221133,0.13112515089221133
87.59,0.16682506758246296,0.16682506758246296
87.59100000000001,0.19828769001534274,0.19828769001534274
87.59200000000001,0.2150467566364882,0.2150467566364882
87.593,0.21156170365009608,0.21156170365009608
87.59400000000001,0.1881839709618789,0.1881839709618789
87.59500000000001,0.1502542668199136,0.1502542668199136
87.596,0.10589614411268644,0.10589614411268644
87.59700000000001,0.06341639639140229,0.06341639639140229
87.59800000000001,0.029216752164379356,0.029216752164379356
87.599,0.006803730931272733,0.006803730931272733
87.60000000000001,0.0030008239891661237,-0.0030008239891661237
87.60100000000001,0.0010063342777364426,-0.0010063342777364426
87.602,0.011614181438363458,0.011614181438363458
87.60300000000001,0.034179002101658584,0.034179002101658584
87.60400000000001,0.06656333606730835,0.06656333606730835
87.605,0.10848469139003458,0.10848469139003458
87.60600000000001,0.1583802868176578,0.1583802868176578
87.60700000000001,0.2124496896644017,0.2124496896644017
87.608,0.26440142272190803,0.26440142272190803
87.60900000000001,0.3061901695272231,0.3061901695272231
87.61000000000001,0.3296589840199149,0.3296589840199149
87.611,0.32864720570438366,0.32864720570438366
87.61200000000001,0.3009177935457472,0.3009177935457472
87.613,0.2492701966826978,0.2492701966826978
87.614,0.18143077196391477,0.18143077196391477
87.61500000000001,0.10867343053413814,0.10867343053413814
87.616,0.043497884448999935,0.043497884448999935
87.617,0.00303799250447101,-0.00303799250447101
87.61800000000001,0.02365013968840357,-0.02365013968840357
87.619,0.016256898527355346,-0.016256898527355346
87.62,0.015799225747459067,0.015799225747459067
87.62100000000001,0.06471521826794602,0.06471521826794602
87.622,0.12006794980159197,0.12006794980159197
87.623,0.17104741448798966,0.17104741448798966
87.62400000000001,0.20856656357560355,0.20856656357560355
87.625,0.22682672841373064,0.22682672841373064
87.626,0.2240922909171994,0.2240922909171994
87.62700000000001,0.20262313825925893,0.20262313825925893
87.628,0.16787929742397734,0.16787929742397734
87.629,0.12722229072629543,0.12722229072629543
87.63000000000001,0.08838898254976923,0.08838898254976923
87.631,0.058017742323621,0.058017742323621
87.632,0.040478137336212194,0.040478137336212194
87.63300000000001,0.03720221284840375,0.03720221284840375
87.634,0.04663769707131982,0.04663769707131982
87.635,0.06483887630343865,0.06483887630343865
87.63600000000001,0.08658439752388536,0.08658439752388536
87.637,0.10678241926424459,0.10678241926424459
87.638,0.12182625709577488,0.12182625709577488
87.63900000000001,0.13053676415643078,0.13053676415643078
87.64,0.1343989347666834,0.1343989347666834
87.641,0.1369705045944858,0.1369705045944858
87.64200000000001,0.14257533496478625,0.14257533496478625
87.643,0.15462921429099064,0.15462921429099064
87.644,0.1741028821833568,0.1741028821833568
87.64500000000001,0.19864272246305825,0.19864272246305825
87.646,0.22271880782484343,0.22271880782484343
87.647,0.23888141483581737,0.23888141483581737
87.64800000000001,0.23985965068699078,0.23985965068699078
87.649,0.22093696897981374,0.22093696897981374
87.65,0.18189024891956973,0.18189024891956973
87.65100000000001,0.1278433053559347,0.1278433053559347
87.652,0.06865908199365323,0.06865908199365323
87.653,0.016906013362068872,0.016906013362068872
87.65400000000001,0.015137148236960551,-0.015137148236960551
87.655,0.018659783947017616,-0.018659783947017616
87.656,0.009194103719544433,0.009194103719544433
87.65700000000001,0.0642487803934666,0.0642487803934666
87.658,0.1359741477523686,0.1359741477523686
87.659,0.20978309470661305,0.20978309470661305
87.66000000000001,0.2703685020558628,0.2703685020558628
87.661,0.305218350003297,0.305218350003297
87.662,0.30741084258993,0.30741084258993
87.66300000000001,0.27700495780611,0.27700495780611
87.664,0.22073616619744119,0.22073616619744119
87.665,0.15018218765326918,0.15018218765326918
87.66600000000001,0.0789474469422653,0.0789474469422653
87.667,0.019623912736917104,0.019623912736917104
87.668,0.01872489864492255,-0.01872489864492255
87.66900000000001,0.032018224759717384,-0.032018224759717384
87.67,0.021339817418154272,-0.021339817418154272
87.671,0.008021097094207397,0.008021097094207397
87.67200000000001,0.04827711512284627,0.04827711512284627
87.673,0.0910870085868507,0.0910870085868507
87.674,0.12925964269503276,0.12925964269503276
87.67500000000001,0.15789003420215808,0.15789003420215808
87.676,0.17480258545542893,0.17480258545542893
87.677,0.1803642463399393,0.1803642463399393
87.67800000000001,0.17685499657869053,0.17685499657869053
87.679,0.16762699648575397,0.16762699648575397
87.68,0.15625925304856314,0.15625925304856314
87.68100000000001,0.1458523277856194,0.1458523277856194
87.682,0.1385405101221837,0.1385405101221837
87.683,0.13524881374217257,0.13524881374217257
87.68400000000001,0.13569367210993066,0.13569367210993066
87.685,0.13860957162295562,0.13860957162295562
87.686,0.14216452272382218,0.14216452272382218
87.68700000000001,0.14449672079305875,0.14449672079305875
87.688,0.14426727396101424,0.14426727396101424
87.68900000000001,0.1410959208806979,0.1410959208806979
87.69000000000001,0.13574901426770736,0.13574901426770736
87.691,0.12999541266001224,0.12999541266001224
87.69200000000001,0.12613333253547498,0.12613333253547498
87.69300000000001,0.12629710847855313,0.12629710847855313
87.694,0.13174097987384603,0.13174097987384603
87.69500000000001,0.14233073735648372,0.14233073735648372
87.69600000000001,0.15643145991788288,0.15643145991788288
87.697,0.17126496425229498,0.17126496425229498
87.69800000000001,0.183656475147562,0.183656475147562
87.69900000000001,0.1909480380235371,0.1909480380235371
87.7,0.19177945651884243,0.19177945651884243
87.70100000000001,0.18646062938138463,0.18646062938138463
87.70200000000001,0.1767832437165593,0.1767832437165593
87.703,0.1653090317730268,0.1653090317730268
87.70400000000001,0.1543633898264236,0.1543633898264236
87.70500000000001,0.14508806416963194,0.14508806416963194
87.706,0.13691426123240724,0.13691426123240724
87.70700000000001,0.1276955195206697,0.1276955195206697
87.70800000000001,0.11452096325660732,0.11452096325660732
87.709,0.09498391952721152,0.09498391952721152
87.71000000000001,0.06849268476780623,0.06849268476780623
87.71100000000001,0.037149741720294394,0.037149741720294394
87.712,0.0058237993887870765,0.0058237993887870765
87.71300000000001,0.01872587555652705,-0.01872587555652705
87.71400000000001,0.029510680194075767,-0.029510680194075767
87.715,0.021323284270583942,-0.021323284270583942
87.71600000000001,0.007491827195887035,0.007491827195887035
87.71700000000001,0.05407291725826058,0.05407291725826058
87.718,0.11124186483049825,0.11124186483049825
87.71900000000001,0.16890530266185122,0.16890530266185122
87.72000000000001,0.21633673142592835,0.21633673142592835
87.721,0.24474943416375572,0.24474943416375572
87.72200000000001,0.24946655943912122,0.24946655943912122
87.72300000000001,0.23109309600682737,0.23109309600682737
87.724,0.19536706834484985,0.19536706834484985
87.72500000000001,0.15173309002508506,0.15173309002508506
87.72600000000001,0.1110313137139749,0.1110313137139749
87.727,0.0829258141698106,0.0829258141698106
87.72800000000001,0.07374350366776228,0.07374350366776228
87.72900000000001,0.08525012981903113,0.08525012981903113
87.73,0.11460432472217419,0.11460432472217419
87.73100000000001,0.1553953956678129,0.1553953956678129
87.73200000000001,0.19938775222402394,0.19938775222402394
87.733,0.2384451755285233,0.2384451755285233
87.73400000000001,0.26612620569474177,0.26612620569474177
87.73500000000001,0.2786076690949717,0.2786076690949717
87.736,0.2748412284443158,0.2748412284443158
87.73700000000001,0.25609049269677664,0.25609049269677664
87.738,0.22515453240206984,0.22515453240206984
87.739,0.18561273901908892,0.18561273901908892
87.74000000000001,0.14132886282177215,0.14132886282177215
87.741,0.09627654186095347,0.09627654186095347
87.742,0.05456873961141939,0.05456873961141939
87.74300000000001,0.020462248516361248,0.020462248516361248
87.744,0.0018888750984767944,-0.0018888750984767944
87.745,0.009039468282322605,-0.009039468282322605
87.74600000000001,0.0008605721117447285,0.0008605721117447285
87.747,0.027163916043699166,0.027163916043699166
87.748,0.06617359238385201,0.06617359238385201
87.74900000000001,0.11127588482288542,0.11127588482288542
87.75,0.15392182467316617,0.15392182467316617
87.751,0.18535511260144655,0.18535511260144655
87.75200000000001,0.1987093900427599,0.1987093900427599
87.753,0.19091054019869524,0.19091054019869524
87.754,0.1637958546427687,0.1637958546427687
87.75500000000001,0.12402798648939162,0.12402798648939162
87.756,0.08170199389617827,0.08170199389617827
87.757,0.04792802501358562,0.04792802501358562
87.75800000000001,0.03200146313963481,0.03200146313963481
87.759,0.038937020827252145,0.038937020827252145
87.76,0.06807984243982945,0.06807984243982945
87.76100000000001,0.11322150776048034,0.11322150776048034
87.762,0.1642200878376361,0.1642200878376361
87.763,0.2096793494458502,0.2096793494458502
87.76400000000001,0.23992182452124844,0.23992182452124844
87.765,0.24939862279927572,0.24939862279927572
87.766,0.23785063486056357,0.23785063486056357
87.76700000000001,0.20992220961492425,0.20992220961492425
87.768,0.17340954946225273,0.17340954946225273
87.769,0.13674807228707286,0.13674807228707286
87.77000000000001,0.10656783256634061,0.10656783256634061
87.771,0.08609798536020996,0.08609798536020996
87.772,0.07489382742948103,0.07489382742948103
87.77300000000001,0.0698942203530939,0.0698942203530939
87.774,0.06735011077349862,0.06735011077349862
87.775,0.06485749381105288,0.06485749381105288
87.77600000000001,0.06269076528510586,0.06269076528510586
87.777,0.06388476299394319,0.06388476299394319
87.778,0.07297518092603039,0.07297518092603039
87.77900000000001,0.09382042137003488,0.09382042137003488
87.78,0.12731156074191152,0.12731156074191152
87.781,0.16988675436045653,0.16988675436045653
87.78200000000001,0.2135474820797192,0.2135474820797192
87.783,0.2475847812371459,0.2475847812371459
87.784,0.2616203435522073,0.2616203435522073
87.78500000000001,0.24905505040514853,0.24905505040514853
87.786,0.2097812909854062,0.2097812909854062
87.787,0.15115558211428448,0.15115558211428448
87.78800000000001,0.08672138508645189,0.08672138508645189
87.789,0.0328736641187275,0.0328736641187275
87.79,0.004343454063228336,0.004343454063228336
87.79100000000001,0.009822983950446007,0.009822983950446007
87.792,0.04909092943746152,0.04909092943746152
87.793,0.11260115315519537,0.11260115315519537
87.79400000000001,0.18377710732065133,0.18377710732065133
87.795,0.2434286713255831,0.2434286713255831
87.796,0.27504014051655057,0.27504014051655057
87.79700000000001,0.26938460157805877,0.26938460157805877
87.798,0.2271015586272782,0.2271015586272782
87.799,0.15848021149497704,0.15848021149497704
87.80000000000001,0.08053200068724653,0.08053200068724653
87.801,0.012247911207774687,0.012247911207774687
87.802,0.030537054703374977,-0.030537054703374977
87.80300000000001,0.03917065406493703,-0.03917065406493703
87.804,0.013985585882885898,-0.013985585882885898
87.805,0.036520938686896764,0.036520938686896764
87.80600000000001,0.09871570735927282,0.09871570735927282
87.807,0.15800639483456203,0.15800639483456203
87.808,0.20282918102926328,0.20282918102926328
87.80900000000001,0.22727161036760646,0.22727161036760646
87.81,0.23168256532966947,0.23168256532966947
87.811,0.22132073257460716,0.22132073257460716
87.81200000000001,0.2037224111308522,0.2037224111308522
87.813,0.18582172864399493,0.18582172864399493
87.81400000000001,0.1718288074948524,0.1718288074948524
87.81500000000001,0.1624979573518881,0.1624979573518881
87.816,0.1558517482579307,0.1558517482579307
87.81700000000001,0.14888199780409206,0.14888199780409206
87.81800000000001,0.13942199564487923,0.13942199564487923
87.819,0.12738478103672057,0.12738478103672057
87.82000000000001,0.11487450148705647,0.11487450148705647
87.82100000000001,0.10517074007401916,0.10517074007401916
87.822,0.10106354439392407,0.10106354439392407
87.82300000000001,0.10329343123734969,0.10329343123734969
87.82400000000001,0.10981864765641403,0.10981864765641403
87.825,0.1163031744487042,0.1163031744487042
87.82600000000001,0.117719614689348,0.117719614689348
87.82700000000001,0.11048485162140254,0.11048485162140254
87.828,0.09428164380318149,0.09428164380318149
87.82900000000001,0.07277808314156653,0.07277808314156653
87.83000000000001,0.05283067480538661,0.05283067480538661
87.831,0.042317163809171054,0.042317163809171054
87.83200000000001,0.04728815333780778,0.04728815333780778
87.83300000000001,0.0694461602257026,0.0694461602257026
87.834,0.10492525932521324,0.10492525932521324
87.83500000000001,0.14494705493976956,0.14494705493976956
87.83600000000001,0.1782943018836569,0.1782943018836569
87.837,0.19488816636044715,0.19488816636044715
87.83800000000001,0.18931178085452083,0.18931178085452083
87.83900000000001,0.1630588885832871,0.1630588885832871
87.84,0.12464286465412333,0.12464286465412333
87.84100000000001,0.08737434211015382,0.08737434211015382
87.84200000000001,0.06538830090767167,0.06538830090767167
87.843,0.0691158103668219,0.0691158103668219
87.84400000000001,0.10163954221370575,0.10163954221370575
87.84500000000001,0.1571522752235761,0.1571522752235761
87.846,0.2221127138444705,0.2221127138444705
