Czas,AbsSum,Sum
56.07,0.26638325013785646,0.26638325013785646
56.071,0.2703510619901821,0.2703510619901821
56.072,0.2626444457590431,0.2626444457590431
56.073,0.2434261445423429,0.2434261445423429
56.074,0.21552304162805602,0.21552304162805602
56.075,0.18375196737458754,0.18375196737458754
56.076,0.1536929729902583,0.1536929729902583
56.077,0.13024805744843548,0.13024805744843548
56.078,0.11639231478910306,0.11639231478910306
56.079,0.11247600849774098,0.11247600849774098
56.08,0.11628059325613305,0.11628059325613305
56.081,0.12381235856719153,0.12381235856719153
56.082,0.13059836466185848,0.13059836466185848
56.083,0.13309702141147017,0.13309702141147017
56.084,0.129798020914335,0.129798020914335
56.085,0.12167738446247034,0.12167738446247034
56.086,0.11186761545496648,0.11186761545496648
56.087,0.10464214468445365,0.10464214468445365
56.088,0.10402397088832771,0.10402397088832771
56.089,0.11244486980771917,0.11244486980771917
56.09,0.12986674148537403,0.12986674148537403
56.091,0.15363460573702836,0.15363460573702836
56.092,0.17910578086189277,0.17910578086189277
56.093,0.20086272794082993,0.20086272794082993
56.094,0.2141425905398442,0.2141425905398442
56.095,0.21605897110774497,0.21605897110774497
56.096,0.2062673412923306,0.2062673412923306
56.097,0.18690785262919607,0.18690785262919607
56.098,0.1618872238222826,0.1618872238222826
56.099,0.1357601341414587,0.1357601341414587
56.1,0.112576661400972,0.112576661400972
56.101,0.09504451166650374,0.09504451166650374
56.102,0.08422404101876557,0.08422404101876557
56.103,0.07977904328137009,0.07977904328137009
56.104,0.08061605178607967,0.08061605178607967
56.105,0.08562481096420127,0.08562481096420127
56.106,0.09422163383358617,0.09422163383358617
56.107,0.1064951542747703,0.1064951542747703
56.108,0.12292151018654884,0.12292151018654884
56.109,0.14379014499964615,0.14379014499964615
56.11,0.1685978528863754,0.1685978528863754
56.111,0.1956849866231969,0.1956849866231969
56.112,0.22229850412693075,0.22229850412693075
56.113,0.2451051292939186,0.2451051292939186
56.114,0.2610042302262392,0.2610042302262392
56.115,0.2679686262560115,0.2679686262560115
56.116,0.2656181098695303,0.2656181098695303
56.117,0.2553151016155917,0.2553151016155917
56.118,0.23973519230538898,0.23973519230538898
56.119,0.22204903096652684,0.22204903096652684
56.12,0.20498979887779023,0.20498979887779023
56.121,0.19012213981874893,0.19012213981874893
56.122,0.17755802933993592,0.17755802933993592
56.123,0.16620709583320226,0.16620709583320226
56.124,0.15445945408370543,0.15445945408370543
56.125,0.14104582142213506,0.14104582142213506
56.126,0.12575738896571176,0.12575738896571176
56.127,0.10975886287221592,0.10975886287221592
56.128,0.09537391930372152,0.09537391930372152
56.129,0.0854107317053352,0.0854107317053352
56.13,0.08225889599692837,0.08225889599692837
56.131,0.08706992924180201,0.08706992924180201
56.132,0.09930359956667911,0.09930359956667911
56.133,0.11679366655914025,0.11679366655914025
56.134,0.13630642307909402,0.13630642307909402
56.135,0.15439874600341397,0.15439874600341397
56.136,0.16828817099457072,0.16828817099457072
56.137,0.17645740917806796,0.17645740917806796
56.138,0.17882285323276026,0.17882285323276026
56.139,0.17645882056096251,0.17645882056096251
56.14,0.17102528892492264,0.17102528892492264
56.141,0.16413940828118845,0.16413940828118845
56.142,0.1569281487315175,0.1569281487315175
56.143,0.1499060255428586,0.1499060255428586
56.144,0.14317738095767862,0.14317738095767862
56.145,0.13682561957936445,0.13682561957936445
56.146,0.13127675534762262,0.13127675534762262
56.147,0.12744127773267477,0.12744127773267477
56.148,0.12653964505877835,0.12653964505877835
56.149,0.12966145191633638,0.12966145191633638
56.15,0.13723698422186148,0.13723698422186148
56.151,0.14865796891607697,0.14865796891607697
56.152,0.16224421276182244,0.16224421276182244
56.153,0.17562563635241313,0.17562563635241313
56.154,0.18644189076989126,0.18644189076989126
56.155,0.1931199609374259,0.1931199609374259
56.156,0.19543320126613573,0.19543320126613573
56.157,0.1946023414459619,0.1946023414459619
56.158,0.19285621365016303,0.19285621365016303
56.159,0.19257318027759562,0.19257318027759562
56.16,0.19529780681562015,0.19529780681562015
56.161,0.20100182478388917,0.20100182478388917
56.162,0.20789766978580393,0.20789766978580393
56.163,0.21292966463541574,0.21292966463541574
56.164,0.2128222232696686,0.2128222232696686
56.165,0.20534380033692456,0.20534380033692456
56.166,0.19033380223966168,0.19033380223966168
56.167,0.17008659905445533,0.17008659905445533
56.168,0.14888638434933443,0.14888638434933443
56.169,0.13177701272656406,0.13177701272656406
56.17,0.12293333591317257,0.12293333591317257
56.171,0.12417298237010521,0.12417298237010521
56.172,0.1341412751116693,0.1341412751116693
56.173,0.1485079155662603,0.1485079155662603
56.174,0.16118887272783633,0.16118887272783633
56.175,0.16625633089299718,0.16625633089299718
56.176,0.1599434915894229,0.1599434915894229
56.177,0.1420823979093806,0.1420823979093806
56.178,0.11646427192899766,0.11646427192899766
56.179,0.08994170716249994,0.08994170716249994
56.18,0.07049665886437162,0.07049665886437162
56.181,0.06484481595705205,0.06484481595705205
56.182,0.07631827423014048,0.07631827423014048
56.183,0.10370264440486343,0.10370264440486343
56.184,0.14141768753894568,0.14141768753894568
56.185,0.18101204493118694,0.18101204493118694
56.186,0.2135274409533816,0.2135274409533816
56.187,0.23201129686833122,0.23201129686833122
56.188,0.2334098584684301,0.2334098584684301
56.189,0.21927247099950065,0.21927247099950065
56.19,0.1950766842600049,0.1950766842600049
56.191,0.16841946263047447,0.16841946263047447
56.192,0.14667006881344236,0.14667006881344236
56.193,0.13483261182178463,0.13483261182178463
56.194,0.13427459369620176,0.13427459369620176
56.195,0.14267685485803328,0.14267685485803328
56.196,0.15515331127591003,0.15515331127591003
56.197,0.16611206604564788,0.16611206604564788
56.198,0.17120624790883232,0.17120624790883232
56.199,0.16872284242220803,0.16872284242220803
56.2,0.159974378436482,0.159974378436482
56.201,0.1486128707959795,0.1486128707959795
56.202,0.13915486626634999,0.13915486626634999
56.203,0.13526583556811533,0.13526583556811533
56.204,0.13841677312973033,0.13841677312973033
56.205,0.14737890168699042,0.14737890168699042
56.206,0.15871908580616756,0.15871908580616756
56.207,0.16810592513886724,0.16810592513886724
56.208,0.17195585676243086,0.17195585676243086
56.209,0.16883420904934687,0.16883420904934687
56.21,0.16011389738675708,0.16011389738675708
56.211,0.14965099837899531,0.14965099837899531
56.212,0.14257206645703557,0.14257206645703557
56.213,0.1435682561599736,0.1435682561599736
56.214,0.15525597243525335,0.15525597243525335
56.215,0.17714051100652473,0.17714051100652473
56.216,0.20551969400792336,0.20551969400792336
56.217,0.23435900949843025,0.23435900949843025
56.218,0.25686164835068803,0.25686164835068803
56.219,0.26724717847205137,0.26724717847205137
56.22,0.26220643420673295,0.26220643420673295
56.221,0.24162601241945225,0.24162601241945225
56.222,0.2084247075388861,0.2084247075388861
56.223,0.16762863987881316,0.16762863987881316
56.224,0.12503623401732877,0.12503623401732877
56.225,0.08591768629306884,0.08591768629306884
56.226,0.05413274516594213,0.05413274516594213
56.227,0.03186560900913449,0.03186560900913449
56.228,0.019937629128771173,0.019937629128771173
56.229,0.01845341448948412,0.01845341448948412
56.23,0.02743478672819455,0.02743478672819455
56.231,0.04713154254099616,0.04713154254099616
56.232,0.0778508772136679,0.0778508772136679
56.233,0.11935972390850003,0.11935972390850003
56.234,0.17010717756135652,0.17010717756135652
56.235,0.22661643666033782,0.22661643666033782
56.236,0.2833686466768437,0.2833686466768437
56.237,0.333351581415015,0.333351581415015
56.238,0.3692240396439417,0.3692240396439417
56.239,0.384827549119807,0.384827549119807
56.24,0.3766357022971363,0.3766357022971363
56.241,0.34471788927012015,0.34471788927012015
56.242,0.29291589467664414,0.29291589467664414
56.243,0.22815180756688358,0.22815180756688358
56.244,0.1590348171100604,0.1590348171100604
56.245,0.09413423705872881,0.09413423705872881
56.246,0.04037424482490448,0.04037424482490448
56.247,0.0019562275945481655,0.0019562275945481655
56.248,0.019954736341758372,-0.019954736341758372
56.249,0.026776297739357968,-0.026776297739357968
56.25,0.021508276568470763,-0.021508276568470763
56.251,0.00754835839339385,-0.00754835839339385
56.252,0.012291650074683691,0.012291650074683691
56.253,0.036287421263767605,0.036287421263767605
56.254,0.06372814738364374,0.06372814738364374
56.255,0.09438204880909717,0.09438204880909717
56.256,0.1277747819691437,0.1277747819691437
56.257,0.16261019835198764,0.16261019835198764
56.258,0.19659919029794293,0.19659919029794293
56.259,0.2268020637811634,0.2268020637811634
56.26,0.2503889347836037,0.2503889347836037
56.261,0.26555129093642926,0.26555129093642926
56.262,0.272217361701502,0.272217361701502
56.263,0.272266000581296,0.272266000581296
56.264,0.2690892954305777,0.2690892954305777
56.265,0.2665750505906199,0.2665750505906199
56.266,0.2677943007034538,0.2677943007034538
56.267,0.27381249525640006,0.27381249525640006
56.268,0.2830451943011576,0.2830451943011576
56.269,0.2914398539357612,0.2914398539357612
56.27,0.29352022715211046,0.29352022715211046
56.271,0.28405139627772225,0.28405139627772225
56.272,0.2598591613930843,0.2598591613930843
56.273,0.22124325968073633,0.22124325968073633
56.274,0.17249893957194584,0.17249893957194584
56.275,0.12129407317858898,0.12129407317858898
56.276,0.07697755258322436,0.07697755258322436
56.277,0.04822404826141047,0.04822404826141047
56.278,0.04064953612341937,0.04064953612341937
56.279,0.05508571775773685,0.05508571775773685
56.28,0.08705355438244,0.08705355438244
56.281,0.1276604116065101,0.1276604116065101
56.282,0.1657476865761578,0.1657476865761578
56.283,0.19075035561406772,0.19075035561406772
56.284,0.19550550035066228,0.19550550035066228
56.285,0.17823421369261716,0.17823421369261716
56.286,0.1431304361175776,0.1431304361175776
56.287,0.09936605085702155,0.09936605085702155
56.288,0.05875849325993254,0.05875849325993254
56.289,0.032719905405349525,0.032719905405349525
56.29,0.029307402429498364,0.029307402429498364
56.291,0.05116381914337298,0.05116381914337298
56.292,0.09488626229490604,0.09488626229490604
56.293,0.15195975373299686,0.15195975373299686
56.294,0.21096196824597713,0.21096196824597713
56.295,0.2604071743526999,0.2604071743526999
56.296,0.2914481767322894,0.2914481767322894
56.297,0.2997320036916915,0.2997320036916915
56.298,0.285978119275367,0.285978119275367
56.299,0.25522962001613725,0.25522962001613725
56.3,0.21510137547001862,0.21510137547001862
56.301,0.17360455045942236,0.17360455045942236
56.302,0.13719490217831432,0.13719490217831432
56.303,0.10956346187476607,0.10956346187476607
56.304,0.09141432364811952,0.09141432364811952
56.305,0.08114919560987466,0.08114919560987466
56.306,0.0761070132469519,0.0761070132469519
56.307,0.07387138153800832,0.07387138153800832
56.308,0.07319294787446795,0.07319294787446795
56.309,0.07425510686927672,0.07425510686927672
56.31,0.07826977435715254,0.07826977435715254
56.311,0.08663337661182746,0.08663337661182746
56.312,0.10001910063694819,0.10001910063694819
56.313,0.11778396595399254,0.11778396595399254
56.314,0.1379335023013113,0.1379335023013113
56.315,0.15766558509016115,0.15766558509016115
56.316,0.17428959730957794,0.17428959730957794
56.317,0.18616880634763477,0.18616880634763477
56.318,0.19331583960758514,0.19331583960758514
56.319,0.19739040829169996,0.19739040829169996
56.32,0.20106359394055362,0.20106359394055362
56.321,0.20694864903128485,0.20694864903128485
56.322,0.21647074744221229,0.21647074744221229
56.323,0.2290943004780457,0.2290943004780457
56.324,0.24222550077540728,0.24222550077540728
56.325,0.251888907063367,0.251888907063367
56.326,0.2540104819025166,0.2540104819025166
56.327,0.24591425525317345,0.24591425525317345
56.328,0.22753370008477725,0.22753370008477725
56.329,0.20189327594751227,0.20189327594751227
56.33,0.1746206412897484,0.1746206412897484
56.331,0.15254676120094035,0.15254676120094035
56.332,0.14174897305931977,0.14174897305931977
56.333,0.1455967694424456,0.1455967694424456
56.334,0.16340314192830352,0.16340314192830352
56.335,0.1901449482697657,0.1901449482697657
56.336,0.2174281594301315,0.2174281594301315
56.337,0.23551812140184913,0.23551812140184913
56.338,0.23593394849532312,0.23593394849532312
56.339,0.21391522122805773,0.21391522122805773
56.34,0.17006802663899934,0.17006802663899934
56.341,0.11069222342464613,0.11069222342464613
56.342,0.04663279618383642,0.04663279618383642
56.343,0.00910689998170422,-0.00910689998170422
56.344,0.04441202901328656,-0.04441202901328656
56.345,0.05099464379312191,-0.05099464379312191
56.346,0.02646787263806638,-0.02646787263806638
56.347,0.024984660603162068,0.024984660603162068
56.348,0.09352455462341158,0.09352455462341158
56.349,0.16593114198434433,0.16593114198434433
56.35,0.22865490238241137,0.22865490238241137
56.351,0.2708821464665203,0.2708821464665203
56.352,0.28685175069220836,0.28685175069220836
56.353,0.2768738628818044,0.2768738628818044
56.354,0.2468491209460546,0.2468491209460546
56.355,0.2064787519829776,0.2064787519829776
56.356,0.16668454109314323,0.16668454109314323
56.357,0.1369360896650509,0.1369360896650509
56.358,0.12316734843300114,0.12316734843300114
56.359,0.1267662991496179,0.1267662991496179
56.36,0.1448028421559331,0.1448028421559331
56.361,0.1713146423532812,0.1713146423532812
56.362,0.19919768351489275,0.19919768351489275
56.363,0.22212217874244344,0.22212217874244344
56.364,0.2359442825661473,0.2359442825661473
56.365,0.23928548110402503,0.23928548110402503
56.366,0.23323549181160974,0.23323549181160974
56.367,0.22040905770103825,0.22040905770103825
56.368,0.2037663624611119,0.2037663624611119
56.369,0.18563812254856238,0.18563812254856238
56.37,0.1672763254624159,0.1672763254624159
56.371,0.14902663805851057,0.14902663805851057
56.372,0.1309696043382096,0.1309696043382096
56.373,0.1136931575941289,0.1136931575941289
56.374,0.09880464141544554,0.09880464141544554
56.375,0.08888745283257071,0.08888745283257071
56.376,0.08682366066037095,0.08682366066037095
56.377,0.09466445422557968,0.09466445422557968
56.378,0.11244155473966821,0.11244155473966821
56.379,0.13739458793350967,0.13739458793350967
56.38,0.16400324352702578,0.16400324352702578
56.381,0.1849768653210797,0.1849768653210797
56.382,0.1930390008442504,0.1930390008442504
56.383,0.18305274848632513,0.18305274848632513
56.384,0.15386490974621458,0.15386490974621458
56.385,0.10926765209787082,0.10926765209787082
56.386,0.05769136548920528,0.05769136548920528
56.387,0.010594139132732883,0.010594139132732883
56.388,0.020102519159770127,-0.020102519159770127
56.389,0.024884192456094523,-0.024884192456094523
56.39,0.00094363009842513,0.00094363009842513
56.391,0.05595863984994587,0.05595863984994587
56.392,0.13279901934617921,0.13279901934617921
56.393,0.21976765730469983,0.21976765730469983
56.394,0.30342583382469246,0.30342583382469246
56.395,0.371480313198306,0.371480313198306
56.396,0.4152149210359801,0.4152149210359801
56.397,0.4308805226936554,0.4308805226936554
56.398,0.4197796709313468,0.4197796709313468
56.399,0.38716111564449074,0.38716111564449074
56.4,0.3403589713222728,0.3403589713222728
56.401,0.28677959336300507,0.28677959336300507
56.402,0.2323157503254747,0.2323157503254747
56.403,0.1805737786877084,0.1805737786877084
56.404,0.1330077078702958,0.1330077078702958
56.405,0.08976257760951811,0.08976257760951811
56.406,0.05082741942841684,0.05082741942841684
56.407,0.017041029524329288,0.017041029524329288
56.408,0.00941494340929494,-0.00941494340929494
56.409,0.025203544842155257,-0.025203544842155257
56.41,0.026636366098014896,-0.026636366098014896
56.411,0.010836657400887906,-0.010836657400887906
56.412,0.023095254336651605,0.023095254336651605
56.413,0.07326033276706023,0.07326033276706023
56.414,0.13472525243375522,0.13472525243375522
56.415,0.19996039391930598,0.19996039391930598
56.416,0.25988154909043293,0.25988154909043293
56.417,0.30530320729935867,0.30530320729935867
56.418,0.32854198769008947,0.32854198769008947
56.419,0.3248908178538301,0.3248908178538301
56.42,0.2937051779902815,0.2937051779902815
56.421,0.23888956666588035,0.23888956666588035
56.422,0.1686406313515778,0.1686406313515778
56.423,0.09439679403892876,0.09439679403892876
56.424,0.02906749318053503,0.02906749318053503
56.425,0.015236586371627614,-0.015236586371627614
56.426,0.029600819102982512,-0.029600819102982512
56.427,0.010349464672226527,-0.010349464672226527
56.428,0.0397698204852206,0.0397698204852206
56.429,0.11165871778387904,0.11165871778387904
56.43,0.19135900701635755,0.19135900701635755
56.431,0.2627885190879711,0.2627885190879711
56.432,0.31120054788112705,0.31120054788112705
56.433,0.3265842977090938,0.3265842977090938
56.434,0.30614636496638736,0.30614636496638736
56.435,0.2551704529384349,0.2551704529384349
56.436,0.18592820994998105,0.18592820994998105
56.437,0.11481983294733955,0.11481983294733955
56.438,0.058418859608695195,0.058418859608695195
56.439,0.02943055547158746,0.02943055547158746
56.44,0.033634594689696096,0.033634594689696096
56.441,0.06863563194065847,0.06863563194065847
56.442,0.12475036564915065,0.12475036564915065
56.443,0.1877585787779139,0.1877585787779139
56.444,0.24271936316858644,0.24271936316858644
56.445,0.2777649376636482,0.2777649376636482
56.446,0.28682365419159295,0.28682365419159295
56.447,0.27057772192340734,0.27057772192340734
56.448,0.23551535814452795,0.23551535814452795
56.449,0.19151243625006154,0.19151243625006154
56.45,0.14879093433276824,0.14879093433276824
56.451,0.11522288242256074,0.11522288242256074
56.452,0.09475091491009624,0.09475091491009624
56.453,0.08726014148198691,0.08726014148198691
56.454,0.08972044464686069,0.08972044464686069
56.455,0.09800570112838503,0.09800570112838503
56.456,0.10862693901025211,0.10862693901025211
56.457,0.11973865061881694,0.11973865061881694
56.458,0.13113207180747066,0.13113207180747066
56.459,0.14337206838051886,0.14337206838051886
56.46,0.1565906905520733,0.1565906905520733
56.461,0.1695812187918706,0.1695812187918706
56.462,0.17969094765783544,0.17969094765783544
56.463,0.18364726216756178,0.18364726216756178
56.464,0.17901609362345727,0.17901609362345727
56.465,0.16566400311600527,0.16566400311600527
56.466,0.14651799706771262,0.14651799706771262
56.467,0.1271396215434244,0.1271396215434244
56.468,0.11408280644667546,0.11408280644667546
56.469,0.11252189529000933,0.11252189529000933
56.47,0.12401278609845301,0.12401278609845301
56.471,0.14532075409252698,0.14532075409252698
56.472,0.16895393718127782,0.16895393718127782
56.473,0.1854588902165164,0.1854588902165164
56.474,0.18685886668823604,0.18685886668823604
56.475,0.17009439119334568,0.17009439119334568
56.476,0.13917136978514288,0.13917136978514288
56.477,0.10502936509005556,0.10502936509005556
56.478,0.08284549119207507,0.08284549119207507
56.479,0.0873721131927443,0.0873721131927443
56.48,0.1276709694886995,0.1276709694886995
56.481,0.20297219506959352,0.20297219506959352
56.482,0.3011920940830488,0.3011920940830488
56.483,0.400909458420007,0.400909458420007
56.484,0.47653498973286124,0.47653498973286124
56.485,0.505346654758249,0.505346654758249
56.486,0.47435931376759544,0.47435931376759544
56.487,0.38490344503287033,0.38490344503287033
56.488,0.2533688919688222,0.2533688919688222
56.489,0.10766956585947729,0.10766956585947729
56.49,0.01972759889928455,-0.01972759889928455
56.491,0.10029502077658659,-0.10029502077658659
56.492,0.11703398729707859,-0.11703398729707859
56.493,0.06896120281987905,-0.06896120281987905
56.494,0.0288089980598365,0.0288089980598365
56.495,0.14938928596667855,0.14938928596667855
56.496,0.2615571059309696,0.2615571059309696
56.497,0.3381196492068679,0.3381196492068679
56.498,0.3628028839562678,0.3628028839562678
56.499,0.333773955477646,0.333773955477646
56.5,0.26297209062920057,0.26297209062920057
56.501,0.17169588480082987,0.17169588480082987
56.502,0.08397307771433149,0.08397307771433149
56.503,0.01979675992000529,0.01979675992000529
56.504,0.009798489333075922,-0.009798489333075922
56.505,0.004554556529982268,-0.004554556529982268
56.506,0.026517618373917085,0.026517618373917085
56.507,0.06915730407771803,0.06915730407771803
56.508,0.1088793195366824,0.1088793195366824
56.509,0.13534397704623147,0.13534397704623147
56.51,0.14479833139865805,0.14479833139865805
56.511,0.14007533867185473,0.14007533867185473
56.512,0.12848647150239412,0.12848647150239412
56.513,0.11859083397386883,0.11859083397386883
56.514,0.11707097474814954,0.11707097474814954
56.515,0.12674705156892951,0.12674705156892951
56.516,0.14622972977901738,0.14622972977901738
56.517,0.1710684573728969,0.1710684573728969
56.518,0.19573712673366117,0.19573712673366117
56.519,0.21558810495349845,0.21558810495349845
56.52,0.2280466815128217,0.2280466815128217
56.521,0.23272412394265896,0.23272412394265896
56.522,0.2306173027244256,0.2306173027244256
56.523,0.22293466495820935,0.22293466495820935
56.524,0.21019899090826732,0.21019899090826732
56.525,0.19209513583404947,0.19209513583404947
56.526,0.1681440822102951,0.1681440822102951
56.527,0.13886311170322352,0.13886311170322352
56.528,0.10679824962107576,0.10679824962107576
56.529,0.07681103474063078,0.07681103474063078
56.53,0.05527894918799858,0.05527894918799858
56.531,0.04832339088302828,0.04832339088302828
56.532,0.05963013369336334,0.05963013369336334
56.533,0.08868722349110247,0.08868722349110247
56.534,0.13021364787588152,0.13021364787588152
56.535,0.17518506781981258,0.17518506781981258
56.536,0.21329956744716694,0.21329956744716694
56.537,0.23616849209924706,0.23616849209924706
56.538,0.24017643443868786,0.24017643443868786
56.539,0.2279725848751244,0.2279725848751244
56.54,0.20795043656665801,0.20795043656665801
56.541,0.19172531180831442,0.19172531180831442
56.542,0.19031192146074893,0.19031192146074893
56.543,0.21019574834047283,0.21019574834047283
56.544,0.2506020799275883,0.2506020799275883
56.545,0.30294101525207595,0.30294101525207595
56.546,0.3527402225996654,0.3527402225996654
56.547,0.38358308322904233,0.38358308322904233
56.548,0.3819092841487901,0.3819092841487901
56.549,0.34122836754671027,0.34122836754671027
56.55,0.264448983002882,0.264448983002882
56.551,0.16359112973253565,0.16359112973253565
56.552,0.05694361519623459,0.05694361519623459
56.553,0.035501519986546604,-0.035501519986546604
56.554,0.09700581358063642,-0.09700581358063642
56.555,0.11802204673861427,-0.11802204673861427
56.556,0.09805732302072112,-0.09805732302072112
56.557,0.04506682678343821,-0.04506682678343821
56.558,0.02727093567651151,0.02727093567651151
56.559,0.10345426956214232,0.10345426956214232
56.56,0.17002792317578708,0.17002792317578708
56.561,0.21834327925196306,0.21834327925196306
56.562,0.24557726078479147,0.24557726078479147
56.563,0.25397703002330463,0.25397703002330463
56.564,0.24884331972715446,0.24884331972715446
56.565,0.2360868479785161,0.2360868479785161
56.566,0.22020736693105492,0.22020736693105492
56.567,0.2032805289073798,0.2032805289073798
56.568,0.1851123186713044,0.1851123186713044
56.569,0.16429592093034562,0.16429592093034562
56.57,0.13962699769907694,0.13962699769907694
56.571,0.11128056631967742,0.11128056631967742
56.572,0.08131859264142971,0.08131859264142971
56.573,0.053397741314595404,0.053397741314595404
56.574,0.03185754507889116,0.03185754507889116
56.575,0.020575616577779732,0.020575616577779732
56.576,0.022013800299343078,0.022013800299343078
56.577,0.03675253631558162,0.03675253631558162
56.578,0.06358713320176412,0.06358713320176412
56.579,0.10003711875769405,0.10003711875769405
56.58,0.14298704789594607,0.14298704789594607
56.581,0.18917944379007068,0.18917944379007068
56.582,0.2354048444463106,0.2354048444463106
56.583,0.27841738426037166,0.27841738426037166
56.584,0.3147623058344997,0.3147623058344997
56.585,0.34076327956033636,0.34076327956033636
56.586,0.35285392809714855,0.35285392809714855
56.587,0.3482746559960652,0.3482746559960652
56.588,0.3259610007317413,0.3259610007317413
56.589,0.28730692741311925,0.28730692741311925
56.59,0.23646123802140817,0.23646123802140817
56.591,0.179928241390926,0.179928241390926
56.592,0.12546173992527843,0.12546173992527843
56.593,0.08048852654880556,0.08048852654880556
56.594,0.05048366491483014,0.05048366491483014
56.595,0.03777351538780338,0.03777351538780338
56.596,0.0411380571160862,0.0411380571160862
56.597,0.05635143097570339,0.05635143097570339
56.598,0.07751407712771852,0.07751407712771852
56.599,0.09878564386002431,0.09878564386002431
56.6,0.1160054403624311,0.1160054403624311
56.601,0.12772578630111697,0.12772578630111697
56.602,0.13536867455793278,0.13536867455793278
56.603,0.14248589727924799,0.14248589727924799
56.604,0.15337029298731664,0.15337029298731664
56.605,0.17144871939583317,0.17144871939583317
56.606,0.19793444096020374,0.19793444096020374
56.607,0.2311220237820224,0.2311220237820224
56.608,0.2665095943856193,0.2665095943856193
56.609,0.29769749551754976,0.29769749551754976
56.61,0.3178096004666149,0.3178096004666149
56.611,0.321066720375466,0.321066720375466
56.612,0.3041319601068073,0.3041319601068073
56.613,0.2669334911676964,0.2669334911676964
56.614,0.21281477943294957,0.21281477943294957
56.615,0.1480206783185185,0.1480206783185185
56.616,0.08066091505366835,0.08066091505366835
56.617,0.019376950274261118,0.019376950274261118
56.618,0.028031879889415356,-0.028031879889415356
56.619,0.0557844733548003,-0.0557844733548003
56.62,0.060909865913948646,-0.060909865913948646
56.621,0.043542674682624516,-0.043542674682624516
56.622,0.006696513224018319,-0.006696513224018319
56.623,0.04441976237913625,0.04441976237913625
56.624,0.10339506695185174,0.10339506695185174
56.625,0.1637100188380689,0.1637100188380689
56.626,0.2197028024168597,0.2197028024168597
56.627,0.2672099388906508,0.2672099388906508
56.628,0.3037702423473423,0.3037702423473423
56.629,0.32840218754506023,0.32840218754506023
56.63,0.3410904017017826,0.3410904017017826
56.631,0.3422050542574804,0.3422050542574804
56.632,0.3320939386644508,0.3320939386644508
56.633,0.31101746580178413,0.31101746580178413
56.634,0.27945811103285223,0.27945811103285223
56.635,0.2386729980822817,0.2386729980822817
56.636,0.19123131401639704,0.19123131401639704
56.637,0.1412409866045492,0.1412409866045492
56.638,0.09404733654108921,0.09404733654108921
56.639,0.05536437221470636,0.05536437221470636
56.64,0.030020482974259632,0.030020482974259632
56.641,0.02068434048349599,0.02068434048349599
56.642,0.027008245623109328,0.027008245623109328
56.643,0.04554350989116962,0.04554350989116962
56.644,0.07055800784330302,0.07055800784330302
56.645,0.09558680352829141,0.09558680352829141
56.646,0.11527478491858778,0.11527478491858778
56.647,0.12692772060325574,0.12692772060325574
56.648,0.1312392647822591,0.1312392647822591
56.649,0.13190511390820303,0.13190511390820303
56.65,0.13420026805666407,0.13420026805666407
56.651,0.14295984992076138,0.14295984992076138
56.652,0.16063769414927465,0.16063769414927465
56.653,0.1861273511215098,0.1861273511215098
56.654,0.21479902919841853,0.21479902919841853
56.655,0.23980110956421963,0.23980110956421963
56.656,0.2542308758189096,0.2542308758189096
56.657,0.25345276835003583,0.25345276835003583
56.658,0.23675707044761563,0.23675707044761563
56.659,0.20775059587442812,0.20775059587442812
56.66,0.17329657381135077,0.17329657381135077
56.661,0.14133143357175504,0.14133143357175504
56.662,0.1183014960053752,0.1183014960053752
56.663,0.10712787488103936,0.10712787488103936
56.664,0.10645104687235385,0.10645104687235385
56.665,0.11146847560730144,0.11146847560730144
56.666,0.11610431109749375,0.11610431109749375
56.667,0.11574140468229355,0.11574140468229355
56.668,0.1094915005732402,0.1094915005732402
56.669,0.10108649696581296,0.10108649696581296
56.67,0.09792457876220695,0.09792457876220695
56.671,0.10845756225430137,0.10845756225430137
56.672,0.13873738964019044,0.13873738964019044
56.673,0.1893225979129376,0.1893225979129376
56.674,0.2537272947586624,0.2537272947586624
56.675,0.3191561487451038,0.3191561487451038
56.676,0.36953595342408274,0.36953595342408274
56.677,0.39006343934538523,0.39006343934538523
56.678,0.37190857067599237,0.37190857067599237
56.679,0.3155523006931267,0.3155523006931267
56.68,0.23157445966573742,0.23157445966573742
56.681,0.13845362764412572,0.13845362764412572
56.682,0.057868411127936836,0.057868411127936836
56.683,0.00880183719840022,0.00880183719840022
56.684,0.0021794508322448003,0.0021794508322448003
56.685,0.03766724334222227,0.03766724334222227
56.686,0.10363805844218388,0.10363805844218388
56.687,0.18037131146822882,0.18037131146822882
56.688,0.24557482499691785,0.24557482499691785
56.689,0.2806159863744446,0.2806159863744446
56.69,0.2756421323771385,0.2756421323771385
56.691,0.23211927865749016,0.23211927865749016
56.692,0.16210959239798028,0.16210959239798028
56.693,0.0845889890417566,0.0845889890417566
56.694,0.0199697075275429,0.0199697075275429
56.695,0.015523964487239472,-0.015523964487239472
56.696,0.014010831785246425,-0.014010831785246425
56.697,0.022460697093292792,0.022460697093292792
56.698,0.083175235075573,0.083175235075573
56.699,0.15228934759999357,0.15228934759999357
56.7,0.21345107811289443,0.21345107811289443
56.701,0.25408874114902313,0.25408874114902313
56.702,0.2681862546568077,0.2681862546568077
56.703,0.2569287624093073,0.2569287624093073
56.704,0.22730080337450587,0.22730080337450587
56.705,0.18931832493745238,0.18931832493745238
56.706,0.15289588101499763,0.15289588101499763
56.707,0.12531885539962273,0.12531885539962273
56.708,0.10995716670265021,0.10995716670265021
56.709,0.10636632996399231,0.10636632996399231
56.71,0.11145620209173024,0.11145620209173024
56.711,0.12112112589788548,0.12112112589788548
56.712,0.13169232852098478,0.13169232852098478
56.713,0.14077119866439425,0.14077119866439425
56.714,0.14732690502331391,0.14732690502331391
56.715,0.15125485241703207,0.15125485241703207
56.716,0.15277406951881223,0.15277406951881223
56.717,0.15203483659962935,0.15203483659962935
56.718,0.14913541522660534,0.14913541522660534
56.719,0.14449671858732427,0.14449671858732427
56.72,0.1393310162493684,0.1393310162493684
56.721,0.1358597850795431,0.1358597850795431
56.722,0.13702331854248606,0.13702331854248606
56.723,0.14564597232089072,0.14564597232089072
56.724,0.16328443866394116,0.16328443866394116
56.725,0.18918061405810094,0.18918061405810094
56.726,0.21977817561886126,0.21977817561886126
56.727,0.24911494457624062,0.24911494457624062
56.728,0.270115191478675,0.270115191478675
56.729,0.27647769594165306,0.27647769594165306
56.73,0.2646073053416087,0.2646073053416087
56.731,0.23496626948397248,0.23496626948397248
56.732,0.19236257487595299,0.19236257487595299
56.733,0.14500671897096695,0.14500671897096695
56.734,0.10255428829603952,0.10255428829603952
56.735,0.07368033044638778,0.07368033044638778
56.736,0.06389124469431806,0.06389124469431806
56.737,0.07421533838332062,0.07421533838332062
56.738,0.10114413503154296,0.10114413503154296
56.739,0.13781100031748528,0.13781100031748528
56.74,0.17601754693981708,0.17601754693981708
56.741,0.2084725639431746,0.2084725639431746
56.742,0.2305687588667189,0.2305687588667189
56.743,0.24119613769102632,0.24119613769102632
56.744,0.24241480149312067,0.24241480149312067
56.745,0.23817533126629264,0.23817533126629264
56.746,0.23256379397887494,0.23256379397887494
56.747,0.22817254623316852,0.22817254623316852
56.748,0.22512618002791251,0.22512618002791251
56.749,0.2210569331783383,0.2210569331783383
56.75,0.21200834906313348,0.21200834906313348
56.751,0.19395301823827493,0.19395301823827493
56.752,0.16442929950178375,0.16442929950178375
56.753,0.12378149876692812,0.12378149876692812
56.754,0.07562356988518437,0.07562356988518437
56.755,0.026386247942832952,0.026386247942832952
56.756,0.015927161835353476,-0.015927161835353476
56.757,0.04343945101264768,-0.04343945101264768
56.758,0.05011311024653675,-0.05011311024653675
56.759,0.033063425098337706,-0.033063425098337706
56.76,0.006814280630909719,0.006814280630909719
56.761,0.06500036975369183,0.06500036975369183
56.762,0.13419753457968575,0.13419753457968575
56.763,0.2056347652507533,0.2056347652507533
56.764,0.27052866861528946,0.27052866861528946
56.765,0.32141357755182276,0.32141357755182276
56.766,0.3531231176526357,0.3531231176526357
56.767,0.36330780143068697,0.36330780143068697
56.768,0.3524760927473347,0.3524760927473347
56.769,0.3236280591314926,0.3236280591314926
56.77,0.28160029952658006,0.28160029952658006
56.771,0.2322580228105502,0.2322580228105502
56.772,0.18166185465707785,0.18166185465707785
56.773,0.13531299387570161,0.13531299387570161
56.774,0.09755008474525328,0.09755008474525328
56.775,0.07114165783856063,0.07114165783856063
56.776,0.05709341301277271,0.05709341301277271
56.777,0.054671478014454156,0.054671478014454156
56.778,0.06163017778081392,0.06163017778081392
56.779,0.07462285562817206,0.07462285562817206
56.78,0.08976269801079995,0.08976269801079995
56.781,0.10328344170505677,0.10328344170505677
56.782,0.11222601127380272,0.11222601127380272
56.783,0.1150501349414157,0.1150501349414157
56.784,0.11204918327730917,0.11204918327730917
56.785,0.10544537334956816,0.10544537334956816
56.786,0.09907419433590015,0.09907419433590015
56.787,0.09763774442758755,0.09763774442758755
56.788,0.10561016759590047,0.10561016759590047
56.789,0.1259927535491201,0.1259927535491201
56.79,0.1592074786459161,0.1592074786459161
56.791,0.2024486915791941,0.2024486915791941
56.792,0.24975618680173461,0.24975618680173461
56.793,0.2929247796014436,0.2929247796014436
56.794,0.3231515314841109,0.3231515314841109
56.795,0.3330956615471379,0.3330956615471379
56.796,0.31885654008701314,0.31885654008701314
56.797,0.28132475997336637,0.28132475997336637
56.798,0.2264646469085767,0.2264646469085767
56.799,0.16433388541070593,0.16433388541070593
56.8,0.10697992155128255,0.10697992155128255
56.801,0.06568145235558687,0.06568145235558687
56.802,0.04822601813716676,0.04822601813716676
56.803,0.056954197462321554,0.056954197462321554
56.804,0.08813052642718522,0.08813052642718522
56.805,0.13285791998887841,0.13285791998887841
56.806,0.17932933965787434,0.17932933965787434
56.807,0.21583109513065435,0.21583109513065435
56.808,0.23369211460947237,0.23369211460947237
56.809,0.22938335699646717,0.22938335699646717
56.81,0.20521260868598445,0.20521260868598445
56.811,0.1684618806735323,0.1684618806735323
56.812,0.12925647655606576,0.12925647655606576
56.813,0.09780285310608727,0.09780285310608727
56.814,0.08178302212083555,0.08178302212083555
56.815,0.08460605942375188,0.08460605942375188
56.816,0.10492750602991996,0.10492750602991996
56.817,0.13745317757545683,0.13745317757545683
56.818,0.17467271344258806,0.17467271344258806
56.819,0.20893444734765487,0.20893444734765487
56.82,0.23424073676128332,0.23424073676128332
56.821,0.24730601089746296,0.24730601089746296
56.822,0.2477083941514775,0.2477083941514775
56.823,0.23727263026717482,0.23727263026717482
56.824,0.2190419445400984,0.2190419445400984
56.825,0.1962629300864871,0.1962629300864871
56.826,0.1717140667109609,0.1717140667109609
56.827,0.147507325213452,0.147507325213452
56.828,0.12527163108824269,0.12527163108824269
56.829,0.10647561845110531,0.10647561845110531
56.83,0.0926205675215197,0.0926205675215197
56.831,0.08513464503179424,0.08513464503179424
56.832,0.08497623618596628,0.08497623618596628
56.833,0.09212641563332458,0.09212641563332458
56.834,0.10524060380617084,0.10524060380617084
56.835,0.12169443365560406,0.12169443365560406
56.836,0.13810909225627488,0.13810909225627488
56.837,0.15123682918120895,0.15123682918120895
56.838,0.15891387165600457,0.15891387165600457
56.839,0.16072279644267606,0.16072279644267606
56.84,0.15808553845331375,0.15808553845331375
56.841,0.15370984377744135,0.15370984377744135
56.842,0.1505623156296645,0.1505623156296645
56.843,0.15074162974129646,0.15074162974129646
56.844,0.15469095027381252,0.15469095027381252
56.845,0.16108253842789444,0.16108253842789444
56.846,0.1674596222109439,0.1674596222109439
56.847,0.17141897646551252,0.17141897646551252
56.848,0.1718781270707821,0.1718781270707821
56.849,0.1698934374060952,0.1698934374060952
56.85,0.16862342312206913,0.16862342312206913
56.851,0.1723326707214312,0.1723326707214312
56.852,0.1847036841457408,0.1847036841457408
56.853,0.2070299093330754,0.2070299093330754
56.854,0.23698081423624862,0.23698081423624862
56.855,0.2684986181972904,0.2684986181972904
56.856,0.29303378125694723,0.29303378125694723
56.857,0.3018640751731392,0.3018640751731392
56.858,0.28882925818114313,0.28882925818114313
56.859,0.2526020119354304,0.2526020119354304
56.86,0.1976950832459201,0.1976950832459201
56.861,0.13376561139639542,0.13376561139639542
56.862,0.07331170883591054,0.07331170883591054
56.863,0.02838888030546527,0.02838888030546527
56.864,0.0073229387869762075,0.0073229387869762075
56.865,0.012435903001943194,0.012435903001943194
56.866,0.039507850533413214,0.039507850533413214
56.867,0.07915978792846623,0.07915978792846623
56.868,0.11973438677045034,0.11973438677045034
56.869,0.15077411124639717,0.15077411124639717
56.87,0.16600960104975981,0.16600960104975981
56.871,0.16493840791390402,0.16493840791390402
56.872,0.1525396724758452,0.1525396724758452
56.873,0.13727808230747485,0.13727808230747485
56.874,0.1280973300286885,0.1280973300286885
56.875,0.13140844558058884,0.13140844558058884
56.876,0.14904479912571844,0.14904479912571844
56.877,0.17780232226077386,0.17780232226077386
56.878,0.21063755646469606,0.21063755646469606
56.879,0.23904701646890159,0.23904701646890159
56.88,0.25578466497944086,0.25578466497944086
56.881,0.25700778481120823,0.25700778481120823
56.882,0.24318597253853724,0.24318597253853724
56.883,0.21856623686124976,0.21856623686124976
56.884,0.18949121927897683,0.18949121927897683
56.885,0.16223951036000295,0.16223951036000295
56.886,0.14117236126953636,0.14117236126953636
56.887,0.12780114963813327,0.12780114963813327
56.888,0.12100931958904404,0.12100931958904404
56.889,0.11821901791094613,0.11821901791094613
56.89,0.11695175271787273,0.11695175271787273
56.891,0.11611642469999173,0.11611642469999173
56.892,0.11650245621905819,0.11650245621905819
56.893,0.12029793032742808,0.12029793032742808
56.894,0.12985724480766025,0.12985724480766025
56.895,0.1462531075270619,0.1462531075270619
56.896,0.1682446073411168,0.1682446073411168
56.897,0.19213929317685308,0.19213929317685308
56.898,0.2126808280430441,0.2126808280430441
56.899,0.22468649888747239,0.22468649888747239
56.9,0.22484656482356202,0.22484656482356202
56.901,0.21300198331198184,0.21300198331198184
56.902,0.19238042545407974,0.19238042545407974
56.903,0.16863819559677862,0.16863819559677862
56.904,0.1479957451269689,0.1479957451269689
56.905,0.13510511813843817,0.13510511813843817
56.906,0.13141630686016081,0.13141630686016081
56.907,0.13466177405202817,0.13466177405202817
56.908,0.13969931153040394,0.13969931153040394
56.909,0.14047271307629616,0.14047271307629616
56.91,0.13243674851306597,0.13243674851306597
56.911,0.11459662817442773,0.11459662817442773
56.912,0.0904080495674715,0.0904080495674715
56.913,0.0671464231968899,0.0671464231968899
56.914,0.0538640404818862,0.0538640404818862
56.915,0.05853991978564954,0.05853991978564954
56.916,0.08532301489618144,0.08532301489618144
56.917,0.1327724652579534,0.1327724652579534
56.918,0.1937037478174768,0.1937037478174768
56.919,0.2567516866120494,0.2567516866120494
56.92,0.30922233984268366,0.30922233984268366
56.921,0.34040058903421344,0.34040058903421344
56.922,0.3443382546600964,0.3443382546600964
56.923,0.3213110467288385,0.3213110467288385
56.924,0.27754475302735115,0.27754475302735115
56.925,0.2233367461332143,0.2233367461332143
56.926,0.17017095465379883,0.17017095465379883
56.927,0.12769835283223374,0.12769835283223374
56.928,0.10145415586574469,0.10145415586574469
56.929,0.09191986655918138,0.09191986655918138
56.93,0.09510650773885665,0.09510650773885665
56.931,0.10437524588333469,0.10437524588333469
56.932,0.11286400103859284,0.11286400103859284
56.933,0.11575105770084404,0.11575105770084404
56.934,0.11168633867376498,0.11168633867376498
56.935,0.10301177322039656,0.10301177322039656
56.936,0.09477459340393657,0.09477459340393657
56.937,0.09289302730662508,0.09289302730662508
56.938,0.1020622448675168,0.1020622448675168
56.939,0.12403456561594206,0.12403456561594206
56.94,0.15677335510320778,0.15677335510320778
56.941,0.19471593323878755,0.19471593323878755
56.942,0.23006812833425294,0.23006812833425294
56.943,0.2547771568724242,0.2547771568724242
56.944,0.26265746762684805,0.26265746762684805
56.945,0.2511110646080099,0.2511110646080099
56.946,0.22198884087296955,0.22198884087296955
56.947,0.1813512747866597,0.1813512747866597
56.948,0.138153990767661,0.138153990767661
56.949,0.102146476059922,0.102146476059922
56.95,0.0814736780923524,0.0814736780923524
56.951,0.08056508243684002,0.08056508243684002
56.952,0.09885825422025474,0.09885825422025474
56.953,0.13073297252022398,0.13073297252022398
56.954,0.16675589880870345,0.16675589880870345
56.955,0.19600972403463723,0.19600972403463723
56.956,0.2089804394646888,0.2089804394646888
56.957,0.20028217372796253,0.20028217372796253
56.958,0.1704756000664247,0.1704756000664247
56.959,0.12641096501165539,0.12641096501165539
56.96,0.07987626964680872,0.07987626964680872
56.961,0.04477744675934603,0.04477744675934603
56.962,0.03350422547295184,0.03350422547295184
56.963,0.05341756799341524,0.05341756799341524
56.964,0.10443537923258028,0.10443537923258028
56.965,0.17845792744076006,0.17845792744076006
56.966,0.26090828926641896,0.26090828926641896
56.967,0.33408547838132274,0.33408547838132274
56.968,0.38150182019024825,0.38150182019024825
56.969,0.39206102988060065,0.39206102988060065
56.97,0.3629347983679416,0.3629347983679416
56.971,0.3003281995651703,0.3003281995651703
56.972,0.217901844693402,0.217901844693402
56.973,0.13327649628320803,0.13327649628320803
56.974,0.06358852676683924,0.06358852676683924
56.975,0.02132704212155545,0.02132704212155545
56.976,0.011583862752331697,0.011583862752331697
56.977,0.03141522495875981,0.03141522495875981
56.978,0.07138218447379385,0.07138218447379385
56.979,0.1187009400412391,0.1187009400412391
56.98,0.16099060408895793,0.16099060408895793
56.981,0.18948759728190057,0.18948759728190057
56.982,0.20083062567169607,0.20083062567169607
56.983,0.19702225496150083,0.19702225496150083
56.984,0.18377228189447314,0.18377228189447314
56.985,0.16792713150154337,0.16792713150154337
56.986,0.1549296422901898,0.1549296422901898
56.987,0.14716669809293048,0.14716669809293048
56.988,0.14369155420771618,0.14369155420771618
56.989,0.14129104418473104,0.14129104418473104
56.99,0.1363881927249504,0.1363881927249504
56.991,0.12699292521179517,0.12699292521179517
56.992,0.11392789790763658,0.11392789790763658
56.993,0.10084924162432718,0.10084924162432718
56.994,0.09304235609155032,0.09304235609155032
56.995,0.09543339656086047,0.09543339656086047
56.996,0.11055338697434469,0.11055338697434469
56.997,0.13722022468829587,0.13722022468829587
56.998,0.1704565484467726,0.1704565484467726
56.999,0.20272822091284737,0.20272822091284737
57.0,0.22612320913919737,0.22612320913919737
57.001,0.23475759590267264,0.23475759590267264
57.002,0.2266099691023633,0.2266099691023633
57.003,0.2041753401159363,0.2041753401159363
57.004,0.17372660816948238,0.17372660816948238
57.005,0.14343612128133598,0.14343612128133598
57.006,0.12098163684636032,0.12098163684636032
57.007,0.11141454173816046,0.11141454173816046
57.008,0.11595603028787527,0.11595603028787527
57.009,0.13205422549466417,0.13205422549466417
57.01,0.15460198037994477,0.15460198037994477
57.011,0.17783267974550498,0.17783267974550498
57.012,0.1972091667025182,0.1972091667025182
57.013,0.21066208945000175,0.21066208945000175
57.014,0.21879544419450614,0.21879544419450614
57.015,0.22406026671947243,0.22406026671947243
57.016,0.22926477888458985,0.22926477888458985
57.017,0.23601345509836258,0.23601345509836258
57.018,0.24367513311211741,0.24367513311211741
57.019,0.24927582814491878,0.24927582814491878
57.02,0.24837312673562217,0.24837312673562217
57.021,0.2366175548632936,0.2366175548632936
57.022,0.21146385427812486,0.21146385427812486
57.023,0.17344148438230156,0.17344148438230156
57.024,0.12654108805704167,0.12654108805704167
57.025,0.07756546593496139,0.07756546593496139
57.026,0.034626882598619346,0.034626882598619346
57.027,0.00523548206011748,0.00523548206011748
57.028,0.005466056882384551,-0.005466056882384551
57.029,0.004164551655603477,0.004164551655603477
57.03,0.0320408378484307,0.0320408378484307
57.031,0.07301611328882185,0.07301611328882185
57.032,0.1201898249694271,0.1201898249694271
57.033,0.1664457561889594,0.1664457561889594
57.034,0.20580788456083066,0.20580788456083066
57.035,0.23431499570856418,0.23431499570856418
57.036,0.2503000265285844,0.2503000265285844
57.037,0.2541449102697466,0.2541449102697466
57.038,0.2477071000958706,0.2477071000958706
57.039,0.23365040475655263,0.23365040475655263
57.04,0.2148668014992301,0.2148668014992301
57.041,0.1940823270630383,0.1940823270630383
57.042,0.1736447029281456,0.1736447029281456
57.043,0.15543026955736305,0.15543026955736305
57.044,0.14079834148872394,0.14079834148872394
57.045,0.13055263172739573,0.13055263172739573
57.046,0.12491529943136404,0.12491529943136404
57.047,0.12355013865750042,0.12355013865750042
57.048,0.12566959595064953,0.12566959595064953
57.049,0.13022707722100146,0.13022707722100146
57.05,0.13615035885489113,0.13615035885489113
57.051,0.14254043034093766,0.14254043034093766
57.052,0.14876339327013377,0.14876339327013377
57.053,0.15440496303474238,0.15440496303474238
57.054,0.15912162336993796,0.15912162336993796
57.055,0.1624799396787413,0.1624799396787413
57.056,0.16389588240063646,0.16389588240063646
57.057,0.16275312175870082,0.16275312175870082
57.058,0.15870010228961928,0.15870010228961928
57.059,0.15202985659056423,0.15202985659056423
57.06,0.14397547874393668,0.14397547874393668
57.061,0.13674444057316437,0.13674444057316437
57.062,0.13318151152698987,0.13318151152698987
57.063,0.13607752300413956,0.13607752300413956
57.064,0.14728669069547884,0.14728669069547884
57.065,0.1669228205722133,0.1669228205722133
57.066,0.19292683555919532,0.19292683555919532
57.067,0.2212149820510716,0.2212149820510716
57.068,0.24644741596841424,0.24644741596841424
57.069,0.26325373961901155,0.26325373961901155
57.07,0.2675856846449043,0.2675856846449043
57.071,0.2577997128934906,0.2577997128934906
57.072,0.23513433599400102,0.23513433599400102
57.073,0.20342410643643083,0.20342410643643083
57.074,0.168128274367213,0.168128274367213
57.075,0.13496752117998811,0.13496752117998811
57.076,0.10858218853665202,0.10858218853665202
57.077,0.0916072585426162,0.0916072585426162
57.078,0.08440865252339846,0.08440865252339846
57.079,0.08549528042949261,0.08549528042949261
57.08,0.09239372923287914,0.09239372923287914
57.081,0.1026289547505368,0.1026289547505368
57.082,0.11444570879168903,0.11444570879168903
57.083,0.12703283108154206,0.12703283108154206
57.084,0.1402263531997543,0.1402263531997543
57.085,0.15388516405246544,0.15388516405246544
57.086,0.16727008217713712,0.16727008217713712
57.087,0.1787586694210226,0.1787586694210226
57.088,0.18609042744407556,0.18609042744407556
57.089,0.18711057228228567,0.18711057228228567
57.09,0.1807521580489191,0.1807521580489191
57.091,0.16785712406750597,0.16785712406750597
57.092,0.1514478979035061,0.1514478979035061
57.093,0.13622892089428218,0.13622892089428218
57.094,0.12736886194952102,0.12736886194952102
57.095,0.1288940850878022,0.1288940850878022
57.096,0.14220812214463496,0.14220812214463496
57.097,0.16526569081661058,0.16526569081661058
57.098,0.19275629354238366,0.19275629354238366
57.099,0.21734122528192246,0.21734122528192246
57.1,0.23163984821929562,0.23163984821929562
57.101,0.2303945270387342,0.2303945270387342
57.102,0.21215312552800247,0.21215312552800247
57.103,0.17993041613559257,0.17993041613559257
57.104,0.14061048779033802,0.14061048779033802
57.105,0.10323565936295487,0.10323565936295487
57.106,0.07666902690362432,0.07666902690362432
57.107,0.0673064802304757,0.0673064802304757
57.108,0.0774898143018361,0.0774898143018361
57.109,0.10504653364559435,0.10504653364559435
57.11,0.14403167124216587,0.14403167124216587
57.111,0.1863890045917529,0.1863890045917529
57.112,0.223998667745964,0.223998667745964
57.113,0.25051016018026995,0.25051016018026995
57.114,0.2624845883408562,0.2624845883408562
57.115,0.25963280834490243,0.25963280834490243
57.116,0.24423877796829285,0.24423877796829285
57.117,0.22009466278326895,0.22009466278326895
57.118,0.19137120580687572,0.19137120580687572
57.119,0.16178398086318246,0.16178398086318246
57.12,0.13423303245784735,0.13423303245784735
57.121,0.11087103221535544,0.11087103221535544
57.122,0.09338337924438034,0.09338337924438034
57.123,0.08320701675941078,0.08320701675941078
57.124,0.08148829669800217,0.08148829669800217
57.125,0.08874577854881194,0.08874577854881194
57.126,0.10438630259205106,0.10438630259205106
57.127,0.1263406407958343,0.1263406407958343
57.128,0.1510835948264604,0.1510835948264604
57.129,0.17417650427691633,0.17417650427691633
57.13,0.19126378728926396,0.19126378728926396
57.131,0.19925036059688028,0.19925036059688028
57.132,0.19726836425417238,0.19726836425417238
57.133,0.18706472962844956,0.18706472962844956
57.134,0.17260852103658708,0.17260852103658708
57.135,0.15897562929997333,0.15897562929997333
57.136,0.15082739200765483,0.15082739200765483
57.137,0.15096309533230756,0.15096309533230756
57.138,0.1594288400903363,0.1594288400903363
57.139,0.17349785320758615,0.17349785320758615
57.14,0.18855243636663732,0.18855243636663732
57.141,0.199592166563745,0.199592166563745
57.142,0.20287399824843355,0.20287399824843355
57.143,0.19713686975958877,0.19713686975958877
57.144,0.18399843640835734,0.18399843640835734
57.145,0.16739056437025757,0.16739056437025757
57.146,0.15222756212315902,0.15222756212315902
57.147,0.14276292826219295,0.14276292826219295
57.148,0.14119488425354088,0.14119488425354088
57.149,0.14699126847682087,0.14699126847682087
57.15,0.15715196430457246,0.15715196430457246
57.151,0.16730083424032438,0.16730083424032438
57.152,0.17321402495234373,0.17321402495234373
57.153,0.17224751323243592,0.17224751323243592
57.154,0.16417341754483927,0.16417341754483927
57.155,0.15115338141192813,0.15115338141192813
57.156,0.136888465905729,0.136888465905729
57.157,0.12527621846366999,0.12527621846366999
57.158,0.11907262734408941,0.11907262734408941
57.159,0.11904074761367212,0.11904074761367212
57.16,0.12387674007679883,0.12387674007679883
57.161,0.13090939385160327,0.13090939385160327
57.162,0.13728000987372369,0.13728000987372369
57.163,0.1411327561097515,0.1411327561097515
57.164,0.14234692643832947,0.14234692643832947
57.165,0.1425220070421489,0.1425220070421489
57.166,0.1442179890303521,0.1442179890303521
57.167,0.1497483364874943,0.1497483364874943
57.168,0.16000971081466608,0.16000971081466608
57.169,0.17383732762305404,0.17383732762305404
57.17,0.18819008506433965,0.18819008506433965
57.171,0.1991582149558062,0.1991582149558062
57.172,0.20346034369542942,0.20346034369542942
57.173,0.19987840632441078,0.19987840632441078
57.174,0.19005528350233303,0.19005528350233303
57.175,0.17827130666122382,0.17827130666122382
57.176,0.17016460111577714,0.17016460111577714
57.177,0.17074950285268553,0.17074950285268553
57.178,0.1823793464928649,0.1823793464928649
57.179,0.20338440957196346,0.20338440957196346
57.18,0.22794946666190485,0.22794946666190485
57.181,0.2474199540163271,0.2474199540163271
57.182,0.2527568860734446,0.2527568860734446
57.183,0.23745151325933422,0.23745151325933422
57.184,0.2000013710923556,0.2000013710923556
57.185,0.14511952630382918,0.14511952630382918
57.186,0.0831893372175121,0.0831893372175121
57.187,0.027990393733466457,0.027990393733466457
57.188,0.006748841117381721,-0.006748841117381721
57.189,0.011035638694838479,-0.011035638694838479
57.19,0.01851007895118162,0.01851007895118162
57.191,0.0774294374365061,0.0774294374365061
57.192,0.15423579959531386,0.15423579959531386
57.193,0.23307576870322677,0.23307576870322677
57.194,0.2975310491681329,0.2975310491681329
57.195,0.33453871646185873,0.33453871646185873
57.196,0.33739147770622147,0.33739147770622147
57.197,0.30705952223201627,0.30705952223201627
57.198,0.2515612754766181,0.2515612754766181
57.199,0.18365279201066742,0.18365279201066742
57.2,0.11754438314071858,0.11754438314071858
57.201,0.06556612643235704,0.06556612643235704
57.202,0.03564255417187123,0.03564255417187123
57.203,0.03013736014619761,0.03013736014619761
57.204,0.046196895066092036,0.046196895066092036
57.205,0.07729476457795692,0.07729476457795692
57.206,0.11538521628658338,0.11538521628658338
57.207,0.15298602179934395,0.15298602179934395
57.208,0.18463749731199175,0.18463749731199175
57.209,0.2074614256514924,0.2074614256514924
57.21,0.22086795833131134,0.22086795833131134
57.211,0.22572059887163687,0.22572059887163687
57.212,0.2233901854850464,0.2233901854850464
57.213,0.21508370276671296,0.21508370276671296
57.214,0.20165639737478713,0.20165639737478713
57.215,0.1838823895536339,0.1838823895536339
57.216,0.1629597194777317,0.1629597194777317
57.217,0.14093211100513403,0.14093211100513403
57.218,0.12075088413582202,0.12075088413582202
57.219,0.10585510444614044,0.10585510444614044
57.22,0.09935416980824452,0.09935416980824452
57.221,0.10307535727166428,0.10307535727166428
57.222,0.11682170408390546,0.11682170408390546
57.223,0.13814070982132698,0.13814070982132698
57.224,0.16274573823880867,0.16274573823880867
57.225,0.18551445042402737,0.18551445042402737
57.226,0.2017880557365619,0.2017880557365619
57.227,0.2085820732792225,0.2085820732792225
57.228,0.20533420821061998,0.20533420821061998
57.229,0.1939546787128259,0.1939546787128259
57.23,0.1781632250286842,0.1781632250286842
57.231,0.1623226787530916,0.1623226787530916
57.232,0.15013680801869556,0.15013680801869556
57.233,0.1436185263188463,0.1436185263188463
57.234,0.1426417529654338,0.1426417529654338
57.235,0.14519792217321248,0.14519792217321248
57.236,0.14825032710873853,0.14825032710873853
57.237,0.1488907537224935,0.1488907537224935
57.238,0.14541362915989464,0.14541362915989464
57.239,0.13795981289519887,0.13795981289519887
57.24,0.1285300333954693,0.1285300333954693
57.241,0.12037587374214143,0.12037587374214143
57.242,0.11697510151799273,0.11697510151799273
57.243,0.12092409732350884,0.12092409732350884
57.244,0.13309519037625028,0.13309519037625028
57.245,0.15231044712335096,0.15231044712335096
57.246,0.17561180413547683,0.17561180413547683
57.247,0.19901939493751386,0.19901939493751386
57.248,0.21852711202344732,0.21852711202344732
57.249,0.23103053650966987,0.23103053650966987
57.25,0.234929328792171,0.234929328792171
57.251,0.23027176746046174,0.23027176746046174
57.252,0.2184660815994135,0.2184660815994135
57.253,0.20171655520725706,0.20171655520725706
57.254,0.1824086120933901,0.1824086120933901
57.255,0.1626486965156877,0.1626486965156877
57.256,0.14407502931556015,0.14407502931556015
57.257,0.12793218478651114,0.12793218478651114
57.258,0.11529389940747992,0.11529389940747992
57.259,0.10726496898940252,0.10726496898940252
57.26,0.10501287232009049,0.10501287232009049
57.261,0.10956312216516029,0.10956312216516029
57.262,0.12140563283347094,0.12140563283347094
57.263,0.1400578509794126,0.1400578509794126
57.264,0.16377481599511534,0.16377481599511534
57.265,0.1895675018687788,0.1895675018687788
57.266,0.21359665189299015,0.21359665189299015
57.267,0.23188210532285236,0.23188210532285236
57.268,0.24115238023871544,0.24115238023871544
57.269,0.23959771050811374,0.23959771050811374
57.27,0.22730521375909118,0.22730521375909118
57.271,0.20624402558808907,0.20624402558808907
57.272,0.17980203112836812,0.17980203112836812
57.273,0.15200967824607137,0.15200967824607137
57.274,0.12667571383128906,0.12667571383128906
57.275,0.10667548120110748,0.10667548120110748
57.276,0.09357098766723615,0.09357098766723615
57.277,0.08762596476840323,0.08762596476840323
57.278,0.08814933472620123,0.08814933472620123
57.279,0.09400123100379165,0.09400123100379165
57.28,0.10405954632636871,0.10405954632636871
57.281,0.1174816050324996,0.1174816050324996
57.282,0.13368903102114937,0.13368903102114937
57.283,0.15211882741481708,0.15211882741481708
57.284,0.17187816482245988,0.17187816482245988
57.285,0.19148077023538246,0.19148077023538246
57.286,0.2088154006100913,0.2088154006100913
57.287,0.22141219359845832,0.22141219359845832
57.288,0.22696122197047974,0.22696122197047974
57.289,0.22393874329049934,0.22393874329049934
57.29,0.21214488061032966,0.21214488061032966
57.291,0.19296959275752035,0.19296959275752035
57.292,0.16927739655113871,0.16927739655113871
57.293,0.14491105726685993,0.14491105726685993
57.294,0.12392503794639276,0.12392503794639276
57.295,0.10973674325489124,0.10973674325489124
57.296,0.10440558958429103,0.10440558958429103
57.297,0.10821318933128721,0.10821318933128721
57.298,0.11963697606917822,0.11963697606917822
57.299,0.13571061957349406,0.13571061957349406
57.3,0.15267595504637743,0.15267595504637743
57.301,0.16677436789485056,0.16677436789485056
57.302,0.17500976461735762,0.17500976461735762
57.303,0.1757367587064571,0.1757367587064571
57.304,0.16897406181546337,0.16897406181546337
57.305,0.15639928222208388,0.15639928222208388
57.306,0.14103539996940628,0.14103539996940628
57.307,0.12668487142640816,0.12668487142640816
57.308,0.117203329122749,0.117203329122749
57.309,0.11573154091048354,0.11573154091048354
57.31,0.12402004673050704,0.12402004673050704
57.311,0.14198043801357185,0.14198043801357185
57.312,0.16757328102570623,0.16757328102570623
57.313,0.19709028594347644,0.19709028594347644
57.314,0.22581015128026927,0.22581015128026927
57.315,0.24891702889276313,0.24891702889276313
57.316,0.26249092223235704,0.26249092223235704
57.317,0.2643373752274705,0.2643373752274705
57.318,0.2544405732145987,0.2544405732145987
57.319,0.23490524077573194,0.23490524077573194
57.32,0.20938347902028265,0.20938347902028265
57.321,0.1821285786918636,0.1821285786918636
57.322,0.15693418207025056,0.15693418207025056
57.323,0.13626321146718423,0.13626321146718423
57.324,0.120824840594004,0.120824840594004
57.325,0.10972636259479018,0.10972636259479018
57.326,0.10114656745678996,0.10114656745678996
57.327,0.09330446491988398,0.09330446491988398
57.328,0.08539023360358833,0.08539023360358833
57.329,0.07812448525492877,0.07812448525492877
57.33,0.07372422731468853,0.07372422731468853
57.331,0.07524795864718237,0.07524795864718237
57.332,0.08550681813273964,0.08550681813273964
57.333,0.10589162510937289,0.10589162510937289
57.334,0.13551859156931423,0.13551859156931423
57.335,0.17101555339608798,0.17101555339608798
57.336,0.20707642730930154,0.20707642730930154
57.337,0.2376645334747145,0.2376645334747145
57.338,0.257526402043156,0.257526402043156
57.339,0.2635614476113053,0.2635614476113053
57.34,0.2556221216524368,0.2556221216524368
57.341,0.2364887294705722,0.2364887294705722
57.342,0.2110203726181208,0.2110203726181208
57.343,0.18474487605701384,0.18474487605701384
57.344,0.16232929402036533,0.16232929402036533
57.345,0.14640813276911735,0.14640813276911735
57.346,0.13712558720762313,0.13712558720762313
57.347,0.13251020033053162,0.13251020033053162
57.348,0.12952454612380304,0.12952454612380304
57.349,0.125411167377802,0.125411167377802
57.35,0.11886330873644213,0.11886330873644213
57.351,0.11061572678404197,0.11061572678404197
57.352,0.10325373979924701,0.10325373979924701
57.353,0.10030831968098641,0.10030831968098641
57.354,0.10494974239811983,0.10494974239811983
57.355,0.11872949867665805,0.11872949867665805
57.356,0.14080442859320663,0.14080442859320663
57.357,0.16791534432497457,0.16791534432497457
57.358,0.19514108213956227,0.19514108213956227
57.359,0.21719377354171265,0.21719377354171265
57.36,0.22984763717025114,0.22984763717025114
57.361,0.2310577965531102,0.2310577965531102
57.362,0.22143564699424756,0.22143564699424756
57.363,0.2039618209555818,0.2039618209555818
57.364,0.18306167162998666,0.18306167162998666
57.365,0.16335922961284455,0.16335922961284455
57.366,0.14850303720939517,0.14850303720939517
57.367,0.140401849687249,0.140401849687249
57.368,0.13904695929603128,0.13904695929603128
57.369,0.142892665147478,0.142892665147478
57.37,0.14959045810642935,0.14959045810642935
57.371,0.15678418389023596,0.15678418389023596
57.372,0.16269635654707448,0.16269635654707448
57.373,0.16635215801301295,0.16635215801301295
57.374,0.16744707123480018,0.16744707123480018
57.375,0.1660036484862213,0.1660036484862213
57.376,0.16203102352272958,0.16203102352272958
57.377,0.1553757714292534,0.1553757714292534
57.378,0.1458495982554855,0.1458495982554855
57.379,0.13358255836614652,0.13358255836614652
57.38,0.11943600355366168,0.11943600355366168
57.381,0.1052630675343793,0.1052630675343793
57.382,0.09384473100718216,0.09384473100718216
57.383,0.08844139797674999,0.08844139797674999
57.384,0.09204143562921963,0.09204143562921963
57.385,0.10650675753108918,0.10650675753108918
57.386,0.1318681053487194,0.1318681053487194
57.387,0.1659910986440758,0.1659910986440758
57.388,0.20473100278459522,0.20473100278459522
57.389,0.24255680699621407,0.24255680699621407
57.39,0.27350055062030276,0.27350055062030276
57.391,0.29221465589172047,0.29221465589172047
57.392,0.2949153156315856,0.2949153156315856
57.393,0.2800446811893498,0.2800446811893498
57.394,0.24856983025225032,0.24856983025225032
57.395,0.20391731698260895,0.20391731698260895
57.396,0.1515926758791475,0.1515926758791475
57.397,0.09854800237895578,0.09854800237895578
57.398,0.05235129499042035,0.05235129499042035
57.399,0.020203831607602085,0.020203831607602085
57.4,0.00786903523972815,0.00786903523972815
57.401,0.018624555606266524,0.018624555606266524
57.402,0.05241277729237037,0.05241277729237037
57.403,0.1054097466862014,0.1054097466862014
57.404,0.17022060415112938,0.17022060415112938
57.405,0.23681726528311242,0.23681726528311242
57.406,0.29416675369763845,0.29416675369763845
57.407,0.3322954670619618,0.3322954670619618
57.408,0.34435963449433693,0.34435963449433693
57.409,0.32821296483020723,0.32821296483020723
57.41,0.287024814738724,0.287024814738724
57.411,0.2287092970277662,0.2287092970277662
57.412,0.16423081459381406,0.16423081459381406
57.413,0.1051682346250229,0.1051682346250229
57.414,0.061148537545062,0.061148537545062
57.415,0.03782151892222463,0.03782151892222463
57.416,0.03590949162390311,0.03590949162390311
57.417,0.05156283113233351,0.05156283113233351
57.418,0.07787280275748842,0.07787280275748842
57.419,0.10705567398380178,0.10705567398380178
57.42,0.13263529633895033,0.13263529633895033
57.421,0.15097700638310707,0.15097700638310707
57.422,0.1617564765846724,0.1617564765846724
57.423,0.16730715529869555,0.16730715529869555
57.424,0.17115919613053565,0.17115919613053565
57.425,0.17633753468140312,0.17633753468140312
57.426,0.18404194634832427,0.18404194634832427
57.427,0.19317086774247727,0.19317086774247727
57.428,0.20083160939099698,0.20083160939099698
57.429,0.20361547380206035,0.20361547380206035
57.43,0.19913610128255854,0.19913610128255854
57.431,0.1872324752054655,0.1872324752054655
57.432,0.1703590458309603,0.1703590458309603
57.433,0.1529815673516024,0.1529815673516024
57.434,0.14016293373509137,0.14016293373509137
57.435,0.13582735823007308,0.13582735823007308
57.436,0.14132340660923304,0.14132340660923304
57.437,0.15481684644345606,0.15481684644345606
57.438,0.17176196738624894,0.17176196738624894
57.439,0.1863230972570349,0.1863230972570349
57.44,0.19327947407531387,0.19327947407531387
57.441,0.1897672373470618,0.1897672373470618
57.442,0.1762576127976263,0.1762576127976263
57.443,0.1564269252500432,0.1564269252500432
57.444,0.13595361472887446,0.13595361472887446
57.445,0.120647653687592,0.120647653687592
57.446,0.11454890999975476,0.11454890999975476
57.447,0.11864171241703958,0.11864171241703958
57.448,0.13061905105873794,0.13061905105873794
57.449,0.14576620442396293,0.14576620442396293
57.45,0.15864734240309475,0.15864734240309475
57.451,0.16500464192193331,0.16500464192193331
57.452,0.16321260461796094,0.16321260461796094
57.453,0.1547923492437191,0.1547923492437191
57.454,0.14382297655370757,0.14382297655370757
57.455,0.13547173158967296,0.13547173158967296
57.456,0.13416646252444653,0.13416646252444653
57.457,0.14204826238158286,0.14204826238158286
57.458,0.15823188190168969,0.15823188190168969
57.459,0.17910892139229584,0.17910892139229584
57.46,0.1995601196602037,0.1995601196602037
57.461,0.21462977953384033,0.21462977953384033
57.462,0.22106733353069363,0.22106733353069363
57.463,0.2182075947604294,0.2182075947604294
57.464,0.20791438225757353,0.20791438225757353
57.465,0.19365764673376495,0.19365764673376495
57.466,0.17910588375253922,0.17910588375253922
57.467,0.16678127090994388,0.16678127090994388
57.468,0.15728639366124186,0.15728639366124186
57.469,0.14938490269308624,0.14938490269308624
57.47,0.14088829405046854,0.14088829405046854
57.471,0.12998878862942975,0.12998878862942975
57.472,0.11649886400969245,0.11649886400969245
57.473,0.1024781884168251,0.1024781884168251
57.474,0.09194339185151668,0.09194339185151668
57.475,0.0896900318659346,0.0896900318659346
57.476,0.09959068440436414,0.09959068440436414
57.477,0.12294843719337356,0.12294843719337356
57.478,0.15750234466922453,0.15750234466922453
57.479,0.19749051166245213,0.19749051166245213
57.48,0.2348395217095831,0.2348395217095831
57.481,0.26117858825223994,0.26117858825223994
57.482,0.2700973745220703,0.2700973745220703
57.483,0.2589713512941598,0.2589713512941598
57.484,0.22979919059888787,0.22979919059888787
57.485,0.18879272331025176,0.18879272331025176
57.486,0.14483435977456338,0.14483435977456338
57.487,0.10724936592348544,0.10724936592348544
57.488,0.08352791177621666,0.08352791177621666
57.489,0.0776215046248161,0.0776215046248161
57.49,0.08924268581532435,0.08924268581532435
57.491,0.11428607766466348,0.11428607766466348
57.492,0.1461653093951103,0.1461653093951103
57.493,0.17762322642893458,0.17762322642893458
57.494,0.20248650426128045,0.20248650426128045
57.495,0.2169120175171264,0.2169120175171264
57.496,0.2198708389550208,0.2198708389550208
57.497,0.2128623567587733,0.2128623567587733
57.498,0.19906499123761545,0.19906499123761545
57.499,0.1822510320054347,0.1822510320054347
57.5,0.1657984225218232,0.1657984225218232
57.501,0.15203921613313853,0.15203921613313853
57.502,0.14203898519096447,0.14203898519096447
57.503,0.1357587756768146,0.1357587756768146
57.504,0.1324552902268601,0.1324552902268601
57.505,0.1311456018787469,0.1311456018787469
57.506,0.13099290260612428,0.13099290260612428
57.507,0.13153372287950815,0.13153372287950815
57.508,0.1327335541036514,0.1327335541036514
57.509,0.13490361641947235,0.13490361641947235
57.51,0.13852888771031613,0.13852888771031613
57.511,0.14405372776298742,0.14405372776298742
57.512,0.1516615749584067,0.1516615749584067
57.513,0.1610822271836645,0.1610822271836645
57.514,0.17146737836388093,0.17146737836388093
57.515,0.18138417428910714,0.18138417428910714
57.516,0.1889728830858155,0.1889728830858155
57.517,0.1922862289949816,0.1922862289949816
57.518,0.18977368059115562,0.18977368059115562
57.519,0.1808082955721475,0.1808082955721475
57.52,0.16610248494704782,0.16610248494704782
57.521,0.14784972695800525,0.14784972695800525
57.522,0.12947823833322425,0.12947823833322425
57.523,0.11500547741534328,0.11500547741534328
57.524,0.10811169318505409,0.10811169318505409
57.525,0.11116345441994868,0.11116345441994868
57.526,0.12447028986285624,0.12447028986285624
57.527,0.14602163554157532,0.14602163554157532
57.528,0.17182856893079967,0.17182856893079967
57.529,0.1968183578557876,0.1968183578557876
57.53,0.2160552624955161,0.2160552624955161
57.531,0.2259479836487075,0.2259479836487075
57.532,0.22509499708567837,0.22509499708567837
57.533,0.21452231027675217,0.21452231027675217
57.534,0.19725368897392292,0.19725368897392292
57.535,0.17736103865212427,0.17736103865212427
57.536,0.15880268477197657,0.15880268477197657
57.537,0.1444149834401327,0.1444149834401327
57.538,0.13535806068341438,0.13535806068341438
57.539,0.13115225859755641,0.13115225859755641
57.54,0.13023599835440725,0.13023599835440725
57.541,0.1308009684137914,0.1308009684137914
57.542,0.13157817455083287,0.13157817455083287
57.543,0.132286157483549,0.132286157483549
57.544,0.13359447819237524,0.13359447819237524
57.545,0.136647333543908,0.136647333543908
57.546,0.14236185332922502,0.14236185332922502
57.547,0.15079996582067534,0.15079996582067534
57.548,0.16088080649669445,0.16088080649669445
57.549,0.17056557590884136,0.17056557590884136
57.55,0.17746072037386207,0.17746072037386207
57.551,0.17961990700153385,0.17961990700153385
57.552,0.17624428224013022,0.17624428224013022
57.553,0.16801546778315113,0.16801546778315113
57.554,0.15693356967485617,0.15693356967485617
57.555,0.14572008964823735,0.14572008964823735
57.556,0.13701010390268498,0.13701010390268498
57.557,0.13263473770741396,0.13263473770741396
57.558,0.13325281169589842,0.13325281169589842
57.559,0.13844507480012402,0.13844507480012402
57.56,0.1471926592284467,0.1471926592284467
57.561,0.1585003475118396,0.1585003475118396
57.562,0.1718620778501918,0.1718620778501918
57.563,0.18733094426615327,0.18733094426615327
57.564,0.20512823072621034,0.20512823072621034
57.565,0.22494028592099813,0.22494028592099813
57.566,0.24522157718506388,0.24522157718506388
57.567,0.2628723280005618,0.2628723280005618
57.568,0.2735574059215351,0.2735574059215351
57.569,0.2727053182401027,0.2727053182401027
57.57,0.2569502317157013,0.2569502317157013
57.571,0.22555966716692488,0.22555966716692488
57.572,0.1813176509768446,0.1813176509768446
57.573,0.13045140483709528,0.13045140483709528
57.574,0.08147477656219682,0.08147477656219682
57.575,0.04318506670365707,0.04318506670365707
57.576,0.022367062914879998,0.022367062914879998
57.577,0.021911272328361653,0.021911272328361653
57.578,0.039974977966959147,0.039974977966959147
57.579,0.07051496484782316,0.07051496484782316
57.58,0.10508855738564882,0.10508855738564882
57.581,0.13539588631564548,0.13539588631564548
57.582,0.1557670918938432,0.1557670918938432
57.583,0.16478375281509927,0.16478375281509927
57.584,0.16548159951350372,0.16548159951350372
57.585,0.16403626047208908,0.16403626047208908
57.586,0.16733955313447368,0.16733955313447368
57.587,0.18026159704782407,0.18026159704782407
57.588,0.20352853515804226,0.20352853515804226
57.589,0.23297271199877878,0.23297271199877878
57.59,0.2604795834853706,0.2604795834853706
57.591,0.27639993789116546,0.27639993789116546
57.592,0.27269865791717773,0.27269865791717773
57.593,0.2458387313181758,0.2458387313181758
57.594,0.19844698438059916,0.19844698438059916
57.595,0.1391674291642484,0.1391674291642484
57.596,0.08066779080088926,0.08066779080088926
57.597,0.03634625950535053,0.03634625950535053
57.598,0.016701572279984145,0.016701572279984145
57.599,0.026445675677631897,0.026445675677631897
57.6,0.06321681962573567,0.06321681962573567
57.601,0.11826329265422708,0.11826329265422708
57.602,0.17887051084547423,0.17887051084547423
57.603,0.23178661377014698,0.23178661377014698
57.604,0.2666252846542203,0.2666252846542203
57.605,0.27827004168100533,0.27827004168100533
57.606,0.2676477752014026,0.2676477752014026
57.607,0.2407624287600274,0.2407624287600274
57.608,0.2064106384639386,0.2064106384639386
57.609,0.17337203741022078,0.17337203741022078
57.61,0.14796827156323822,0.14796827156323822
57.611,0.132698669799441,0.132698669799441
57.612,0.12626272884241696,0.12626272884241696
57.613,0.12481064186159907,0.12481064186159907
57.614,0.1238792455997555,0.1238792455997555
57.615,0.12029179099832765,0.12029179099832765
57.616,0.11337156080730404,0.11337156080730404
57.617,0.10510189589317465,0.10510189589317465
57.618,0.09925133986006007,0.09925133986006007
57.619,0.09983686637248046,0.09983686637248046
57.62,0.10950368908720942,0.10950368908720942
57.621,0.12839695535728946,0.12839695535728946
57.622,0.15390244673450115,0.15390244673450115
57.623,0.18131890514227256,0.18131890514227256
57.624,0.2052069843226627,0.2052069843226627
57.625,0.22094650753769862,0.22094650753769862
57.626,0.22599023794831008,0.22599023794831008
57.627,0.22043268157598828,0.22043268157598828
57.628,0.20676133597836333,0.20676133597836333
57.629,0.18893342317675588,0.18893342317675588
57.63,0.17112869900466987,0.17112869900466987
57.631,0.15660326026627214,0.15660326026627214
57.632,0.14699523527164904,0.14699523527164904
57.633,0.1422475442578901,0.1422475442578901
57.634,0.1410879115391508,0.1410879115391508
57.635,0.14182255245014752,0.14182255245014752
57.636,0.1431177101222867,0.1431177101222867
57.637,0.14448293971300075,0.14448293971300075
57.638,0.14630805691690574,0.14630805691690574
57.639,0.1494855548028151,0.1494855548028151
57.64,0.154804931151046,0.154804931151046
57.641,0.16238125723341224,0.16238125723341224
57.642,0.17135543874830983,0.17135543874830983
57.643,0.1799930183647187,0.1799930183647187
57.644,0.1861563572128857,0.1861563572128857
57.645,0.18798766678054424,0.18798766678054424
57.646,0.1845650690809908,0.1845650690809908
57.647,0.17630355734116554,0.17630355734116554
57.648,0.16495966121536454,0.16495966121536454
57.649,0.15322933003152772,0.15322933003152772
57.65,0.14405729193227645,0.14405729193227645
57.651,0.1398613805430975,0.1398613805430975
57.652,0.14189321419015521,0.14189321419015521
57.653,0.14990719476138237,0.14990719476138237
57.654,0.16221435355677083,0.16221435355677083
57.655,0.1760892020337248,0.1760892020337248
57.656,0.18840914512357299,0.18840914512357299
57.657,0.19635917093749433,0.19635917093749433
57.658,0.19803562585280887,0.19803562585280887
57.659,0.1928234054139666,0.1928234054139666
57.66,0.18148346442788998,0.18148346442788998
57.661,0.16595344894062913,0.16595344894062913
57.662,0.1489193947038452,0.1489193947038452
57.663,0.13325383186004092,0.13325383186004092
57.664,0.1214341673148922,0.1214341673148922
57.665,0.11505631953832895,0.11505631953832895
57.666,0.1145431854754011,0.1145431854754011
57.667,0.11911519133350978,0.11911519133350978
57.668,0.12704098538160125,0.12704098538160125
57.669,0.13612428600589999,0.13612428600589999
57.67,0.1443187120048124,0.1443187120048124
57.671,0.15031327551233598,0.15031327551233598
57.672,0.15391650815330982,0.15391650815330982
57.673,0.15610114067445457,0.15610114067445457
57.674,0.15865511962402956,0.15865511962402956
57.675,0.1635021870150304,0.1635021870150304
57.676,0.1718738090307419,0.1718738090307419
57.677,0.18359369898847877,0.18359369898847877
57.678,0.19674187223458794,0.19674187223458794
57.679,0.20788186704465605,0.20788186704465605
57.68,0.21287579308345506,0.21287579308345506
57.681,0.20811917258763524,0.20811917258763524
57.682,0.19186126436085682,0.19186126436085682
57.683,0.16519652524318706,0.16519652524318706
57.684,0.13235763291506397,0.13235763291506397
57.685,0.10011133131598715,0.10011133131598715
57.686,0.0763143671967117,0.0763143671967117
57.687,0.0679541566359676,0.0679541566359676
57.688,0.07919237127740053,0.07919237127740053
57.689,0.10998026449333653,0.10998026449333653
57.69,0.1556936524289958,0.1556936524289958
57.691,0.2079676242404327,0.2079676242404327
57.692,0.2565699403597277,0.2565699403597277
57.693,0.29183961769879163,0.29183961769879163
57.694,0.3070321339189117,0.3070321339189117
57.695,0.2999183647421919,0.2999183647421919
57.696,0.27318657924602174,0.27318657924602174
57.697,0.23353943686092848,0.23353943686092848
57.698,0.189758679223055,0.189758679223055
57.699,0.1503120366828341,0.1503120366828341
57.7,0.12120512567861641,0.12120512567861641
57.701,0.10469445503257924,0.10469445503257924
57.702,0.09920231390611911,0.09920231390611911
57.703,0.10039664383223879,0.10039664383223879
57.704,0.10303837602795385,0.10303837602795385
57.705,0.10296931078241567,0.10296931078241567
57.706,0.09858748545377338,0.09858748545377338
57.707,0.0913406231640932,0.0913406231640932
57.708,0.08510045690373769,0.08510045690373769
57.709,0.08465250305804761,0.08465250305804761
57.71,0.09382607645987129,0.09382607645987129
57.711,0.11390426018384936,0.11390426018384936
57.712,0.1428573171578349,0.1428573171578349
57.713,0.175669062866596,0.175669062866596
57.714,0.20566523248505475,0.20566523248505475
57.715,0.22642454071247964,0.22642454071247964
57.716,0.23366389311667657,0.23366389311667657
57.717,0.22649931898071785,0.22649931898071785
57.718,0.20768798231075447,0.20768798231075447
57.719,0.182785178877942,0.182785178877942
57.72,0.15849489591085852,0.15849489591085852
57.721,0.1407411911882921,0.1407411911882921
57.722,0.13306164870383674,0.13306164870383674
57.723,0.13580346105367624,0.13580346105367624
57.724,0.1463313456224229,0.1463313456224229
57.725,0.16012684477848427,0.16012684477848427
57.726,0.17237966976313768,0.17237966976313768
57.727,0.17953308052696326,0.17953308052696326
57.728,0.18028760808458255,0.18028760808458255
57.729,0.17577054250935298,0.17577054250935298
57.73,0.16886972471265782,0.16886972471265782
57.731,0.1630095055202101,0.1630095055202101
57.732,0.1608215051268782,0.1608215051268782
57.733,0.16317807742186807,0.16317807742186807
57.734,0.16891239189132046,0.16891239189132046
57.735,0.17529960689892055,0.17529960689892055
57.736,0.1791065633472415,0.1791065633472415
57.737,0.17782413530478314,0.17782413530478314
57.738,0.17064078168315855,0.17064078168315855
57.739,0.15881356904858435,0.15881356904858435
57.74,0.14530717278533212,0.14530717278533212
57.741,0.13382658201542208,0.13382658201542208
57.742,0.12757763453068827,0.12757763453068827
57.743,0.12818099878263767,0.12818099878263767
57.744,0.13511070897047195,0.13511070897047195
57.745,0.14584867437928728,0.14584867437928728
57.746,0.1567043553318761,0.1567043553318761
57.747,0.1640264558522151,0.1640264558522151
57.748,0.16540512577866417,0.16540512577866417
57.749,0.16046991487909357,0.16046991487909357
57.75,0.15102575986270517,0.15102575986270517
57.751,0.14048860564659438,0.14048860564659438
57.752,0.13280978216758244,0.13280978216758244
57.753,0.1312391434336011,0.1312391434336011
57.754,0.13732046062132208,0.13732046062132208
57.755,0.15042798497255316,0.15042798497255316
57.756,0.16797209267268887,0.16797209267268887
57.757,0.1861865111988923,0.1861865111988923
57.758,0.20123067757878443,0.20123067757878443
57.759,0.21025440379805338,0.21025440379805338
57.76,0.21210180746046614,0.21210180746046614
57.761,0.20746221381974506,0.20746221381974506
57.762,0.1984603045561708,0.1984603045561708
57.763,0.1878541060627783,0.1878541060627783
57.764,0.1781215311036919,0.1781215311036919
57.765,0.1707321832527684,0.1707321832527684
57.766,0.1658220347412589,0.1658220347412589
57.767,0.16234593737470027,0.16234593737470027
57.768,0.1586264490743019,0.1586264490743019
57.769,0.15309761263173716,0.15309761263173716
57.77,0.14499389697311194,0.14499389697311194
57.771,0.1347666831154486,0.1347666831154486
57.772,0.12410636003727515,0.12410636003727515
57.773,0.11557201254752458,0.11557201254752458
57.774,0.11194266308658496,0.11194266308658496
57.775,0.11547250333904269,0.11547250333904269
57.776,0.127243594711417,0.127243594711417
57.777,0.14676878390011905,0.14676878390011905
57.778,0.17192527805773739,0.17192527805773739
57.779,0.1992208850600894,0.1992208850600894
57.78,0.22433136435686296,0.22433136435686296
57.781,0.2428090018976834,0.2428090018976834
57.782,0.25084824013090223,0.25084824013090223
57.783,0.24599542180392575,0.24599542180392575
57.784,0.2276973004097571,0.2276973004097571
57.785,0.1975931305453087,0.1975931305453087
57.786,0.15947167853196342,0.15947167853196342
57.787,0.11884621975537568,0.11884621975537568
57.788,0.08215510632387812,0.08215510632387812
57.789,0.05567211172983333,0.05567211172983333
57.79,0.044296268297035146,0.044296268297035146
57.791,0.050460704034992476,0.050460704034992476
57.792,0.07342512644220123,0.07342512644220123
57.793,0.10917475332293258,0.10917475332293258
57.794,0.15103471168441462,0.15103471168441462
57.795,0.19094186290799842,0.19094186290799842
57.796,0.22113624794129505,0.22113624794129505
57.797,0.23589429552935948,0.23589429552935948
57.798,0.2328738574459901,0.2328738574459901
57.799,0.213704300542634,0.213704300542634
57.8,0.1836278247047214,0.1836278247047214
57.801,0.15024065553364596,0.15024065553364596
57.802,0.12162917631540693,0.12162917631540693
57.803,0.10437406537305183,0.10437406537305183
57.804,0.10194834196181679,0.10194834196181679
57.805,0.11394064746834753,0.11394064746834753
57.806,0.13631435798776836,0.13631435798776836
57.807,0.16262661703092673,0.16262661703092673
57.808,0.18586157198365982,0.18586157198365982
57.809,0.2003588919077235,0.2003588919077235
57.81,0.20329465928575852,0.20329465928575852
57.811,0.19530550688296477,0.19530550688296477
57.812,0.18009950459874302,0.18009950459874302
57.813,0.16319381256933996,0.16319381256933996
57.814,0.15017118890023662,0.15017118890023662
57.815,0.14498041302226206,0.14498041302226206
57.816,0.14878133177949215,0.14878133177949215
57.817,0.15966316634295508,0.15966316634295508
57.818,0.17329890557841177,0.17329890557841177
57.819,0.18432026373339894,0.18432026373339894
57.82,0.1879900150717928,0.1879900150717928
57.821,0.18167144544356217,0.18167144544356217
57.822,0.16566725113273462,0.16566725113273462
57.823,0.14319618386290855,0.14319618386290855
57.824,0.11953293976014567,0.11953293976014567
57.825,0.10057727764669222,0.10057727764669222
57.826,0.09127243065868695,0.09127243065868695
57.827,0.09431953318518893,0.09431953318518893
57.828,0.1095324533790607,0.1095324533790607
57.829,0.13398227962342024,0.13398227962342024
57.83,0.16285378971254905,0.16285378971254905
57.831,0.19074394979848153,0.19074394979848153
57.832,0.21302693939852935,0.21302693939852935
57.833,0.2269151465028063,0.2269151465028063
57.834,0.23195188361242236,0.23195188361242236
57.835,0.229842560465648,0.229842560465648
57.836,0.22371526544781806,0.22371526544781806
57.837,0.21704862105121125,0.21704862105121125
57.838,0.21257848074316876,0.21257848074316876
57.839,0.2114823044724672,0.2114823044724672
57.84,0.21305124338842152,0.21305124338842152
57.841,0.21492352632584555,0.21492352632584555
57.842,0.2138058529173381,0.2138058529173381
57.843,0.20648801500422298,0.20648801500422298
57.844,0.19088635536839949,0.19088635536839949
57.845,0.1668464967020844,0.1668464967020844
57.846,0.1364929369331176,0.1364929369331176
57.847,0.10401802161464913,0.10401802161464913
57.848,0.0749322792095779,0.0749322792095779
57.849,0.05492489129181499,0.05492489129181499
57.85,0.04858045365232222,0.04858045365232222
57.851,0.05824441161055294,0.05824441161055294
57.852,0.08331191855226061,0.08331191855226061
57.853,0.12013303293389943,0.12013303293389943
57.854,0.16259485986298938,0.16259485986298938
57.855,0.2032852748781302,0.2032852748781302
57.856,0.23499878016887843,0.23499878016887843
57.857,0.2522494884122355,0.2522494884122355
57.858,0.2524374854719742,0.2524374854719742
57.859,0.23638392347974713,0.23638392347974713
57.86,0.2080955953947734,0.2080955953947734
57.861,0.17380790272874624,0.17380790272874624
57.862,0.14053783081357163,0.14053783081357163
57.863,0.11450558389523957,0.11450558389523957
57.864,0.0998173992585043,0.0998173992585043
57.865,0.09773011915374008,0.09773011915374008
57.866,0.10665803145936437,0.10665803145936437
57.867,0.12287863206186334,0.12287863206186334
57.868,0.14170500061296254,0.14170500061296254
57.869,0.15877389822106558,0.15877389822106558
57.87,0.1710853840624813,0.1710853840624813
57.871,0.1775245185316996,0.1775245185316996
57.872,0.1787677645916652,0.1787677645916652
57.873,0.17667093078168183,0.17667093078168183
57.874,0.17339006705565474,0.17339006705565474
57.875,0.17055310119223432,0.17055310119223432
57.876,0.16875899226840696,0.16875899226840696
57.877,0.16754934407291344,0.16754934407291344
57.878,0.16582157479324167,0.16582157479324167
57.879,0.16249412216347858,0.16249412216347858
57.88,0.15714757938166812,0.15714757938166812
57.881,0.1503806281225537,0.1503806281225537
57.882,0.14373010893500804,0.14373010893500804
57.883,0.1391708602489472,0.1391708602489472
57.884,0.13837340630908557,0.13837340630908557
57.885,0.1419973327938424,0.1419973327938424
57.886,0.14929796548129337,0.14929796548129337
57.887,0.15822148753195342,0.15822148753195342
57.888,0.1659929955271393,0.1659929955271393
57.889,0.17002229068290675,0.17002229068290675
57.89,0.1688271721111272,0.1688271721111272
57.891,0.16264975148654948,0.16264975148654948
57.892,0.153529828041868,0.153529828041868
57.893,0.14477365387154872,0.14477365387154872
57.894,0.1399591182070643,0.1399591182070643
57.895,0.14178100513341785,0.14178100513341785
57.896,0.1511062722534795,0.1511062722534795
57.897,0.16655462034864876,0.16655462034864876
57.898,0.1847597182064682,0.1847597182064682
57.899,0.20125248608456237,0.20125248608456237
57.9,0.2117094295171975,0.2117094295171975
57.901,0.2131909280037081,0.2131909280037081
57.902,0.20499498190866516,0.20499498190866516
57.903,0.18887055644167772,0.18887055644167772
57.904,0.16853225768130575,0.16853225768130575
57.905,0.14863054137504883,0.14863054137504883
57.906,0.1334914074772915,0.1334914074772915
57.907,0.12599772673258558,0.12599772673258558
57.908,0.1269263126439122,0.1269263126439122
57.909,0.13490373680863765,0.13490373680863765
57.91,0.14695160233643367,0.14695160233643367
57.911,0.15942098302323648,0.15942098302323648
57.912,0.16901803541619276,0.16901803541619276
57.913,0.17362355386352313,0.17362355386352313
57.914,0.17270014306421944,0.17270014306421944
57.915,0.16722493327210652,0.16722493327210652
57.916,0.15923238442060206,0.15923238442060206
57.917,0.15115371160184488,0.15115371160184488
57.918,0.14516929254388855,0.14516929254388855
57.919,0.14274769096379392,0.14274769096379392
57.92,0.14445398154149047,0.14445398154149047
57.921,0.15000903816036093,0.15000903816036093
57.922,0.15850734129980193,0.15850734129980193
57.923,0.16867619155954938,0.16867619155954938
57.924,0.17908510221390217,0.17908510221390217
57.925,0.18827191972024426,0.18827191972024426
57.926,0.19481245721729334,0.19481245721729334
57.927,0.1973954888216407,0.1973954888216407
57.928,0.1949601044006699,0.1949601044006699
57.929,0.18691123387627107,0.18691123387627107
57.93,0.17337133894023093,0.17337133894023093
57.931,0.15537911116222713,0.15537911116222713
57.932,0.13493285891251094,0.13493285891251094
57.933,0.114806795802181,0.114806795802181
57.934,0.09813449235690053,0.09813449235690053
57.935,0.0878322546121788,0.0878322546121788
57.936,0.08599705611391295,0.08599705611391295
57.937,0.09343502447890262,0.09343502447890262
57.938,0.10944801714505203,0.10944801714505203
57.939,0.13193630333687234,0.13193630333687234
57.94,0.15778839839581238,0.15778839839581238
57.941,0.18345410832767484,0.18345410832767484
57.942,0.20555803527683225,0.20555803527683225
57.943,0.22141826769080453,0.22141826769080453
57.944,0.22938150084787767,0.22938150084787767
57.945,0.2289504264116058,0.2289504264116058
57.946,0.2207360572398609,0.2207360572398609
57.947,0.2062966029785287,0.2062966029785287
57.948,0.18791918823710163,0.18791918823710163
57.949,0.16837058233803082,0.16837058233803082
57.95,0.15060892229079426,0.15060892229079426
57.951,0.1374326176031424,0.1374326176031424
57.952,0.1310588445071732,0.1310588445071732
57.953,0.13266990067361317,0.13266990067361317
57.954,0.14202234652704515,0.14202234652704515
57.955,0.15725275322831944,0.15725275322831944
57.956,0.17500851311842136,0.17500851311842136
57.957,0.1909703270271479,0.1909703270271479
57.958,0.20072439907336004,0.20072439907336004
57.959,0.20081828719164307,0.20081828719164307
57.96,0.1897383315495269,0.1897383315495269
57.961,0.16851927619405394,0.16851927619405394
57.962,0.14075997233943816,0.14075997233943816
57.963,0.111965344867619,0.111965344867619
57.964,0.0883262909869631,0.0883262909869631
57.965,0.07522788193914987,0.07522788193914987
57.966,0.07588232991920041,0.07588232991920041
57.967,0.0904755529076704,0.0904755529076704
57.968,0.11608808242174451,0.11608808242174451
57.969,0.14743504190447299,0.14743504190447299
57.97,0.17822949980055425,0.17822949980055425
57.971,0.2027838389256431,0.2027838389256431
57.972,0.21738732080398537,0.21738732080398537
57.973,0.22106315636468565,0.22106315636468565
57.974,0.2154986137813577,0.2154986137813577
57.975,0.20419928632575046,0.20419928632575046
57.976,0.19116225904904338,0.19116225904904338
57.977,0.17951359032365044,0.17951359032365044
57.978,0.17056271718133242,0.17056271718133242
57.979,0.16358533004261266,0.16358533004261266
57.98,0.1564006270724314,0.1564006270724314
57.981,0.146537560325404,0.146537560325404
57.982,0.13257674532052888,0.13257674532052888
57.983,0.11518030373791,0.11518030373791
57.984,0.09740905003473799,0.09740905003473799
57.985,0.08415095940004713,0.08415095940004713
57.986,0.08077726981557043,0.08077726981557043
57.987,0.09140966935461203,0.09140966935461203
57.988,0.11733648482726644,0.11733648482726644
57.989,0.15610428724940761,0.15610428724940761
57.99,0.20163207303843622,0.20163207303843622
57.991,0.24539926433545367,0.24539926433545367
57.992,0.27843482018158716,0.27843482018158716
57.993,0.29358166591078017,0.29358166591078017
57.994,0.28740705706747627,0.28740705706747627
57.995,0.2612094372069742,0.2612094372069742
57.996,0.22081474844058624,0.22081474844058624
57.997,0.1751902012075286,0.1751902012075286
57.998,0.1342338305650741,0.1342338305650741
57.999,0.10632809144661737,0.10632809144661737
58.0,0.09630966634983107,0.09630966634983107
58.001,0.10438891831022068,0.10438891831022068
58.002,0.1262872856459898,0.1262872856459898
58.003,0.15452683356942098,0.15452683356942098
58.004,0.1804982936227153,0.1804982936227153
58.005,0.1967371562415976,0.1967371562415976
58.006,0.19880247728376532,0.19880247728376532
58.007,0.18628343677503345,0.18628343677503345
58.008,0.16271148118282408,0.16271148118282408
58.009,0.13445618771990087,0.13445618771990087
58.01,0.10894655860020896,0.10894655860020896
58.011,0.09271681199759074,0.09271681199759074
58.012,0.08979075010079551,0.08979075010079551
58.013,0.10079666069418991,0.10079666069418991
58.014,0.12298782183134316,0.12298782183134316
58.015,0.15109721177796565,0.15109721177796565
58.016,0.17874721742829358,0.17874721742829358
58.017,0.2000181451690466,0.2000181451690466
58.018,0.21077613242900317,0.21077613242900317
58.019,0.2094615639364592,0.2094615639364592
58.02,0.19720599881553524,0.19720599881553524
58.021,0.17732732601960244,0.17732732601960244
58.022,0.15439934934129207,0.15439934934129207
58.023,0.13316864342658352,0.13316864342658352
58.024,0.11758720492483277,0.11758720492483277
58.025,0.11015700273301077,0.11015700273301077
58.026,0.11167225524920488,0.11167225524920488
58.027,0.12133376805007567,0.12133376805007567
58.028,0.13712827946054462,0.13712827946054462
58.029,0.15633173347293572,0.15633173347293572
58.03,0.1760085049352642,0.1760085049352642
58.031,0.1934236888649683,0.1934236888649683
58.032,0.20633968916062284,0.20633968916062284
58.033,0.2132097488714877,0.2132097488714877
58.034,0.21329686094981826,0.21329686094981826
58.035,0.20673645548342057,0.20673645548342057
58.036,0.19453664751740662,0.19453664751740662
58.037,0.1784879465821152,0.1784879465821152
58.038,0.16095087428799348,0.16095087428799348
58.039,0.1445121214973124,0.1445121214973124
58.04,0.13154288144985027,0.13154288144985027
58.041,0.12374117491540404,0.12374117491540404
58.042,0.12177251346759665,0.12177251346759665
58.043,0.1251222445402238,0.1251222445402238
58.044,0.1322310858600968,0.1322310858600968
58.045,0.1409101988045447,0.1409101988045447
58.046,0.14894497826662634,0.14894497826662634
58.047,0.15472636031432718,0.15472636031432718
58.048,0.15772149712951355,0.15772149712951355
58.049,0.15862674884362482,0.15862674884362482
58.05,0.1591312895297181,0.1591312895297181
58.051,0.16133650994348736,0.16133650994348736
58.052,0.16698932121724286,0.16698932121724286
58.053,0.1767591759707754,0.1767591759707754
58.054,0.18979261770022915,0.18979261770022915
58.055,0.20370936037663423,0.20370936037663423
58.056,0.21507799602523336,0.21507799602523336
58.057,0.2202644478207776,0.2202644478207776
58.058,0.2164273181687566,0.2164273181687566
58.059,0.20237996725534368,0.20237996725534368
58.06,0.17906869318512353,0.17906869318512353
58.061,0.1495225252583341,0.1495225252583341
58.062,0.11828083179158755,0.11828083179158755
58.063,0.0904533239137697,0.0904533239137697
58.064,0.07066668305459967,0.07066668305459967
58.065,0.06217237560904132,0.06217237560904132
58.066,0.0663268169559621,0.0663268169559621
58.067,0.0825311619043545,0.0825311619043545
58.068,0.1085766085074853,0.1085766085074853
58.069,0.14123006104352265,0.14123006104352265
58.07,0.17685036529982967,0.17685036529982967
58.071,0.2118587261538274,0.2118587261538274
58.072,0.24298147198951425,0.24298147198951425
58.073,0.26729983209247576,0.26729983209247576
58.074,0.2822326613656263,0.2822326613656263
58.075,0.28560651061762954,0.28560651061762954
58.076,0.2759196140784903,0.2759196140784903
58.077,0.2527988224031532,0.2527988224031532
58.078,0.2175228595612504,0.2175228595612504
58.079,0.1733935556915478,0.1733935556915478
58.08,0.125722092833515,0.125722092833515
58.081,0.08127707864452516,0.08127707864452516
58.082,0.04719829643615436,0.04719829643615436
58.083,0.029566290284051222,0.029566290284051222
58.084,0.0319697488766546,0.0319697488766546
58.085,0.054472072511601466,0.054472072511601466
58.086,0.09331456847032582,0.09331456847032582
58.087,0.14151516343911696,0.14151516343911696
58.088,0.1902765189501312,0.1902765189501312
58.089,0.23087965685158673,0.23087965685158673
58.09,0.2565844473118313,0.2565844473118313
58.091,0.26403934931976125,0.26403934931976125
58.092,0.25383093183146155,0.25383093183146155
58.093,0.23004360228844423,0.23004360228844423
58.094,0.19897983846921652,0.19897983846921652
58.095,0.16742536927165053,0.16742536927165053
58.096,0.14096017583869824,0.14096017583869824
58.097,0.12278003123110248,0.12278003123110248
58.098,0.11331828950683231,0.11331828950683231
58.099,0.11070154293409318,0.11070154293409318
58.1,0.11181832901793398,0.11181832901793398
58.101,0.11360773786366951,0.11360773786366951
58.102,0.11413640295174599,0.11413640295174599
58.103,0.11313469308943325,0.11313469308943325
58.104,0.11186631966766769,0.11186631966766769
58.105,0.1124383012130925,0.1124383012130925
58.106,0.11684129417916744,0.11684129417916744
58.107,0.12608425189204953,0.12608425189204953
58.108,0.13973191678149388,0.13973191678149388
58.109,0.1559934839674666,0.1559934839674666
58.11,0.17230586870257025,0.17230586870257025
58.111,0.18617893413588238,0.18617893413588238
58.112,0.19598402142012805,0.19598402142012805
58.113,0.20139895268712693,0.20139895268712693
58.114,0.20335766310240877,0.20335766310240877
58.115,0.2035396581139146,0.2035396581139146
58.116,0.2036048449641572,0.2036048449641572
58.117,0.20447131065544966,0.20447131065544966
58.118,0.20591467166600164,0.20591467166600164
58.119,0.20664543485450304,0.20664543485450304
58.12,0.20484039817513433,0.20484039817513433
58.121,0.1989314454821558,0.1989314454821558
58.122,0.1883533519838987,0.1883533519838987
58.123,0.17395921015227533,0.17395921015227533
58.124,0.15792663152043662,0.15792663152043662
58.125,0.14316010861750295,0.14316010861750295
58.126,0.13238027677269937,0.13238027677269937
58.127,0.12721282119794486,0.12721282119794486
58.128,0.1276035457247242,0.1276035457247242
58.129,0.13178436170185015,0.13178436170185015
58.13,0.13683084965718417,0.13683084965718417
58.131,0.13964801090910783,0.13964801090910783
58.132,0.13806707429748344,0.13806707429748344
58.133,0.13168655808204965,0.13168655808204965
58.134,0.12216400801095739,0.12216400801095739
58.135,0.11283813812008447,0.11283813812008447
58.136,0.1077777108967084,0.1077777108967084
58.137,0.11054181343496872,0.11054181343496872
58.138,0.12303391028255661,0.12303391028255661
58.139,0.14480698520165025,0.14480698520165025
58.14,0.17303766328350112,0.17303766328350112
58.141,0.2031793183746955,0.2031793183746955
58.142,0.2300955105786877,0.2300955105786877
58.143,0.24933251895614972,0.24933251895614972
58.144,0.2581573105058179,0.2581573105058179
58.145,0.2560723816745485,0.2560723816745485
58.146,0.2446907069715596,0.2446907069715596
58.147,0.22705470108404469,0.22705470108404469
58.148,0.20664754363715776,0.20664754363715776
58.149,0.18642256149474679,0.18642256149474679
58.15,0.16814606359852857,0.16814606359852857
58.151,0.15222636127248368,0.15222636127248368
58.152,0.13803129055264818,0.13803129055264818
58.153,0.12453639615313805,0.12453639615313805
58.154,0.11104777966492585,0.11104777966492585
58.155,0.09773617269869028,0.09773617269869028
58.156,0.08579938010203891,0.08579938010203891
58.157,0.07720718188611508,0.07720718188611508
58.158,0.07412739109396438,0.07412739109396438
58.159,0.07823538650408923,0.07823538650408923
58.16,0.09013971584465197,0.09013971584465197
58.161,0.10910726187594189,0.10910726187594189
58.162,0.13316398365547766,0.13316398365547766
58.163,0.1595210017712838,0.1595210017712838
58.164,0.1851746739603657,0.1851746739603657
58.165,0.2074863053426501,0.2074863053426501
58.166,0.22457355764342912,0.22457355764342912
58.167,0.23542810495826316,0.23542810495826316
58.168,0.23978021571052133,0.23978021571052133
58.169,0.2378212346367965,0.2378212346367965
58.17,0.2299369125220403,0.2299369125220403
58.171,0.21658401406068672,0.21658401406068672
58.172,0.1983684980715701,0.1983684980715701
58.173,0.17628437956172904,0.17628437956172904
58.174,0.1519862408168069,0.1519862408168069
58.175,0.12792938569850065,0.12792938569850065
58.176,0.10723779219309004,0.10723779219309004
58.177,0.09324633828718598,0.09324633828718598
58.178,0.0887833084853571,0.0887833084853571
58.179,0.09537148921144256,0.09537148921144256
58.18,0.11259057007676465,0.11259057007676465
58.181,0.13783299056351184,0.13783299056351184
58.182,0.16659605682075962,0.16659605682075962
58.183,0.19330717301715206,0.19330717301715206
58.184,0.21251846074306258,0.21251846074306258
58.185,0.2201814532838784,0.2201814532838784
58.186,0.21466361217259622,0.21466361217259622
58.187,0.19721633079559853,0.19721633079559853
58.188,0.17174026889607297,0.17174026889607297
58.189,0.14388224991406506,0.14388224991406506
58.19,0.11968496212559754,0.11968496212559754
58.191,0.10414092460583291,0.10414092460583291
58.192,0.10003522285623268,0.10003522285623268
58.193,0.10738483912832675,0.10738483912832675
58.194,0.1236159991724004,0.1236159991724004
58.195,0.14441226089183412,0.14441226089183412
58.196,0.16497626165169788,0.16497626165169788
58.197,0.18133375669234453,0.18133375669234453
58.198,0.19130451945116067,0.19130451945116067
58.199,0.1948725139266878,0.1948725139266878
58.2,0.19387500894958554,0.19387500894958554
58.201,0.1911397874149463,0.1911397874149463
58.202,0.18936676027501576,0.18936676027501576
58.203,0.19012326382480804,0.19012326382480804
58.204,0.1932783877699118,0.1932783877699118
58.205,0.1970548544201265,0.1970548544201265
58.206,0.1986739970464293,0.1986739970464293
58.207,0.19537524935333828,0.19537524935333828
58.208,0.18546882323674208,0.18546882323674208
58.209,0.1690688279365098,0.1690688279365098
58.21,0.1482579868692686,0.1482579868692686
58.211,0.12662071784623863,0.12662071784623863
58.212,0.1082879826029799,0.1082879826029799
58.213,0.09679694512861303,0.09679694512861303
58.214,0.0941281740637403,0.0941281740637403
58.215,0.10022286974579053,0.10022286974579053
58.216,0.11312238182383139,0.11312238182383139
58.217,0.12966583992138325,0.12966583992138325
58.218,0.14649873561066773,0.14649873561066773
58.219,0.16104789809645625,0.16104789809645625
58.22,0.1721397209314195,0.1721397209314195
58.221,0.1800712281891359,0.1800712281891359
58.222,0.18614142054913763,0.18614142054913763
58.223,0.19184389590899098,0.19184389590899098
58.224,0.19804225054214353,0.19804225054214353
58.225,0.20445336939860015,0.20445336939860015
58.226,0.20964747336264078,0.20964747336264078
58.227,0.21157773892135512,0.21157773892135512
58.228,0.20844632208571,0.20844632208571
58.229,0.19957331505777942,0.19957331505777942
58.23,0.18591493072936816,0.18591493072936816
58.231,0.16998987127049103,0.16998987127049103
58.232,0.15518336908937935,0.15518336908937935
58.233,0.14463445607361058,0.14463445607361058
58.234,0.14008825749490605,0.14008825749490605
58.235,0.14114311935141943,0.14114311935141943
58.236,0.14521604918988928,0.14521604918988928
58.237,0.14831697809750422,0.14831697809750422
58.238,0.14643730549795153,0.14643730549795153
58.239,0.13711873923933182,0.13711873923933182
58.24,0.12066233739282284,0.12066233739282284
58.241,0.10051154969222864,0.10051154969222864
58.242,0.08258410495668178,0.08258410495668178
58.243,0.07366472839118465,0.07366472839118465
58.244,0.07929592315707379,0.07929592315707379
58.245,0.10180739572025588,0.10180739572025588
58.246,0.13913112442609932,0.13913112442609932
58.247,0.18484526245834965,0.18484526245834965
58.248,0.22953145552152932,0.22953145552152932
58.249,0.2631252124565422,0.2631252124565422
58.25,0.27761541530378375,0.27761541530378375
58.251,0.26931274218121737,0.26931274218121737
58.252,0.24000669827561816,0.24000669827561816
58.253,0.1966421077623397,0.1966421077623397
58.254,0.14957595830378678,0.14957595830378678
58.255,0.10989327810457028,0.10989327810457028
58.256,0.08653774969371875,0.08653774969371875
58.257,0.08406393507297416,0.08406393507297416
58.258,0.10162858464310598,0.10162858464310598
58.259,0.13346853245590973,0.13346853245590973
58.26,0.1706773174038443,0.1706773174038443
58.261,0.203725303873862,0.203725303873862
58.262,0.22497808710932854,0.22497808710932854
58.263,0.23050693300867753,0.23050693300867753
58.264,0.22073205410491248,0.22073205410491248
58.265,0.19981017490722208,0.19981017490722208
58.266,0.1740528025257042,0.1740528025257042
58.267,0.14992575542527797,0.14992575542527797
58.268,0.1322590078004875,0.1322590078004875
58.269,0.12317611934110428,0.12317611934110428
58.27,0.12198487062195196,0.12198487062195196
58.271,0.125949361410727,0.125949361410727
58.272,0.13159411135914212,0.13159411135914212
58.273,0.13605474097032233,0.13605474097032233
58.274,0.13802138981437873,0.13802138981437873
58.275,0.13799761915476116,0.13799761915476116
58.276,0.13785111573845255,0.13785111573845255
58.277,0.1398745576774214,0.1398745576774214
58.278,0.14572675628578957,0.14572675628578957
58.279,0.155641769113944,0.155641769113944
58.28,0.16818019363575298,0.16818019363575298
58.281,0.18059825997206014,0.18059825997206014
58.282,0.1896975143291133,0.1896975143291133
58.283,0.19286167134659338,0.19286167134659338
58.284,0.18893524576925014,0.18893524576925014
58.285,0.17866134486021612,0.17866134486021612
58.286,0.16454613629841153,0.16454613629841153
58.287,0.15020146284864455,0.15020146284864455
58.288,0.13937446554019117,0.13937446554019117
58.289,0.13495660952933708,0.13495660952933708
58.29,0.1382539735158852,0.1382539735158852
58.291,0.14870692786158846,0.14870692786158846
58.292,0.16410595686561158,0.16410595686561158
58.293,0.18120803851943457,0.18120803851943457
58.294,0.19655675845070686,0.19655675845070686
58.295,0.20727425491461138,0.20727425491461138
58.296,0.21162660290493984,0.21162660290493984
58.297,0.20924834584951602,0.20924834584951602
58.298,0.20101632982705175,0.20101632982705175
58.299,0.1886560300653699,0.1886560300653699
58.3,0.17422138541111254,0.17422138541111254
58.301,0.15960140899621833,0.15960140899621833
58.302,0.14617710965712827,0.14617710965712827
58.303,0.13469449697627822,0.13469449697627822
58.304,0.12535230844433398,0.12535230844433398
58.305,0.11804437840476001,0.11804437840476001
58.306,0.11265929098859617,0.11265929098859617
58.307,0.10933067117716222,0.10933067117716222
58.308,0.10855028795543875,0.10855028795543875
58.309,0.11109773165552173,0.11109773165552173
58.31,0.11779519723784859,0.11779519723784859
58.311,0.12915130477607817,0.12915130477607817
58.312,0.14500007020182926,0.14500007020182926
58.313,0.16425743296596984,0.16425743296596984
58.314,0.18489995616894506,0.18489995616894506
58.315,0.2042181359791575,0.2042181359791575
58.316,0.2193199823148706,0.2193199823148706
58.317,0.22777855977598227,0.22777855977598227
58.318,0.22825498759649632,0.22825498759649632
58.319,0.22090941853980528,0.22090941853980528
58.32,0.20745026713047454,0.20745026713047454
58.321,0.19076337307761126,0.19076337307761126
58.322,0.17418616253832275,0.17418616253832275
58.323,0.16061115215526134,0.16061115215526134
58.324,0.15167814323217144,0.15167814323217144
58.325,0.14731425126053188,0.14731425126053188
58.326,0.1457959728960374,0.1457959728960374
58.327,0.14435589667200177,0.14435589667200177
58.328,0.14018138869539754,0.14018138869539754
58.329,0.13150960579076387,0.13150960579076387
58.33,0.11846362632952889,0.11846362632952889
58.331,0.1033264883971654,0.1033264883971654
58.332,0.09010669049361986,0.09010669049361986
58.333,0.08346753698940179,0.08346753698940179
58.334,0.08730636956557314,0.08730636956557314
58.335,0.10340727214082479,0.10340727214082479
58.336,0.13060133722252543,0.13060133722252543
58.337,0.1647397266775239,0.1647397266775239
58.338,0.1995495600216286,0.1995495600216286
58.339,0.22817115579270264,0.22817115579270264
58.34,0.24495308689125306,0.24495308689125306
58.341,0.24698262183042452,0.24698262183042452
58.342,0.23489013967146333,0.23489013967146333
58.343,0.21267314530206005,0.21267314530206005
58.344,0.1865769249954805,0.1865769249954805
58.345,0.1633541523469071,0.1633541523469071
58.346,0.14841453047629227,0.14841453047629227
58.347,0.14440726983400398,0.14440726983400398
58.348,0.1506432839499532,0.1506432839499532
58.349,0.16350371908928762,0.16350371908928762
58.35,0.17767994229566653,0.17767994229566653
58.351,0.1878430896484693,0.1878430896484693
58.352,0.19022559355556035,0.19022559355556035
58.353,0.1836458863411481,0.1836458863411481
58.354,0.16970000403888674,0.16970000403888674
58.355,0.15211355858131848,0.15211355858131848
58.356,0.13550531974608138,0.13550531974608138
58.357,0.12397777935259113,0.12397777935259113
58.358,0.11997318066305906,0.11997318066305906
58.359,0.12371681685273139,0.12371681685273139
58.36,0.13336008633571006,0.13336008633571006
58.361,0.1457086943604251,0.1457086943604251
58.362,0.1572521769389268,0.1572521769389268
58.363,0.1651502183042497,0.1651502183042497
58.364,0.16788882319290632,0.16788882319290632
58.365,0.16546365803784124,0.16546365803784124
58.366,0.1591198870848085,0.1591198870848085
58.367,0.1508145190306731,0.1508145190306731
58.368,0.14262459560784424,0.14262459560784424
58.369,0.13629224355372727,0.13629224355372727
58.37,0.13300043439557485,0.13300043439557485
58.371,0.1333588121905609,0.1333588121905609
58.372,0.13749710475665755,0.13749710475665755
58.373,0.1451463614479216,0.1451463614479216
58.374,0.1556371122968081,0.1556371122968081
58.375,0.16783010894375083,0.16783010894375083
58.376,0.18007407675577536,0.18007407675577536
58.377,0.1903133031775448,0.1903133031775448
58.378,0.19642532010686642,0.19642532010686642
58.379,0.19676703132522544,0.19676703132522544
58.38,0.19078717496223963,0.19078717496223963
58.381,0.1794783797308066,0.1794783797308066
58.382,0.16543898158445192,0.16543898158445192
58.383,0.15240996517950522,0.15240996517950522
58.384,0.14432366576067746,0.14432366576067746
58.385,0.14409192142873328,0.14409192142873328
58.386,0.15250066209357382,0.15250066209357382
58.387,0.16760500127764177,0.16760500127764177
58.388,0.18490858633273288,0.18490858633273288
58.389,0.19838610780282817,0.19838610780282817
58.39,0.20213511130873751,0.20213511130873751
58.391,0.19221240948511276,0.19221240948511276
58.392,0.16810407409309525,0.16810407409309525
58.393,0.13334202456826794,0.13334202456826794
58.394,0.09500550797672314,0.09500550797672314
58.395,0.06216849783605749,0.06216849783605749
58.396,0.0436750224396123,0.0436750224396123
58.397,0.04584118460672726,0.04584118460672726
58.398,0.07072356108740663,0.07072356108740663
58.399,0.11544249290108577,0.11544249290108577
58.4,0.17275065356825015,0.17275065356825015
58.401,0.23268432893911495,0.23268432893911495
58.402,0.2848359269909504,0.2848359269909504
58.403,0.3206313278387407,0.3206313278387407
58.404,0.3350269382719151,0.3350269382719151
58.405,0.32724063083725063,0.32724063083725063
58.406,0.30042773915831655,0.30042773915831655
58.407,0.2605104707853956,0.2605104707853956
58.408,0.21457523800734557,0.21457523800734557
58.409,0.1693122325927916,0.1693122325927916
58.41,0.12988187306817855,0.12988187306817855
58.411,0.09939975685280733,0.09939975685280733
58.412,0.0790115630075483,0.0790115630075483
58.413,0.06835919761197617,0.06835919761197617
58.414,0.06617040657711248,0.06617040657711248
58.415,0.07074493440768226,0.07074493440768226
58.416,0.08022815008039164,0.08022815008039164
58.417,0.09269914751643515,0.09269914751643515
58.418,0.10619483650630634,0.10619483650630634
58.419,0.11880732682508088,0.11880732682508088
58.42,0.1289282048958813,0.1289282048958813
58.421,0.1356043810423222,0.1356043810423222
58.422,0.13886992995552694,0.13886992995552694
58.423,0.1398771121985254,0.1398771121985254
58.424,0.1406928344179017,0.1406928344179017
58.425,0.14374306729355757,0.14374306729355757
58.426,0.15103315883786017,0.15103315883786017
58.427,0.1633866573298306,0.1633866573298306
58.428,0.179977483738905,0.179977483738905
58.429,0.19835817420678503,0.19835817420678503
58.43,0.21502892075608449,0.21502892075608449
58.431,0.22640208288190622,0.22640208288190622
58.432,0.22986472366992583,0.22986472366992583
58.433,0.2245874296182515,0.2245874296182515
58.434,0.21179744711913706,0.21179744711913706
58.435,0.19440898553755814,0.19440898553755814
58.436,0.1761242401941121,0.1761242401941121
58.437,0.1603065060383202,0.1603065060383202
58.438,0.14901194719447441,0.14901194719447441
58.439,0.14251472520382968,0.14251472520382968
58.44,0.1394861141357111,0.1394861141357111
58.441,0.1377521696330477,0.1377521696330477
58.442,0.13534125198129288,0.13534125198129288
58.443,0.13142106758781025,0.13142106758781025
58.444,0.12675863206185634,0.12675863206185634
58.445,0.12350729787637005,0.12350729787637005
58.446,0.12437389884159189,0.12437389884159189
58.447,0.13145702233447443,0.13145702233447443
58.448,0.145186739202267,0.145186739202267
58.449,0.16378248754812952,0.16378248754812952
58.45,0.1834788348258518,0.1834788348258518
58.451,0.19950354950251725,0.19950354950251725
58.452,0.20752072732679183,0.20752072732679183
58.453,0.2050703482170999,0.2050703482170999
58.454,0.1925116527630375,0.1925116527630375
58.455,0.1731241334883593,0.1731241334883593
58.456,0.1522901628126605,0.1522901628126605
58.457,0.13598669924448004,0.13598669924448004
58.458,0.1290466972893538,0.1290466972893538
58.459,0.13373356857368157,0.13373356857368157
58.46,0.14907531002328533,0.14907531002328533
58.461,0.1711611170548133,0.1711611170548133
58.462,0.19429488620572477,0.19429488620572477
58.463,0.21263075943400067,0.21263075943400067
58.464,0.22177491179043174,0.22177491179043174
58.465,0.2198691409586646,0.2198691409586646
58.466,0.20785997548280943,0.20785997548280943
58.467,0.18893355026242054,0.18893355026242054
58.468,0.16736497253705274,0.16736497253705274
58.469,0.14720104474978624,0.14720104474978624
58.47,0.13121407668784824,0.13121407668784824
58.471,0.12043372632091076,0.12043372632091076
58.472,0.11433705238288017,0.11433705238288017
58.473,0.11153917270795644,0.11153917270795644
58.474,0.11066296728455938,0.11066296728455938
58.475,0.11103066252836968,0.11103066252836968
58.476,0.11291863116830259,0.11291863116830259
58.477,0.11730607364727197,0.11730607364727197
58.478,0.12525366203877608,0.12525366203877608
58.479,0.13719195616479918,0.13719195616479918
58.48,0.1524293865816988,0.1524293865816988
58.481,0.1690979784581388,0.1690979784581388
58.482,0.1845797939924314,0.1845797939924314
58.483,0.1962668935807288,0.1962668935807288
58.484,0.20237529572991209,0.20237529572991209
58.485,0.202508683286569,0.202508683286569
58.486,0.1977588592349342,0.1977588592349342
58.487,0.19030177734980414,0.19030177734980414
58.488,0.18263501999668663,0.18263501999668663
58.489,0.17673447465475078,0.17673447465475078
58.49,0.17343564346192664,0.17343564346192664
58.491,0.17225894265744124,0.17225894265744124
58.492,0.17173156354210573,0.17173156354210573
58.493,0.17007385160621857,0.17007385160621857
58.494,0.16598464372930488,0.16598464372930488
58.495,0.15922678759249198,0.15922678759249198
58.496,0.1507924856599181,0.1507924856599181
58.497,0.14258778852123322,0.14258778852123322
58.498,0.1367561918953577,0.1367561918953577
58.499,0.13489540042114356,0.13489540042114356
58.5,0.13745951218950192,0.13745951218950192
58.501,0.14356803505314097,0.14356803505314097
58.502,0.15129091215797152,0.15129091215797152
58.503,0.15830272577092175,0.15830272577092175
58.504,0.16266519335065133,0.16266519335065133
58.505,0.16345416228071374,0.16345416228071374
58.506,0.16101003349352538,0.16101003349352538
58.507,0.15673370943642873,0.15673370943642873
58.508,0.15251888434630567,0.15251888434630567
58.509,0.15004222019644886,0.15004222019644886
58.51,0.1501775039840203,0.1501775039840203
58.511,0.1527434399826726,0.1527434399826726
58.512,0.1566609896115827,0.1566609896115827
58.513,0.1604378354102729,0.1604378354102729
58.514,0.1627758572218898,0.1627758572218898
58.515,0.16305867333977297,0.16305867333977297
58.516,0.16153381166561198,0.16153381166561198
58.517,0.15913370111258396,0.15913370111258396
58.518,0.15702900612502924,0.15702900612502924
58.519,0.15611678164531861,0.15611678164531861
58.52,0.15667031200595716,0.15667031200595716
58.521,0.15830660086346482,0.15830660086346482
58.522,0.1602887864297522,0.1602887864297522
58.523,0.1620298171036707,0.1620298171036707
58.524,0.16356282655306664,0.16356282655306664
58.525,0.16573733081823638,0.16573733081823638
58.526,0.16999714094656349,0.16999714094656349
58.527,0.17776336364238055,0.17776336364238055
58.528,0.18962158762339243,0.18962158762339243
58.529,0.2046265938589047,0.2046265938589047
58.53,0.2200402069937435,0.2200402069937435
58.531,0.23169731558938755,0.23169731558938755
58.532,0.2349865422425963,0.2349865422425963
58.533,0.22620564473088067,0.22620564473088067
58.534,0.20388865349121987,0.20388865349121987
58.535,0.16966510995826334,0.16966510995826334
58.536,0.12832297584148056,0.12832297584148056
58.537,0.08697618342131808,0.08697618342131808
58.538,0.05351333930195379,0.05351333930195379
58.539,0.034735311211083086,0.034735311211083086
58.54,0.03469846131876397,0.03469846131876397
58.541,0.053729022945607996,0.053729022945607996
58.542,0.08837774346299998,0.08837774346299998
58.543,0.13230603530175689,0.13230603530175689
58.544,0.17782576729459465,0.17782576729459465
58.545,0.21764052415356439,0.21764052415356439
58.546,0.2463092438140968,0.2463092438140968
58.547,0.261075504465494,0.261075504465494
58.548,0.2619292679445664,0.2619292679445664
58.549,0.25101260723913965,0.25101260723913965
58.55,0.23166384396209194,0.23166384396209194
58.551,0.20745869531699435,0.20745869531699435
58.552,0.18154067320524137,0.18154067320524137
58.553,0.156371617614937,0.156371617614937
58.554,0.1338447862834271,0.1338447862834271
58.555,0.11556131197493213,0.11556131197493213
58.556,0.10302825355313394,0.10302825355313394
58.557,0.09760430577270385,0.09760430577270385
58.558,0.10016484704237283,0.10016484704237283
58.559,0.11061818183555516,0.11061818183555516
58.56,0.1275108046666169,0.1275108046666169
58.561,0.1479639720291792,0.1479639720291792
58.562,0.16807978388518618,0.16807978388518618
58.563,0.18377900684155746,0.18377900684155746
58.564,0.19185200840871808,0.19185200840871808
58.565,0.1908904892040879,0.1908904892040879
58.566,0.18177062216058126,0.18177062216058126
58.567,0.16748474006716818,0.16748474006716818
58.568,0.15232922879678923,0.15232922879678923
58.569,0.14067776415753075,0.14067776415753075
58.57,0.13572117222160873,0.13572117222160873
58.571,0.13857994753558556,0.13857994753558556
58.572,0.1480791309339542,0.1480791309339542
58.573,0.16125481319908763,0.16125481319908763
58.574,0.17441257888487227,0.17441257888487227
58.575,0.1843684777661827,0.1843684777661827
58.576,0.18944107081750405,0.18944107081750405
58.577,0.18985284603910513,0.18985284603910513
58.578,0.18741106716790834,0.18741106716790834
58.579,0.18459800723667796,0.18459800723667796
58.58,0.183416276432123,0.183416276432123
58.581,0.1844287171136476,0.1844287171136476
58.582,0.18636867168633575,0.18636867168633575
58.583,0.18649553674376973,0.18649553674376973
58.584,0.1816017533894092,0.1816017533894092
58.585,0.1693351818070452,0.1693351818070452
58.586,0.14937147492983938,0.14937147492983938
58.587,0.12400220149591568,0.12400220149591568
58.588,0.09788789398119424,0.09788789398119424
58.589,0.07699950425221935,0.07699950425221935
58.59,0.0670436186936052,0.0670436186936052
58.591,0.07184352983359132,0.07184352983359132
58.592,0.0921700901942144,0.0921700901942144
58.593,0.12537685073429095,0.12537685073429095
58.594,0.16594209837614016,0.16594209837614016
58.595,0.20674227811463664,0.20674227811463664
58.596,0.2406699724768273,0.2406699724768273
58.597,0.2621324842112591,0.2621324842112591
58.598,0.26804295596902405,0.26804295596902405
58.599,0.2581099881359108,0.2581099881359108
58.6,0.23446941845745695,0.23446941845745695
58.601,0.20089726914138528,0.20089726914138528
58.602,0.16192980707317028,0.16192980707317028
58.603,0.12217270899916799,0.12217270899916799
58.604,0.08593453461678835,0.08593453461678835
58.605,0.057136711291580156,0.057136711291580156
58.606,0.0393118203036964,0.0393118203036964
58.607,0.035464210048417266,0.035464210048417266
58.608,0.047649380388250506,0.047649380388250506
58.609,0.07629854631606925,0.07629854631606925
58.61,0.11950113285015873,0.11950113285015873
58.611,0.17257789789071287,0.17257789789071287
58.612,0.22826892735951199,0.22826892735951199
58.613,0.27770849572610223,0.27770849572610223
58.614,0.31210322890988373,0.31210322890988373
58.615,0.3247561848203251,0.3247561848203251
58.616,0.3128882914041937,0.3128882914041937
58.617,0.27868061062745464,0.27868061062745464
58.618,0.22912540196028153,0.22912540196028153
58.619,0.1745946897398445,0.1745946897398445
58.62,0.1264185008504648,0.1264185008504648
58.621,0.09408922929301022,0.09408922929301022
58.622,0.08286351463545771,0.08286351463545771
58.623,0.09245803623355742,0.09245803623355742
58.624,0.1172423892079566,0.1172423892079566
58.625,0.1479036807251375,0.1479036807251375
58.626,0.17412314387198635,0.17412314387198635
58.627,0.18750004479059568,0.18750004479059568
58.628,0.18387962796246038,0.18387962796246038
58.629,0.16441708090621243,0.16441708090621243
58.63,0.13508631964694007,0.13508631964694007
58.631,0.10480527078748425,0.10480527078748425
58.632,0.08275598314772004,0.08275598314772004
58.633,0.0757044686596271,0.0757044686596271
58.634,0.08610513880885073,0.08610513880885073
58.635,0.11151913663630819,0.11151913663630819
58.636,0.14546857514269784,0.14546857514269784
58.637,0.17941832816454784,0.17941832816454784
58.638,0.20525554781938826,0.20525554781938826
58.639,0.217518348746218,0.217518348746218
58.64,0.2147367643285727,0.2147367643285727
58.641,0.19954652032229947,0.19954652032229947
58.642,0.1776195140049064,0.1776195140049064
58.643,0.1558028061406631,0.1558028061406631
58.644,0.14006664922486856,0.14006664922486856
58.645,0.13387681229821435,0.13387681229821435
58.646,0.13743565783703748,0.13743565783703748
58.647,0.14794508313322363,0.14794508313322363
58.648,0.16072998022623097,0.16072998022623097
58.649,0.1708203566574884,0.1708203566574884
58.65,0.1744901087354831,0.1744901087354831
58.651,0.17030821011023178,0.17030821011023178
58.652,0.15944130895253839,0.15944130895253839
58.653,0.14518779721037678,0.14518779721037678
58.654,0.1319442354459175,0.1319442354459175
58.655,0.12394258541158232,0.12394258541158232
