Czas,AbsSum,Sum
147.276,0.15196862028263913,0.15196862028263913
147.27700000000002,0.13842012973247408,0.13842012973247408
147.27800000000002,0.11927889961625815,0.11927889961625815
147.279,0.1009395225179821,0.1009395225179821
147.28,0.09272832980256829,0.09272832980256829
147.281,0.1028156656066066,0.1028156656066066
147.282,0.13403176053692922,0.13403176053692922
147.28300000000002,0.18137436209126379,0.18137436209126379
147.28400000000002,0.23243360764189847,0.23243360764189847
147.285,0.27087849268082387,0.27087849268082387
147.286,0.28194715670086534,0.28194715670086534
147.287,0.25801841678089743,0.25801841678089743
147.288,0.20216205403491716,0.20216205403491716
147.28900000000002,0.12817240691522014,0.12817240691522014
147.29000000000002,0.056794035717175895,0.056794035717175895
147.291,0.00922888379277964,0.00922888379277964
147.292,6.838811486042928e-05,6.838811486042928e-05
147.293,0.03211920012973701,0.03211920012973701
147.294,0.0950376239489994,0.0950376239489994
147.29500000000002,0.16842089722570597,0.16842089722570597
147.29600000000002,0.22845316411480376,0.22845316411480376
147.297,0.2559171018094224,0.2559171018094224
147.298,0.24282755804377087,0.24282755804377087
147.299,0.1953413749072035,0.1953413749072035
147.3,0.13183388258365447,0.13183388258365447
147.30100000000002,0.07669214794108092,0.07669214794108092
147.30200000000002,0.05188284771493579,0.05188284771493579
147.303,0.06917472959768767,0.06917472959768767
147.304,0.12572939574306963,0.12572939574306963
147.305,0.20465915522083744,0.20465915522083744
147.306,0.2804600564904942,0.2804600564904942
147.30700000000002,0.3275419669950712,0.3275419669950712
147.30800000000002,0.3289816702665911,0.3289816702665911
147.309,0.2825062270404688,0.2825062270404688
147.31,0.20162318501776144,0.20162318501776144
147.311,0.11144656224242833,0.11144656224242833
147.312,0.04056617224795933,0.04056617224795933
147.31300000000002,0.011656842097195863,0.011656842097195863
147.31400000000002,0.03396134476795276,0.03396134476795276
147.315,0.10015773724749821,0.10015773724749821
147.316,0.1886531877262334,0.1886531877262334
147.317,0.2705348677912873,0.2705348677912873
147.318,0.3188694312687581,0.3188694312687581
147.31900000000002,0.31729196110819613,0.31729196110819613
147.32000000000002,0.265104222405935,0.265104222405935
147.321,0.17729878148820855,0.17729878148820855
147.322,0.07961976694443917,0.07961976694443917
147.323,0.00038388173383463453,0.00038388173383463453
147.324,0.03821960627510734,-0.03821960627510734
147.32500000000002,0.026565862647074612,-0.026565862647074612
147.32600000000002,0.030162944760500077,0.030162944760500077
147.327,0.11441167418453735,0.11441167418453735
147.328,0.20230914993184101,0.20230914993184101
147.329,0.27118911693662473,0.27118911693662473
147.33,0.30608888099118814,0.30608888099118814
147.33100000000002,0.303255188509425,0.303255188509425
147.332,0.26982082268127905,0.26982082268127905
147.333,0.2201435655756352,0.2201435655756352
147.334,0.17035653838171583,0.17035653838171583
147.335,0.13312322908130692,0.13312322908130692
147.336,0.11431493784862035,0.11431493784862035
147.33700000000002,0.11248516743603476,0.11248516743603476
147.338,0.12094634387583225,0.12094634387583225
147.339,0.13135681013776268,0.13135681013776268
147.34,0.13730767551779333,0.13730767551779333
147.341,0.136571517682049,0.136571517682049
147.342,0.13132578551248653,0.13132578551248653
147.34300000000002,0.1265120179213015,0.1265120179213015
147.344,0.12720256263056773,0.12720256263056773
147.345,0.1361587296978728,0.1361587296978728
147.346,0.1525861532612558,0.1525861532612558
147.347,0.17252678011649603,0.17252678011649603
147.348,0.19061964039596724,0.19061964039596724
147.34900000000002,0.20240419075299054,0.20240419075299054
147.35,0.2061481815871058,0.2061481815871058
147.351,0.20341967708735287,0.20341967708735287
147.352,0.19817890720475662,0.19817890720475662
147.353,0.19480395289238883,0.19480395289238883
147.354,0.195920778670861,0.195920778670861
147.35500000000002,0.2009966924378941,0.2009966924378941
147.356,0.20634204811520296,0.20634204811520296
147.357,0.20657676660046187,0.20657676660046187
147.358,0.19699610979929982,0.19699610979929982
147.359,0.17586906225016907,0.17586906225016907
147.36,0.14569044298537137,0.14569044298537137
147.36100000000002,0.1127974477437621,0.1127974477437621
147.362,0.08540419600686389,0.08540419600686389
147.363,0.07075120776467747,0.07075120776467747
147.364,0.0724523420524037,0.0724523420524037
147.365,0.08908820574720822,0.08908820574720822
147.366,0.11464342276871542,0.11464342276871542
147.36700000000002,0.14068180394395702,0.14068180394395702
147.368,0.1594683054644932,0.1594683054644932
147.369,0.16684982953414496,0.16684982953414496
147.37,0.16376317125008177,0.16376317125008177
147.371,0.15574028621967106,0.15574028621967106
147.372,0.15054720507580654,0.15054720507580654
147.37300000000002,0.15483366264642395,0.15483366264642395
147.374,0.17109668986494597,0.17109668986494597
147.375,0.19619587327129318,0.19619587327129318
147.376,0.22210699505320197,0.22210699505320197
147.377,0.23875732731268418,0.23875732731268418
147.378,0.23796197498044447,0.23796197498044447
147.37900000000002,0.21699258983149772,0.21699258983149772
147.38,0.18035839244347973,0.18035839244347973
147.381,0.13897069335147516,0.13897069335147516
147.382,0.10679832096970387,0.10679832096970387
147.383,0.09606833010556115,0.09606833010556115
147.384,0.11267306302100799,0.11267306302100799
147.38500000000002,0.15347244143470395,0.15347244143470395
147.386,0.206594250765348,0.206594250765348
147.387,0.25482255468292747,0.25482255468292747
147.388,0.2810732602245567,0.2810732602245567
147.389,0.2741732905766241,0.2741732905766241
147.39,0.23297371945725076,0.23297371945725076
147.39100000000002,0.16732122006080674,0.16732122006080674
147.392,0.09543191431550202,0.09543191431550202
147.393,0.03841537926069516,0.03841537926069516
147.394,0.013672628064745451,0.013672628064745451
147.395,0.029302415851655272,0.029302415851655272
147.39600000000002,0.08134930274798546,0.08134930274798546
147.39700000000002,0.15481204586863218,0.15481204586863218
147.398,0.22810941567192167,0.22810941567192167
147.399,0.27958300897495825,0.27958300897495825
147.4,0.2939751362534906,0.2939751362534906
147.401,0.26686100198753304,0.26686100198753304
147.40200000000002,0.20571127997263394,0.20571127997263394
147.40300000000002,0.1273671669473213,0.1273671669473213
147.404,0.0528479298581237,0.0528479298581237
147.405,0.00120522059636885,0.00120522059636885
147.406,0.015657325320846627,-0.015657325320846627
147.407,0.004295548997356402,0.004295548997356402
147.40800000000002,0.05358805103274267,0.05358805103274267
147.40900000000002,0.11827342994482848,0.11827342994482848
147.41,0.1824587394613153,0.1824587394613153
147.411,0.23277416718682598,0.23277416718682598
147.412,0.2614427884716555,0.2614427884716555
147.413,0.2672265126757527,0.2672265126757527
147.41400000000002,0.25431535898674884,0.25431535898674884
147.41500000000002,0.22989787174520826,0.22989787174520826
147.416,0.2014759578417682,0.2014759578417682
147.417,0.1748873798307462,0.1748873798307462
147.418,0.15355674210714088,0.15355674210714088
147.419,0.13891552109482252,0.13891552109482252
147.42000000000002,0.13145410670452118,0.13145410670452118
147.42100000000002,0.13167638675687154,0.13167638675687154
147.422,0.14037692219876274,0.14037692219876274
147.423,0.1580672470677411,0.1580672470677411
147.424,0.18385406163677365,0.18385406163677365
147.425,0.2144068988560095,0.2144068988560095
147.42600000000002,0.2436968795528418,0.2436968795528418
147.42700000000002,0.2639137289146989,0.2639137289146989
147.428,0.2674803353090973,0.2674803353090973
147.429,0.24957913385931318,0.24957913385931318
147.43,0.21029268177120142,0.21029268177120142
147.431,0.15548262893988807,0.15548262893988807
147.43200000000002,0.09590094800217797,0.09590094800217797
147.43300000000002,0.04462349424985601,0.04462349424985601
147.434,0.013505228909981737,0.013505228909981737
147.435,0.009751978109921566,0.009751978109921566
147.436,0.033730408971289094,0.033730408971289094
147.437,0.07877203419861445,0.07877203419861445
147.43800000000002,0.1330868321695604,0.1330868321695604
147.43900000000002,0.18320690532967876,0.18320690532967876
147.44,0.21787251737123503,0.21787251737123503
147.441,0.23112952732414915,0.23112952732414915
147.442,0.22367838449647892,0.22367838449647892
147.443,0.20210491764614025,0.20210491764614025
147.44400000000002,0.17632628977367104,0.17632628977367104
147.44500000000002,0.15615949948381602,0.15615949948381602
147.446,0.1481719655180329,0.1481719655180329
147.447,0.15382741654212095,0.15382741654212095
147.448,0.1694589858484521,0.1694589858484521
147.449,0.18796234639779152,0.18796234639779152
147.45000000000002,0.20153019577520448,0.20153019577520448
147.45100000000002,0.20443808071507208,0.20443808071507208
147.452,0.19493431512497006,0.19493431512497006
147.453,0.17565008509796654,0.17565008509796654
147.454,0.15248660308029827,0.15248660308029827
147.455,0.13245740143818008,0.13245740143818008
147.45600000000002,0.12128692878134295,0.12128692878134295
147.45700000000002,0.1215931305666258,0.1215931305666258
147.458,0.13222328795949378,0.13222328795949378
147.459,0.1488794563012903,0.1488794563012903
147.46,0.16572563152373587,0.16572563152373587
147.461,0.17736751445924992,0.17736751445924992
147.46200000000002,0.18052842674053693,0.18052842674053693
147.463,0.17491202953975726,0.17491202953975726
147.464,0.1630618284627814,0.1630618284627814
147.465,0.14937170544716882,0.14937170544716882
147.466,0.13864935920953125,0.13864935920953125
147.467,0.13471378943948142,0.13471378943948142
147.46800000000002,0.13941770728913094,0.13941770728913094
147.469,0.15228714073550442,0.15228714073550442
147.47,0.17075507396879464,0.17075507396879464
147.471,0.19081508191185792,0.19081508191185792
147.472,0.20787381379111736,0.20787381379111736
147.473,0.21762427378782978,0.21762427378782978
147.47400000000002,0.21684251949914413,0.21684251949914413
147.475,0.20406754816263284,0.20406754816263284
147.476,0.1801209591721653,0.1801209591721653
147.477,0.1483666115550033,0.1483666115550033
147.478,0.11454921915441041,0.11454921915441041
147.479,0.08604955874336273,0.08604955874336273
147.48000000000002,0.0704987830269388,0.0704987830269388
147.481,0.07390233020263737,0.07390233020263737
147.482,0.09867334254456872,0.09867334254456872
147.483,0.14216302679902415,0.14216302679902415
147.484,0.1962960142017418,0.1962960142017418
147.485,0.24871333119048322,0.24871333119048322
147.48600000000002,0.28541602160161217,0.28541602160161217
147.487,0.2943982872242954,0.2943982872242954
147.488,0.2693285334078377,0.2693285334078377
147.489,0.2121503484480547,0.2121503484480547
147.49,0.13364060845387327,0.13364060845387327
147.491,0.05147385719709052,0.05147385719709052
147.49200000000002,0.013928422186758604,-0.013928422186758604
147.493,0.04475934739919474,-0.04475934739919474
147.494,0.03091662803657791,-0.03091662803657791
147.495,0.026709364172194938,0.026709364172194938
147.496,0.11584559741993927,0.11584559741993927
147.497,0.21563015475104375,0.21563015475104375
147.49800000000002,0.3019273079983227,0.3019273079983227
147.499,0.353713268562206,0.353713268562206
147.5,0.3587133272600913,0.3587133272600913
147.501,0.31665427561286497,0.31665427561286497
147.502,0.2391874732123782,0.2391874732123782
147.503,0.14652764821270337,0.14652764821270337
147.50400000000002,0.06183006127527557,0.06183006127527557
147.505,0.0049845843283180535,0.0049845843283180535
147.506,0.012366393995784097,-0.012366393995784097
147.507,0.010787613392570172,0.010787613392570172
147.508,0.06556688869991256,0.06556688869991256
147.509,0.1366211759273328,0.1366211759273328
147.51000000000002,0.2069895184186361,0.2069895184186361
147.511,0.26280796968594067,0.26280796968594067
147.512,0.29645014966768213,0.29645014966768213
147.513,0.30731080023190915,0.30731080023190915
147.514,0.300284558741144,0.300284558741144
147.515,0.28275593986793734,0.28275593986793734
147.51600000000002,0.2613458332790979,0.2613458332790979
147.517,0.23962464906419534,0.23962464906419534
147.518,0.2175396735478652,0.2175396735478652
147.519,0.19260003584294716,0.19260003584294716
147.52,0.16218129575070295,0.16218129575070295
147.52100000000002,0.1258999668944183,0.1258999668944183
147.52200000000002,0.08700834210552233,0.08700834210552233
147.523,0.052160918957186775,0.052160918957186775
147.524,0.02954923627130812,0.02954923627130812
147.525,0.026049562191048592,0.026049562191048592
147.526,0.04443785310387516,0.04443785310387516
147.52700000000002,0.0817479017659637,0.0817479017659637
147.52800000000002,0.1294726611812238,0.1294726611812238
147.529,0.175669693976942,0.175669693976942
147.53,0.20835747427867024,0.20835747427867024
147.531,0.21911921012289182,0.21911921012289182
147.532,0.20573086112976857,0.20573086112976857
147.53300000000002,0.17293506303726236,0.17293506303726236
147.53400000000002,0.13108641314576275,0.13108641314576275
147.535,0.09308781735709548,0.09308781735709548
147.536,0.0705864395872251,0.0705864395872251
147.537,0.07061965213916022,0.07061965213916022
147.538,0.09373002442934175,0.09373002442934175
147.53900000000002,0.13407219594490605,0.13407219594490605
147.54000000000002,0.18138865439887453,0.18138865439887453
147.541,0.2241543798478529,0.2241543798478529
147.542,0.25286767244619734,0.25286767244619734
147.543,0.2624877500713547,0.2624877500713547
147.544,0.2533600271679204,0.2533600271679204
147.54500000000002,0.23049463717806895,0.23049463717806895
147.54600000000002,0.2015874109358824,0.2015874109358824
147.547,0.17452363272673788,0.17452363272673788
147.548,0.1551831937757795,0.1551831937757795
147.549,0.14617125121791452,0.14617125121791452
147.55,0.14672357075061915,0.14672357075061915
147.55100000000002,0.15362557513810127,0.15362557513810127
147.55200000000002,0.16268159927187575,0.16268159927187575
147.553,0.17016654910550488,0.17016654910550488
147.554,0.1737971624816701,0.1737971624816701
147.555,0.17300964015316977,0.17300964015316977
147.556,0.16861494509223363,0.16861494509223363
147.55700000000002,0.16211288278509817,0.16211288278509817
147.55800000000002,0.1550124608910859,0.1550124608910859
147.559,0.1484233760167828,0.1484233760167828
147.56,0.14300551245780513,0.14300551245780513
147.561,0.13917663896153343,0.13917663896153343
147.562,0.13736500413190145,0.13736500413190145
147.56300000000002,0.13809739819423705,0.13809739819423705
147.56400000000002,0.14182476259443577,0.14182476259443577
147.565,0.14854971285780194,0.14854971285780194
147.566,0.1574551449668522,0.1574551449668522
147.567,0.16677471568488644,0.16677471568488644
147.568,0.17406940360341938,0.17406940360341938
147.56900000000002,0.1769063316458479,0.1769063316458479
147.57000000000002,0.17374483883796943,0.17374483883796943
147.571,0.1647027896052251,0.1647027896052251
147.572,0.15186609117187722,0.15186609117187722
147.573,0.13893302460029822,0.13893302460029822
147.574,0.13021395108948042,0.13021395108948042
147.57500000000002,0.1292553941700303,0.1292553941700303
147.57600000000002,0.1375314536834149,0.1375314536834149
147.577,0.15367318279429654,0.15367318279429654
147.578,0.1735662981398458,0.1735662981398458
147.579,0.19137795997253582,0.19137795997253582
147.58,0.20126138431545582,0.20126138431545582
147.58100000000002,0.1992387056171412,0.1992387056171412
147.58200000000002,0.18466593590260172,0.18466593590260172
147.583,0.16077841197413467,0.16077841197413467
147.584,0.134077071337259,0.134077071337259
147.585,0.11266574100977889,0.11266574100977889
147.586,0.10397810562475285,0.10397810562475285
147.58700000000002,0.1125368038489345,0.1125368038489345
147.588,0.13840187186884845,0.13840187186884845
147.589,0.17678591500863505,0.17678591500863505
147.59,0.21899244746432678,0.21899244746432678
147.591,0.25446625182812177,0.25446625182812177
147.592,0.2734359000853581,0.2734359000853581
147.59300000000002,0.26946382482514,0.26946382482514
147.594,0.24123982908919994,0.24123982908919994
147.595,0.19314837462417644,0.19314837462417644
147.596,0.1344513852803011,0.1344513852803011
147.597,0.07727278360359868,0.07727278360359868
147.598,0.033861812022495164,0.033861812022495164
147.59900000000002,0.013781603517904362,0.013781603517904362
147.6,0.021682920093027302,0.021682920093027302
147.601,0.056183630506166704,0.056183630506166704
147.602,0.11011874341422168,0.11011874341422168
147.603,0.17211273985468378,0.17211273985468378
147.604,0.22912413397195674,0.22912413397195674
147.60500000000002,0.2693864920457498,0.2693864920457498
147.606,0.28507012408892174,0.28507012408892174
147.607,0.27403947521942196,0.27403947521942196
147.608,0.24027767779026177,0.24027767779026177
147.609,0.19285465735034912,0.19285465735034912
147.61,0.14366387438859274,0.14366387438859274
147.61100000000002,0.10446402493203966,0.10446402493203966
147.612,0.08395557658552866,0.08395557658552866
147.613,0.0856393285086654,0.0856393285086654
147.614,0.10702714375607902,0.10702714375607902
147.615,0.14043647554535044,0.14043647554535044
147.616,0.17518133003033576,0.17518133003033576
147.61700000000002,0.20058425551275394,0.20058425551275394
147.618,0.20898888088277623,0.20898888088277623
147.619,0.19792953694272541,0.19792953694272541
147.62,0.17083256167110972,0.17083256167110972
147.621,0.13603096843808493,0.13603096843808493
147.622,0.10435789365313419,0.10435789365313419
147.62300000000002,0.08600292044597602,0.08600292044597602
147.624,0.08754060505778449,0.08754060505778449
147.625,0.10999844251921953,0.10999844251921953
147.626,0.14852866762375427,0.14852866762375427
147.627,0.19377278781338458,0.19377278781338458
147.628,0.23450376099035486,0.23450376099035486
147.62900000000002,0.260753820955673,0.260753820955673
147.63,0.26650326719357387,0.26650326719357387
147.631,0.25115743119681655,0.25115743119681655
147.632,0.21942526514983562,0.21942526514983562
147.633,0.17970867125133205,0.17970867125133205
147.634,0.14155806138715277,0.14155806138715277
147.63500000000002,0.11300632340330408,0.11300632340330408
147.636,0.09858433716411663,0.09858433716411663
147.637,0.098558913990205,0.098558913990205
147.638,0.10951368709585263,0.10951368709585263
147.639,0.1259592162469323,0.1259592162469323
147.64,0.14235383620481956,0.14235383620481956
147.64100000000002,0.15483589627590222,0.15483589627590222
147.642,0.16212577875942413,0.16212577875942413
147.643,0.16538546296636025,0.16538546296636025
147.644,0.1672018438247762,0.1672018438247762
147.645,0.17015404014304347,0.17015404014304347
147.64600000000002,0.17553714263504894,0.17553714263504894
147.64700000000002,0.18271655323728675,0.18271655323728675
147.648,0.18932531153653165,0.18932531153653165
147.649,0.19219422241879447,0.19219422241879447
147.65,0.18864012267472963,0.18864012267472963
147.651,0.1776229699302041,0.1776229699302041
147.65200000000002,0.160350310773538,0.160350310773538
147.65300000000002,0.14012288689578,0.14012288689578
147.654,0.12149097015519628,0.12149097015519628
147.655,0.10902393799201304,0.10902393799201304
147.656,0.10610449883101825,0.10610449883101825
147.657,0.11411414191105074,0.11411414191105074
147.65800000000002,0.13220761681822135,0.13220761681822135
147.65900000000002,0.15765583137393535,0.15765583137393535
147.66,0.18655578280248775,0.18655578280248775
147.661,0.21462821647855623,0.21462821647855623
147.662,0.23786701657025722,0.23786701657025722
147.663,0.25293554260663353,0.25293554260663353
147.66400000000002,0.25735566238656515,0.25735566238656515
147.66500000000002,0.24963197754081423,0.24963197754081423
147.666,0.22945115978493313,0.22945115978493313
147.667,0.1979966636642294,0.1979966636642294
147.668,0.1582721242938605,0.1582721242938605
147.669,0.11520881655351878,0.11520881655351878
147.67000000000002,0.07531318652989216,0.07531318652989216
147.67100000000002,0.04572030528296356,0.04572030528296356
147.672,0.03273257069805058,0.03273257069805058
147.673,0.04016384087802782,0.04016384087802782
147.674,0.06797786444427034,0.06797786444427034
147.675,0.11172286262887776,0.11172286262887776
147.67600000000002,0.1630900103632582,0.1630900103632582
147.67700000000002,0.21160112569593692,0.21160112569593692
147.678,0.24706071318991674,0.24706071318991674
147.679,0.2621188839622979,0.2621188839622979
147.68,0.25419583937488066,0.25419583937488066
147.681,0.22616574944225043,0.22616574944225043
147.68200000000002,0.18555434608324672,0.18555434608324672
147.68300000000002,0.1424600945872827,0.1424600945872827
147.684,0.10681235012213253,0.10681235012213253
147.685,0.08579216282694024,0.08579216282694024
147.686,0.08218522803400696,0.08218522803400696
147.687,0.09412648006076907,0.09412648006076907
147.68800000000002,0.11623555658567963,0.11623555658567963
147.68900000000002,0.14168931975068855,0.14168931975068855
147.69,0.16448798657543162,0.16448798657543162
147.691,0.18114426713877996,0.18114426713877996
147.692,0.19126627272722674,0.19126627272722674
147.693,0.1969251948362556,0.1969251948362556
147.69400000000002,0.2011445947186299,0.2011445947186299
147.69500000000002,0.20615809663128304,0.20615809663128304
147.696,0.2121453707822285,0.2121453707822285
147.697,0.21695256297632115,0.21695256297632115
147.698,0.21691109620129323,0.21691109620129323
147.699,0.20843577149622594,0.20843577149622594
147.70000000000002,0.1897719276579568,0.1897719276579568
147.70100000000002,0.16218930576461132,0.16218930576461132
147.702,0.13011541943967186,0.13011541943967186
147.703,0.10009208389789848,0.10009208389789848
147.704,0.07888020999236733,0.07888020999236733
147.705,0.07136513763695507,0.07136513763695507
147.70600000000002,0.07900435503747771,0.07900435503747771
147.70700000000002,0.09937587690791583,0.09937587690791583
147.708,0.1269947642873268,0.1269947642873268
147.709,0.15511061887820143,0.15511061887820143
147.71,0.1778481219093364,0.1778481219093364
147.711,0.1919355524381099,0.1919355524381099
147.71200000000002,0.19742596053177364,0.19742596053177364
147.713,0.19719264956202087,0.19719264956202087
147.714,0.1954343117406354,0.1954343117406354
147.715,0.195786483124756,0.195786483124756
147.716,0.19977052889822766,0.19977052889822766
147.717,0.20616984390284676,0.20616984390284676
147.71800000000002,0.21155985087629925,0.21155985087629925
147.719,0.21177168708763938,0.21177168708763938
147.72,0.20370883526728734,0.20370883526728734
147.721,0.1867986503084924,0.1867986503084924
147.722,0.16349951430553533,0.16349951430553533
147.723,0.1386469847251497,0.1386469847251497
147.72400000000002,0.11787075864656327,0.11787075864656327
147.725,0.10567668841328115,0.10567668841328115
147.726,0.10392404346817252,0.10392404346817252
147.727,0.11128280557898784,0.11128280557898784
147.728,0.12388167386965843,0.12388167386965843
147.729,0.13689620804115377,0.13689620804115377
147.73000000000002,0.14645570487573978,0.14645570487573978
147.731,0.1511129679192933,0.1511129679192933
147.732,0.15228077943853768,0.15228077943853768
147.733,0.1534378938415386,0.1534378938415386
147.734,0.15839692915552472,0.15839692915552472
147.735,0.16931841434758788,0.16931841434758788
147.73600000000002,0.18529290462691317,0.18529290462691317
147.737,0.20213253361346495,0.20213253361346495
147.738,0.2135706534977455,0.2135706534977455
147.739,0.21352204227950078,0.21352204227950078
147.74,0.1986112859857252,0.1986112859857252
147.741,0.1700083890359485,0.1700083890359485
147.74200000000002,0.1337967174247554,0.1337967174247554
147.743,0.09958769505127885,0.09958769505127885
147.744,0.07772265721471627,0.07772265721471627
147.745,0.07594067700280638,0.07594067700280638
147.746,0.09664081169854533,0.09664081169854533
147.747,0.13572447797439913,0.13572447797439913
147.74800000000002,0.18350352262144543,0.18350352262144543
147.749,0.2274670229742235,0.2274670229742235
147.75,0.25605402345071804,0.25605402345071804
147.751,0.2622094025096884,0.2622094025096884
147.752,0.2455427548419622,0.2455427548419622
147.753,0.21235957229722446,0.21235957229722446
147.75400000000002,0.17354091164185936,0.17354091164185936
147.755,0.14097054422240918,0.14097054422240918
147.756,0.12369759233320665,0.12369759233320665
147.757,0.12510801401676086,0.12510801401676086
147.758,0.1420301669589179,0.1420301669589179
147.759,0.16603904767705924,0.16603904767705924
147.76000000000002,0.1864799033870792,0.1864799033870792
147.761,0.1941614432309846,0.1941614432309846
147.762,0.184465771359124,0.184465771359124
147.763,0.15885014974513134,0.15885014974513134
147.764,0.12428746380513811,0.12428746380513811
147.765,0.09090235560684401,0.09090235560684401
147.76600000000002,0.06865916341456568,0.06865916341456568
147.767,0.06424181483032343,0.06424181483032343
147.768,0.07914667594447145,0.07914667594447145
147.769,0.10954376664634058,0.10954376664634058
147.77,0.14782716476352542,0.14782716476352542
147.77100000000002,0.18520321836911635,0.18520321836911635
147.77200000000002,0.21435590512663416,0.21435590512663416
147.773,0.23128039941881862,0.23128039941881862
147.774,0.23575164279904093,0.23575164279904093
147.775,0.23044002305807254,0.23044002305807254
147.776,0.21918974418187087,0.21918974418187087
147.77700000000002,0.20524901552445085,0.20524901552445085
147.77800000000002,0.1901900080838137,0.1901900080838137
147.779,0.17391290205528454,0.17391290205528454
147.78,0.15563700520160584,0.15563700520160584
147.781,0.13534293188226365,0.13534293188226365
147.782,0.11492091207053279,0.11492091207053279
147.78300000000002,0.09838792112997585,0.09838792112997585
147.78400000000002,0.09092176097195015,0.09092176097195015
147.785,0.0969734916391638,0.0969734916391638
147.786,0.11815623170665512,0.11815623170665512
147.787,0.15178777621034145,0.15178777621034145
147.788,0.1908006861235676,0.1908006861235676
147.78900000000002,0.22527083305729056,0.22527083305729056
147.79000000000002,0.24521566815519713,0.24521566815519713
147.791,0.2437983515990798,0.2437983515990798
147.792,0.21984307394620006,0.21984307394620006
147.793,0.1787226593924507,0.1787226593924507
147.794,0.13118526593575264,0.13118526593575264
147.79500000000002,0.09037622445634774,0.09037622445634774
147.79600000000002,0.06794441351570057,0.06794441351570057
147.797,0.07047272563197016,0.07047272563197016
147.798,0.09740631101097952,0.09740631101097952
147.799,0.14118193394410938,0.14118193394410938
147.8,0.18954164124837924,0.18954164124837924
147.80100000000002,0.22928925826970037,0.22928925826970037
147.80200000000002,0.2502691114293045,0.2502691114293045
147.803,0.24827950373080987,0.24827950373080987
147.804,0.2260026930473389,0.2260026930473389
147.805,0.1917104060034136,0.1917104060034136
147.806,0.15625405550285532,0.15625405550285532
147.80700000000002,0.1294121659607148,0.1294121659607148
147.80800000000002,0.11685130594120485,0.11685130594120485
147.809,0.11870275768126426,0.11870275768126426
147.81,0.13016101600276775,0.13016101600276775
147.811,0.14378697729902234,0.14378697729902234
147.812,0.15260551865875804,0.15260551865875804
147.81300000000002,0.15283199322497798,0.15283199322497798
147.81400000000002,0.1452303269607318,0.1452303269607318
147.815,0.13463045023409248,0.13463045023409248
147.816,0.12782149740563975,0.12782149740563975
147.817,0.13063949243467632,0.13063949243467632
147.818,0.14536694251682603,0.14536694251682603
147.81900000000002,0.16945003744337428,0.16945003744337428
147.82000000000002,0.19605809651394868,0.19605809651394868
147.821,0.2163332522434489,0.2163332522434489
147.822,0.22255000968601202,0.22255000968601202
147.823,0.21105116713322358,0.21105116713322358
147.824,0.18387773099675653,0.18387773099675653
147.82500000000002,0.14845139285679188,0.14845139285679188
147.82600000000002,0.11534588302798898,0.11534588302798898
147.827,0.09486063777451426,0.09486063777451426
147.828,0.09354837500196322,0.09354837500196322
147.829,0.11189167958432211,0.11189167958432211
147.83,0.1439538324635874,0.1439538324635874
147.83100000000002,0.17917043964523716,0.17917043964523716
147.83200000000002,0.205725318581506,0.205725318581506
147.833,0.21441312060948303,0.21441312060948303
147.834,0.20171632689726704,0.20171632689726704
147.835,0.17107463937043654,0.17107463937043654
147.836,0.1319155371774534,0.1319155371774534
147.83700000000002,0.09674729363477641,0.09674729363477641
147.838,0.07724604476629038,0.07724604476629038
147.839,0.08058963927756935,0.08058963927756935
147.84,0.10720156927505742,0.10720156927505742
147.841,0.15060402273991857,0.15060402273991857
147.842,0.19939802992878164,0.19939802992878164
147.84300000000002,0.2407159592075947,0.2407159592075947
147.844,0.2640437801366329,0.2640437801366329
147.845,0.26422488292011703,0.26422488292011703
147.846,0.24274982081083873,0.24274982081083873
147.847,0.20700093100897754,0.20700093100897754
147.848,0.1677680477692085,0.1677680477692085
147.84900000000002,0.13587339219969663,0.13587339219969663
147.85,0.1189810440901673,0.1189810440901673
147.851,0.11955752298313826,0.11955752298313826
147.852,0.1345456302641479,0.1345456302641479
147.853,0.1567549793629468,0.1567549793629468
147.854,0.17744166337497114,0.17744166337497114
147.85500000000002,0.18920973965592713,0.18920973965592713
147.856,0.18831342618350777,0.18831342618350777
147.857,0.17567190359977491,0.17567190359977491
147.858,0.1563409182012736,0.1563409182012736
147.859,0.1376738601843548,0.1376738601843548
147.86,0.12679825786845234,0.12679825786845234
147.86100000000002,0.12821837015997417,0.12821837015997417
147.862,0.14228680056014475,0.14228680056014475
147.863,0.16500121791333444,0.16500121791333444
147.864,0.18917175160721844,0.18917175160721844
147.865,0.20659568795952366,0.20659568795952366
147.866,0.21058597425414827,0.21058597425414827
147.86700000000002,0.19810571478626238,0.19810571478626238
147.868,0.17088077198603346,0.17088077198603346
147.869,0.13515586506906585,0.13515586506906585
147.87,0.10014081470240077,0.10014081470240077
147.871,0.07555797520313501,0.07555797520313501
147.872,0.06895293911883016,0.06895293911883016
147.87300000000002,0.08350385105424651,0.08350385105424651
147.874,0.11694227049588912,0.11694227049588912
147.875,0.1619121659736531,0.1619121659736531
147.876,0.20771607712901785,0.20771607712901785
147.877,0.24302497860620442,0.24302497860620442
147.878,0.2588576247315011,0.2588576247315011
147.87900000000002,0.25103972391420726,0.25103972391420726
147.88,0.22146450649272142,0.22146450649272142
147.881,0.17777315560283324,0.17777315560283324
147.882,0.13148525005083878,0.13148525005083878
147.883,0.09503030558387571,0.09503030558387571
147.884,0.07844749064714773,0.07844749064714773
147.88500000000002,0.08663940404701465,0.08663940404701465
147.886,0.11794455788310931,0.11794455788310931
147.887,0.16445419422686003,0.16445419422686003
147.888,0.21402799852128562,0.21402799852128562
147.889,0.25348870199140094,0.25348870199140094
147.89,0.27213375776672155,0.27213375776672155
147.89100000000002,0.2645971095359074,0.2645971095359074
147.892,0.2322639891131204,0.2322639891131204
147.893,0.18284466026281354,0.18284466026281354
147.894,0.12823566045940238,0.12823566045940238
147.895,0.0812864552263195,0.0812864552263195
147.89600000000002,0.05239890138423897,0.05239890138423897
147.89700000000002,0.046921993388074235,0.046921993388074235
147.898,0.0640535081612561,0.0640535081612561
147.899,0.09750018768184576,0.09750018768184576
147.9,0.13762130755924673,0.13762130755924673
147.901,0.17435015661973075,0.17435015661973075
147.90200000000002,0.1999862806472228,0.1999862806472228
147.90300000000002,0.21103678690873307,0.21103678690873307
147.904,0.20862346006972943,0.20862346006972943
147.905,0.19744877483000223,0.19744877483000223
147.906,0.1837703542311604,0.1837703542311604
147.907,0.1731221965057228,0.1731221965057228
147.90800000000002,0.16855321800454148,0.16855321800454148
147.90900000000002,0.16992829125073983,0.16992829125073983
147.91,0.17443962535843394,0.17443962535843394
147.911,0.1780486655088236,0.1780486655088236
147.912,0.1772687587101427,0.1772687587101427
147.913,0.17061001042230872,0.17061001042230872
147.91400000000002,0.159163678774902,0.159163678774902
147.91500000000002,0.14614127265106647,0.14614127265106647
147.916,0.13557755057891452,0.13557755057891452
147.917,0.13071381751130318,0.13071381751130318
147.918,0.1326889644387126,0.1326889644387126
147.919,0.1400435069869741,0.1400435069869741
147.92000000000002,0.1492339711121935,0.1492339711121935
147.92100000000002,0.15597547161174918,0.15597547161174918
147.922,0.15691827025510685,0.15691827025510685
147.923,0.15103314415625224,0.15103314415625224
147.924,0.14017803535881135,0.14017803535881135
147.925,0.12860932283323168,0.12860932283323168
147.92600000000002,0.12158016980235686,0.12158016980235686
147.92700000000002,0.12349934791558592,0.12349934791558592
147.928,0.13628814554525448,0.13628814554525448
147.929,0.15851213248438323,0.15851213248438323
147.93,0.185601087090834,0.185601087090834
147.931,0.21109862951860792,0.21109862951860792
147.93200000000002,0.228534757757771,0.228534757757771
147.93300000000002,0.23331105848424682,0.23331105848424682
147.934,0.22399788725624714,0.22399788725624714
147.935,0.20265645693115752,0.20265645693115752
147.936,0.17413560694072006,0.17413560694072006
147.937,0.1446307454183582,0.1446307454183582
147.93800000000002,0.12001253409676171,0.12001253409676171
147.93900000000002,0.10446341899067302,0.10446341899067302
147.94,0.09980069158409943,0.09980069158409943
147.941,0.10558450947091491,0.10558450947091491
147.942,0.11981915766462237,0.11981915766462237
147.943,0.13986582268915626,0.13986582268915626
147.94400000000002,0.16316275432271188,0.16316275432271188
147.94500000000002,0.18749391491525347,0.18749391491525347
147.946,0.21079372338904556,0.21079372338904556
147.947,0.23071720335876855,0.23071720335876855
147.948,0.24433786554620784,0.24433786554620784
147.949,0.24829966505854117,0.24829966505854117
147.95000000000002,0.23955247018375814,0.23955247018375814
147.95100000000002,0.21651783630492627,0.21651783630492627
147.952,0.18027822338838062,0.18027822338838062
147.953,0.1352686430655956,0.1352686430655956
147.954,0.08903763741806414,0.08903763741806414
147.955,0.050921991673777756,0.050921991673777756
147.95600000000002,0.029859437079745144,0.029859437079745144
147.95700000000002,0.03191236712234069,0.03191236712234069
147.958,0.05826075479490633,0.05826075479490633
147.959,0.10436142092790046,0.10436142092790046
147.96,0.1606638361445769,0.1606638361445769
147.961,0.21480728413390815,0.21480728413390815
147.96200000000002,0.2547486016275986,0.2547486016275986
147.963,0.2719433799157285,0.2719433799157285
147.964,0.2636425439672987,0.2636425439672987
147.965,0.23360184733754474,0.23360184733754474
147.966,0.1909672567564289,0.1909672567564289
147.967,0.1476498361666425,0.1476498361666425
147.96800000000002,0.11496415947441019,0.11496415947441019
147.969,0.10052632273588347,0.10052632273588347
147.97,0.10631972658802225,0.10631972658802225
147.971,0.12846782232229326,0.12846782232229326
147.972,0.15872250981688896,0.15872250981688896
147.973,0.18715519695633698,0.18715519695633698
147.97400000000002,0.20518947592556058,0.20518947592556058
147.975,0.2080454497814237,0.2080454497814237
147.976,0.19588901905840772,0.19588901905840772
147.977,0.17341365489499894,0.17341365489499894
147.978,0.14808106377127173,0.14808106377127173
147.979,0.12764928182616653,0.12764928182616653
147.98000000000002,0.11779881344763088,0.11779881344763088
147.981,0.12058293170367684,0.12058293170367684
147.982,0.13411923689797267,0.13411923689797267
147.983,0.15351861240552056,0.15351861240552056
147.984,0.17265739196602148,0.17265739196602148
147.985,0.18616289566299016,0.18616289566299016
147.98600000000002,0.19096717432818844,0.19096717432818844
147.987,0.18697791576490608,0.18697791576490608
147.988,0.17673992053729148,0.17673992053729148
147.989,0.16429880510835804,0.16429880510835804
147.99,0.1537180449578328,0.1537180449578328
147.991,0.14776992869587313,0.14776992869587313
147.99200000000002,0.14721163177033225,0.14721163177033225
147.993,0.1508214044156937,0.1508214044156937
147.994,0.15609740007318762,0.15609740007318762
147.995,0.16030837531430953,0.16030837531430953
147.996,0.16149860891317358,0.16149860891317358
147.997,0.1591070749261585,0.1591070749261585
147.99800000000002,0.1540298846728232,0.1540298846728232
147.999,0.14816627280661376,0.14816627280661376
148.0,0.1436641944957,0.1436641944957
148.001,0.14216345702898558,0.14216345702898558
148.002,0.1443021325147611,0.1443021325147611
148.003,0.14962809560667423,0.14962809560667423
148.00400000000002,0.1568952237531549,0.1568952237531549
148.005,0.164585763071883,0.164585763071883
148.006,0.17143517735243607,0.17143517735243607
148.007,0.17676126810174964,0.17676126810174964
148.008,0.180498209460219,0.180498209460219
148.009,0.18296485537787954,0.18296485537787954
148.01000000000002,0.18450337820528606,0.18450337820528606
148.011,0.18516869571584804,0.18516869571584804
148.012,0.18461703419559372,0.18461703419559372
148.013,0.18224931673686262,0.18224931673686262
148.014,0.17755064792803466,0.17755064792803466
148.015,0.17047710991323406,0.17047710991323406
148.01600000000002,0.1617112140903023,0.1617112140903023
148.017,0.15264996586970092,0.15264996586970092
148.018,0.14508919047647328,0.14508919047647328
148.019,0.1406874887795786,0.1406874887795786
148.02,0.14038804715273967,0.14038804715273967
148.02100000000002,0.14401012630310595,0.14401012630310595
148.02200000000002,0.1501795837681834,0.1501795837681834
148.023,0.15666128157316117,0.15666128157316117
148.024,0.16102047396928243,0.16102047396928243
148.025,0.16142092741312375,0.16142092741312375
148.026,0.15730576448016031,0.15730576448016031
148.02700000000002,0.14972580983892558,0.14972580983892558
148.02800000000002,0.14117672660862923,0.14117672660862923
148.029,0.13495265567414338,0.13495265567414338
148.03,0.13417628990610675,0.13417628990610675
148.031,0.14077650879593206,0.14077650879593206
148.032,0.15471957021470484,0.15471957021470484
148.03300000000002,0.17374520436420693,0.17374520436420693
148.03400000000002,0.1937276196048887,0.1937276196048887
148.035,0.20960869334602883,0.20960869334602883
148.036,0.21668432309736096,0.21668432309736096
148.037,0.21191217421146447,0.21191217421146447
148.038,0.1948832830253473,0.1948832830253473
148.03900000000002,0.16817154347185026,0.16817154347185026
148.04000000000002,0.13692817493740939,0.13692817493740939
148.041,0.10778441575275766,0.10778441575275766
148.042,0.08731354635211175,0.08731354635211175
148.043,0.08043188031701498,0.08043188031701498
148.044,0.08915047928621056,0.08915047928621056
148.04500000000002,0.11201241177713372,0.11201241177713372
148.04600000000002,0.1443807207506531,0.1443807207506531
148.047,0.17952218954269483,0.17952218954269483
148.048,0.21021953675359706,0.21021953675359706
148.049,0.2304984107887258,0.2304984107887258
148.05,0.23701830022091297,0.23701830022091297
148.05100000000002,0.22976231637847633,0.22976231637847633
148.05200000000002,0.21184954284628388,0.21184954284628388
148.053,0.1885348170821599,0.1885348170821599
148.054,0.16568684477598383,0.16568684477598383
148.055,0.14818084367475493,0.14818084367475493
148.056,0.13866243075531437,0.13866243075531437
148.05700000000002,0.13702688395377005,0.13702688395377005
148.05800000000002,0.14074357986313002,0.14074357986313002
148.059,0.14590224395675766,0.14590224395675766
148.06,0.14864180415725614,0.14864180415725614
148.061,0.14651027164896924,0.14651027164896924
148.062,0.1393303984008636,0.1393303984008636
148.06300000000002,0.12930333942289285,0.12930333942289285
148.06400000000002,0.12032242459002962,0.12032242459002962
148.065,0.11671631311770292,0.11671631311770292
148.066,0.12181753996583522,0.12181753996583522
148.067,0.13680344866091332,0.13680344866091332
148.068,0.1601668600759525,0.1601668600759525
148.06900000000002,0.18797400489232197,0.18797400489232197
148.07000000000002,0.21482293067077673,0.21482293067077673
148.071,0.23520581278997565,0.23520581278997565
148.072,0.24486939145882203,0.24486939145882203
148.073,0.24179034424524115,0.24179034424524115
148.074,0.22652338203078948,0.22652338203078948
148.07500000000002,0.20188681870106384,0.20188681870106384
148.07600000000002,0.17215094446906942,0.17215094446906942
148.077,0.14202211838619738,0.14202211838619738
148.078,0.1157324520820544,0.1157324520820544
148.079,0.09645504276157402,0.09645504276157402
148.08,0.08611026495808805,0.08611026495808805
148.08100000000002,0.08547361300928413,0.08547361300928413
148.08200000000002,0.09440082034816699,0.09440082034816699
148.083,0.1119857944419993,0.1119857944419993
148.084,0.1365560213907393,0.1365560213907393
148.085,0.16554584529472094,0.16554584529472094
148.086,0.19540726838591005,0.19540726838591005
148.08700000000002,0.22176240842176398,0.22176240842176398
148.088,0.23994240130844702,0.23994240130844702
148.089,0.2459080501562887,0.2459080501562887
148.09,0.23736168462030682,0.23736168462030682
148.091,0.21471263523588102,0.21471263523588102
148.092,0.1815185625820972,0.1815185625820972
148.09300000000002,0.14412513241960534,0.14412513241960534
148.094,0.11044989364274249,0.11044989364274249
148.095,0.08813651185800464,0.08813651185800464
148.096,0.08254813737640676,0.08254813737640676
148.097,0.09518309738706554,0.09518309738706554
148.098,0.12302901178639059,0.12302901178639059
148.09900000000002,0.15912866834366302,0.15912866834366302
148.1,0.19427950208978273,0.19427950208978273
148.101,0.21943682960908895,0.21943682960908895
148.102,0.2281540760287879,0.2281540760287879
148.103,0.21835360800208004,0.21835360800208004
148.104,0.19290022211721758,0.19290022211721758
148.10500000000002,0.1587957925229062,0.1587957925229062
148.106,0.12522198290703113,0.12522198290703113
148.107,0.10100025885708908,0.10100025885708908
148.108,0.09220674689693276,0.09220674689693276
148.109,0.10062156796442467,0.10062156796442467
148.11,0.12342878976187843,0.12342878976187843
148.11100000000002,0.15420035619837846,0.15420035619837846
148.112,0.18481799736260118,0.18481799736260118
148.113,0.2077295018903964,0.2077295018903964
148.114,0.21787507731404454,0.21787507731404454
148.115,0.21376471700745991,0.21376471700745991
148.116,0.19748072502991598,0.19748072502991598
148.11700000000002,0.1737183956235775,0.1737183956235775
148.118,0.14825148463845395,0.14825148463845395
148.119,0.12633575091327431,0.12633575091327431
148.12,0.11151634477878725,0.11151634477878725
148.121,0.10511614907087563,0.10511614907087563
148.122,0.10642975373602948,0.10642975373602948
148.12300000000002,0.11342323296035617,0.11342323296035617
148.124,0.12361597818108794,0.12361597818108794
148.125,0.13482707246334003,0.13482707246334003
148.126,0.1455846643149905,0.1455846643149905
148.127,0.15516416526079957,0.15516416526079957
148.128,0.16336888769868607,0.16336888769868607
148.12900000000002,0.17023970153613566,0.17023970153613566
148.13,0.1758592279698703,0.1758592279698703
148.131,0.180322753398104,0.180322753398104
148.132,0.18383328996259096,0.18383328996259096
148.133,0.18679881597082426,0.18679881597082426
148.134,0.18980360983651456,0.18980360983651456
148.13500000000002,0.1933955338065716,0.1933955338065716
148.136,0.19774371517572065,0.19774371517572065
148.137,0.20232120801961173,0.20232120801961173
148.138,0.20580226314248584,0.20580226314248584
148.139,0.2063074751208427,0.2063074751208427
148.14,0.20199583635544593,0.20199583635544593
148.14100000000002,0.1918410922244611,0.1918410922244611
148.142,0.1763093896122354,0.1763093896122354
148.143,0.15763504479334944,0.15763504479334944
148.144,0.13949487374124758,0.13949487374124758
148.145,0.12608380412048525,0.12608380412048525
148.14600000000002,0.12082716036130936,0.12082716036130936
148.14700000000002,0.12513997796444687,0.12513997796444687
148.148,0.13768602679289366,0.13768602679289366
148.149,0.15446755635448928,0.15446755635448928
148.15,0.16981919112348498,0.16981919112348498
148.151,0.1780676279837603,0.1780676279837603
148.15200000000002,0.17536169139353674,0.17536169139353674
148.15300000000002,0.16107242191058657,0.16107242191058657
148.154,0.13825971321103436,0.13825971321103436
148.155,0.11298086927657613,0.11298086927657613
148.156,0.09259140112685227,0.09259140112685227
148.157,0.08353448512340278,0.08353448512340278
148.15800000000002,0.08931143276251552,0.08931143276251552
148.15900000000002,0.10929676226271168,0.10929676226271168
148.16,0.13880855285745586,0.13880855285745586
148.161,0.17044587577654124,0.17044587577654124
148.162,0.1962912249638542,0.1962912249638542
148.163,0.21028667438292237,0.21028667438292237
148.16400000000002,0.21002798501767073,0.21002798501767073
148.16500000000002,0.197406013039922,0.197406013039922
148.166,0.17789959309017012,0.17789959309017012
148.167,0.15876347342031893,0.15876347342031893
148.168,0.14671121713064728,0.14671121713064728
148.169,0.14584688991428152,0.14584688991428152
148.17000000000002,0.15650091793587784,0.15650091793587784
148.17100000000002,0.1753112889777031,0.1753112889777031
148.172,0.1964711896351765,0.1964711896351765
148.173,0.21368278582646094,0.21368278582646094
148.174,0.22214287503315866,0.22214287503315866
148.175,0.21990792953538119,0.21990792953538119
148.17600000000002,0.20822880289140056,0.20822880289140056
148.17700000000002,0.1908178355844452,0.1908178355844452
148.178,0.17237916025276112,0.17237916025276112
148.179,0.15696791139503108,0.15696791139503108
148.18,0.1467678634151186,0.1467678634151186
148.181,0.14168923477639517,0.14168923477639517
148.18200000000002,0.13986430482011558,0.13986430482011558
148.18300000000002,0.1387804437554463,0.1387804437554463
148.184,0.13656234836033954,0.13656234836033954
148.185,0.1328786396430801,0.1328786396430801
148.186,0.12911150290984708,0.12911150290984708
148.187,0.12772668926590702,0.12772668926590702
148.18800000000002,0.13110079712431877,0.13110079712431877
148.18900000000002,0.14028260844069806,0.14028260844069806
148.19,0.15420260334806635,0.15420260334806635
148.191,0.16968498705180268,0.16968498705180268
148.192,0.1823181559353375,0.1823181559353375
148.193,0.18791242387725227,0.18791242387725227
148.19400000000002,0.18403895304437556,0.18403895304437556
148.19500000000002,0.17108895324528284,0.17108895324528284
148.196,0.1524400573054583,0.1524400573054583
148.197,0.13361690170947282,0.13361690170947282
148.198,0.12068006837625256,0.12068006837625256
148.199,0.11834950559917767,0.11834950559917767
148.20000000000002,0.12846991756713666,0.12846991756713666
148.20100000000002,0.14932129891202672,0.14932129891202672
148.202,0.1760046776162396,0.1760046776162396
148.203,0.20178598334994913,0.20178598334994913
148.204,0.2199781287821314,0.2199781287821314
148.205,0.22578299158323212,0.22578299158323212
148.20600000000002,0.2175486484971314,0.2175486484971314
148.20700000000002,0.19710342225758493,0.19710342225758493
148.208,0.1691299048571271,0.1691299048571271
148.209,0.13983380006826374,0.13983380006826374
148.21,0.1153488232257931,0.1153488232257931
148.211,0.10034732684930092,0.10034732684930092
148.21200000000002,0.09720254887570645,0.09720254887570645
148.213,0.10583047975319104,0.10583047975319104
148.214,0.12411297990260506,0.12411297990260506
148.215,0.1486489267279143,0.1486489267279143
148.216,0.17554207942873545,0.17554207942873545
148.217,0.20100941861440202,0.20100941861440202
148.21800000000002,0.2217348970959696,0.2217348970959696
148.219,0.23503225241385017,0.23503225241385017
148.22,0.23895586898630827,0.23895586898630827
148.221,0.2324820947241535,0.2324820947241535
148.222,0.21578929389361945,0.21578929389361945
148.223,0.19054311042329597,0.19054311042329597
148.22400000000002,0.16000715200589233,0.16000715200589233
148.225,0.12879757304105155,0.12879757304105155
148.226,0.10219573731956566,0.10219573731956566
148.227,0.08509598040576494,0.08509598040576494
148.228,0.0808326681635596,0.0808326681635596
148.229,0.09023148283459137,0.09023148283459137
148.23000000000002,0.11121416908018822,0.11121416908018822
148.231,0.1391462293083554,0.1391462293083554
148.232,0.16789366553040885,0.16789366553040885
148.233,0.19132317247347075,0.19132317247347075
148.234,0.20482331435853607,0.20482331435853607
148.235,0.20640188797896508,0.20640188797896508
148.23600000000002,0.19703995007658848,0.19703995007658848
148.237,0.18021600895492806,0.18021600895492806
148.238,0.16077535059042392,0.16077535059042392
148.239,0.1435191236692832,0.1435191236692832
148.24,0.13195735006972953,0.13195735006972953
148.241,0.12758816621368685,0.12758816621368685
148.24200000000002,0.12986569103400947,0.12986569103400947
148.243,0.13677622211495177,0.13677622211495177
148.244,0.14574577565938007,0.14574577565938007
148.245,0.15452031607818095,0.15452031607818095
148.246,0.16171699447020726,0.16171699447020726
148.247,0.1669104707489668,0.1669104707489668
148.24800000000002,0.17032207902402252,0.17032207902402252
148.249,0.17233767639367215,0.17233767639367215
148.25,0.17312946116812333,0.17312946116812333
148.251,0.17258045378586861,0.17258045378586861
148.252,0.17054303457546527,0.17054303457546527
148.253,0.16727902989734722,0.16727902989734722
148.25400000000002,0.16381130890529128,0.16381130890529128
148.255,0.16192324140205083,0.16192324140205083
148.256,0.16367962996987995,0.16367962996987995
148.257,0.17056160686808708,0.17056160686808708
148.258,0.18251994529880577,0.18251994529880577
148.259,0.19736228337310213,0.19736228337310213
148.26000000000002,0.21083857514026594,0.21083857514026594
148.261,0.2175746522068318,0.2175746522068318
148.262,0.21269110389320844,0.21269110389320844
148.263,0.1936450227377482,0.1936450227377482
148.264,0.16166386446109682,0.16166386446109682
148.265,0.12218437783076364,0.12218437783076364
148.26600000000002,0.08397440512969379,0.08397440512969379
148.267,0.057029536825703886,0.057029536825703886
148.268,0.049767288069543,0.049767288069543
148.269,0.06633836904164592,0.06633836904164592
148.27,0.10492268715450592,0.10492268715450592
148.27100000000002,0.15764025534973647,0.15764025534973647
148.27200000000002,0.21224352691941206,0.21224352691941206
148.273,0.2552079329270325,0.2552079329270325
148.274,0.27537824172459424,0.27537824172459424
148.275,0.26711438026651635,0.26711438026651635
148.276,0.23199087963813114,0.23199087963813114
148.27700000000002,0.17851411775594883,0.17851411775594883
148.27800000000002,0.1199073264806334,0.1199073264806334
148.279,0.07059166574865894,0.07059166574865894
148.28,0.04237956460043146,0.04237956460043146
148.281,0.04147159141465462,0.04147159141465462
148.282,0.06708888014336867,0.06708888014336867
148.28300000000002,0.11206573251614516,0.11206573251614516
148.28400000000002,0.16513591980133535,0.16513591980133535
148.285,0.21415922447496305,0.21415922447496305
148.286,0.24930102916040675,0.24930102916040675
148.287,0.26525984594866325,0.26525984594866325
148.288,0.261993703273226,0.261993703273226
148.28900000000002,0.24389748366176467,0.24389748366176467
148.29000000000002,0.2178600645669413,0.2178600645669413
148.291,0.19093030596143246,0.19093030596143246
148.292,0.16835986434594052,0.16835986434594052
148.293,0.15257628801991618,0.15257628801991618
148.294,0.14326444418089634,0.14326444418089634
148.29500000000002,0.1383389176028864,0.1383389176028864
148.29600000000002,0.13531231210992956,0.13531231210992956
148.297,0.13249111207501274,0.13249111207501274
148.298,0.12957017302700025,0.12957017302700025
148.299,0.12748046393148416,0.12748046393148416
148.3,0.12765609618476392,0.12765609618476392
148.30100000000002,0.1311068149672594,0.1311068149672594
148.30200000000002,0.1377329166827994,0.1377329166827994
148.303,0.14619096925879016,0.14619096925879016
148.304,0.1543696453186627,0.1543696453186627
148.305,0.1602685058795592,0.1602685058795592
148.306,0.16289550383447904,0.16289550383447904
148.30700000000002,0.16278109938576701,0.16278109938576701
148.30800000000002,0.1618550197590698,0.1618550197590698
148.309,0.16268793564114659,0.16268793564114659
148.31,0.16736462274943054,0.16736462274943054
148.311,0.17642360024706338,0.17642360024706338
148.312,0.18830243518049605,0.18830243518049605
148.31300000000002,0.199561106283364,0.199561106283364
148.31400000000002,0.20587586897444576,0.20587586897444576
148.315,0.2035044365675862,0.2035044365675862
148.316,0.19072798492957355,0.19072798492957355
148.317,0.16875137487520742,0.16875137487520742
148.318,0.14170415758614063,0.14170415758614063
148.31900000000002,0.11567899081845234,0.11567899081845234
148.32000000000002,0.09707042909621211,0.09707042909621211
148.321,0.09072234835613635,0.09072234835613635
148.322,0.09847052145921187,0.09847052145921187
148.323,0.11854957813998523,0.11854957813998523
148.324,0.14605955987835584,0.14605955987835584
148.32500000000002,0.1743487765067291,0.1743487765067291
148.32600000000002,0.19688012935802868,0.19688012935802868
148.327,0.20900297114462574,0.20900297114462574
148.328,0.20909721175961304,0.20909721175961304
148.329,0.19877152625900663,0.19877152625900663
148.33,0.18210756322054,0.18210756322054
148.33100000000002,0.16424212775280234,0.16424212775280234
148.33200000000002,0.14977155978704149,0.14977155978704149
148.333,0.14148869267042286,0.14148869267042286
148.334,0.1398221792235277,0.1398221792235277
148.335,0.14309525957748281,0.14309525957748281
148.336,0.1484453688858296,0.1484453688858296
148.33700000000002,0.15303952611267713,0.15303952611267713
148.338,0.1551474976171514,0.1551474976171514
148.339,0.15471176073647674,0.15471176073647674
148.34,0.15324615433226008,0.15324615433226008
148.341,0.15313331420084375,0.15313331420084375
148.342,0.1565932601988067,0.1565932601988067
148.34300000000002,0.16469720595957016,0.16469720595957016
148.344,0.17677396820653746,0.17677396820653746
148.345,0.19041681897988005,0.19041681897988005
148.346,0.2020971263898479,0.2020971263898479
148.347,0.20819496071567345,0.20819496071567345
148.348,0.2061271016561219,0.2061271016561219
148.34900000000002,0.1952258346696103,0.1952258346696103
148.35,0.1770999381389451,0.1770999381389451
148.351,0.15536318752043043,0.15536318752043043
148.352,0.1347966138583443,0.1347966138583443
148.353,0.12016624524564645,0.12016624524564645
148.354,0.11500747091978525,0.11500747091978525
148.35500000000002,0.12069134804890336,0.12069134804890336
148.356,0.13601182471157247,0.13601182471157247
148.357,0.15740016565637438,0.15740016565637438
148.358,0.17971899905320066,0.17971899905320066
148.359,0.19745000275843472,0.19745000275843472
148.36,0.20599655395908,0.20599655395908
148.36100000000002,0.20279442978287432,0.20279442978287432
148.362,0.1879649210144403,0.1879649210144403
148.363,0.1643468389629441,0.1643468389629441
148.364,0.1368860394600886,0.1368860394600886
148.365,0.11151331311924806,0.11151331311924806
148.366,0.09376945812143656,0.09376945812143656
148.36700000000002,0.08750790646027107,0.08750790646027107
148.368,0.09399825120329575,0.09399825120329575
148.369,0.1116635657346563,0.1116635657346563
148.37,0.13652729085722304,0.13652729085722304
148.371,0.16325897134429201,0.16325897134429201
148.372,0.18654228263066708,0.18654228263066708
148.37300000000002,0.20239303969307887,0.20239303969307887
148.374,0.20906256385851862,0.20906256385851862
148.375,0.20727750731667993,0.20727750731667993
148.376,0.1997620678958134,0.1997620678958134
148.377,0.19020593281065046,0.19020593281065046
148.378,0.18201321396689374,0.18201321396689374
148.37900000000002,0.1772363126216261,0.1772363126216261
148.38,0.17603703371878265,0.17603703371878265
148.381,0.17684065016589567,0.17684065016589567
148.382,0.17711237777708977,0.17711237777708977
148.383,0.17446877091487534,0.17446877091487534
148.384,0.16771514987319813,0.16771514987319813
148.38500000000002,0.1574208244349351,0.1574208244349351
148.386,0.1458049886619368,0.1458049886619368
148.387,0.13595577554786042,0.13595577554786042
148.388,0.13065652553168228,0.13065652553168228
148.389,0.13125497564104793,0.13125497564104793
148.39,0.13701867281058266,0.13701867281058266
148.39100000000002,0.14526201575364883,0.14526201575364883
148.392,0.15225550493536333,0.15225550493536333
148.393,0.15463047763048143,0.15463047763048143
148.394,0.15078142629756108,0.15078142629756108
148.395,0.1417268951467514,0.1417268951467514
148.39600000000002,0.1310460600332639,0.1310460600332639
148.39700000000002,0.12381831629990758,0.12381831629990758
148.398,0.12485544727453157,0.12485544727453157
148.399,0.13680244887246373,0.13680244887246373
148.4,0.15878487154555043,0.15878487154555043
148.401,0.18614771931744611,0.18614771931744611
148.40200000000002,0.21149406790172165,0.21149406790172165
148.40300000000002,0.22679543082038411,0.22679543082038411
148.404,0.2259566500059964,0.2259566500059964
148.405,0.20701396678848005,0.20701396678848005
148.406,0.173207473686239,0.173207473686239
148.407,0.1324919898750454,0.1324919898750454
148.40800000000002,0.09553745555271065,0.09553745555271065
148.40900000000002,0.07276472801676492,0.07276472801676492
148.41,0.07129970437154998,0.07129970437154998
148.411,0.09278978204112165,0.09278978204112165
148.412,0.13278263794877465,0.13278263794877465
148.413,0.18189045012006133,0.18189045012006133
148.41400000000002,0.2284047343323956,0.2284047343323956
148.41500000000002,0.26156949676876073,0.26156949676876073
148.416,0.2745141550665269,0.2745141550665269
148.417,0.2659614825999064,0.2659614825999064
148.418,0.2402227450430503,0.2402227450430503
148.419,0.2055413614721493,0.2055413614721493
148.42000000000002,0.17136681041072066,0.17136681041072066
148.42100000000002,0.14546179512569224,0.14546179512569224
148.422,0.13176545384546268,0.13176545384546268
148.423,0.1296530512092231,0.1296530512092231
148.424,0.13474848745726908,0.13474848745726908
148.425,0.1409262601527077,0.1409262601527077
148.42600000000002,0.14275893255280137,0.14275893255280137
148.42700000000002,0.13754862107838606,0.13754862107838606
148.428,0.12625849478703488,0.12625849478703488
148.429,0.11306385597721613,0.11306385597721613
148.43,0.10372799294105595,0.10372799294105595
148.431,0.10340755476448593,0.10340755476448593
148.43200000000002,0.11467175988575828,0.11467175988575828
148.43300000000002,0.13642465867279752,0.13642465867279752
148.434,0.16409116566356707,0.16409116566356707
148.435,0.19098580992532965,0.19098580992532965
148.436,0.21038331828570134,0.21038331828570134
148.437,0.2175877205000285,0.2175877205000285
148.43800000000002,0.2113211498344163,0.2113211498344163
148.43900000000002,0.1940066428463154,0.1940066428463154
148.44,0.17090456691092637,0.17090456691092637
148.441,0.14844179812685354,0.14844179812685354
148.442,0.132316711871026,0.132316711871026
148.443,0.12599508025491057,0.12599508025491057
148.44400000000002,0.1300335651981699,0.1300335651981699
148.44500000000002,0.1423538149259329,0.1423538149259329
148.446,0.15925986360910915,0.15925986360910915
148.447,0.17676223948974523,0.17676223948974523
148.448,0.19171830972807236,0.19171830972807236
148.449,0.20242632348189837,0.20242632348189837
148.45000000000002,0.20855978901890482,0.20855978901890482
148.45100000000002,0.2105972582410729,0.2105972582410729
148.452,0.20908672324660293,0.20908672324660293
148.453,0.20411739522863726,0.20411739522863726
148.454,0.19524927363625566,0.19524927363625566
148.455,0.18192809040699998,0.18192809040699998
148.45600000000002,0.16418317003645289,0.16418317003645289
148.45700000000002,0.14326265989371434,0.14326265989371434
148.458,0.12186312502911312,0.12186312502911312
148.459,0.1037595043246009,0.1037595043246009
148.46,0.09287991090128211,0.09287991090128211
148.461,0.09210499736628375,0.09210499736628375
148.46200000000002,0.10221066786555899,0.10221066786555899
148.463,0.12135821919922196,0.12135821919922196
148.464,0.14536744808676105,0.14536744808676105
148.465,0.16874382391885567,0.16874382391885567
148.466,0.18616529898708967,0.18616529898708967
148.467,0.19396443660297003,0.19396443660297003
148.46800000000002,0.1911302827004968,0.1911302827004968
148.469,0.17950788076715263,0.17950788076715263
148.47,0.1631384587115272,0.1631384587115272
148.471,0.14696720061941315,0.14696720061941315
148.472,0.13534910634764108,0.13534910634764108
148.473,0.13083710416393446,0.13083710416393446
148.47400000000002,0.1336245977258359,0.1336245977258359
148.475,0.14177989745004882,0.14177989745004882
148.476,0.15213756626808905,0.15213756626808905
148.477,0.1614975676377839,0.1614975676377839
148.478,0.1676996871185552,0.1676996871185552
148.479,0.17021184694127056,0.17021184694127056
148.48000000000002,0.17006494327636767,0.17006494327636767
148.481,0.1692096791244273,0.1692096791244273
148.482,0.1695741641476256,0.1695741641476256
148.483,0.17219423078877583,0.17219423078877583
148.484,0.1767432523418191,0.1767432523418191
148.485,0.18162721955892813,0.18162721955892813
148.48600000000002,0.18459684780188135,0.18459684780188135
148.487,0.1836404944024348,0.1836404944024348
148.488,0.17782558097039391,0.17782558097039391
148.489,0.16778194546016012,0.16778194546016012
148.49,0.15565317687063196,0.15565317687063196
148.491,0.14452960454824182,0.14452960454824182
148.49200000000002,0.13755106248260662,0.13755106248260662
148.493,0.13696973412394553,0.13696973412394553
148.494,0.14346364100833053,0.14346364100833053
148.495,0.15589767214769257,0.15589767214769257
148.496,0.17158105442832383,0.17158105442832383
148.497,0.18692194930264305,0.18692194930264305
148.49800000000002,0.19827924653857454,0.19827924653857454
148.499,0.20278375419644679,0.20278375419644679
148.5,0.19894222675899065,0.19894222675899065
148.501,0.1869212150216173,0.1869212150216173
148.502,0.1684974662429306,0.1684974662429306
148.503,0.14672793597604095,0.14672793597604095
148.50400000000002,0.12542312166219372,0.12542312166219372
148.505,0.10850921881904596,0.10850921881904596
148.506,0.09935611322438476,0.09935611322438476
148.507,0.10014740520493604,0.10014740520493604
148.508,0.11138163455826233,0.11138163455826233
148.509,0.1316105010726245,0.1316105010726245
148.51000000000002,0.15751851907243597,0.15751851907243597
148.511,0.1844080734132747,0.1844080734132747
148.512,0.2070673567809529,0.2070673567809529
148.513,0.2208821458635719,0.2208821458635719
148.514,0.22294325518820868,0.22294325518820868
148.515,0.21284635207234182,0.21284635207234182
148.51600000000002,0.19291616043638182,0.19291616043638182
148.517,0.16772114091050372,0.16772114091050372
148.518,0.14294817678756444,0.14294817678756444
148.519,0.12391787060204429,0.12391787060204429
148.52,0.1141649126743578,0.1141649126743578
148.52100000000002,0.1145240394748912,0.1145240394748912
148.52200000000002,0.1230293575037047,0.1230293575037047
148.523,0.13568473649420443,0.13568473649420443
148.524,0.1478735179692785,0.1478735179692785
148.525,0.15594689068393897,0.15594689068393897
148.526,0.15844865269724018,0.15844865269724018
148.52700000000002,0.15653969372114873,0.15653969372114873
148.52800000000002,0.15345292731362759,0.15345292731362759
148.529,0.1531520094583434,0.1531520094583434
148.53,0.15866488913146415,0.15866488913146415
148.531,0.17070453246543216,0.17070453246543216
148.532,0.18711301260310642,0.18711301260310642
148.53300000000002,0.20338692551371862,0.20338692551371862
148.53400000000002,0.21415271084883658,0.21415271084883658
148.535,0.21509744826692145,0.21509744826692145
148.536,0.20466008088973453,0.20466008088973453
148.537,0.18483383081857752,0.18483383081857752
148.538,0.16072065392194324,0.16072065392194324
148.53900000000002,0.13892023259765018,0.13892023259765018
148.54000000000002,0.1252748899405256,0.1252748899405256
148.541,0.12276529330793462,0.12276529330793462
148.542,0.13034843135794194,0.13034843135794194
148.543,0.14323281569044344,0.14323281569044344
148.544,0.15458664033140046,0.15458664033140046
148.54500000000002,0.15814303688809983,0.15814303688809983
148.54600000000002,0.1507951713174862,0.1507951713174862
148.547,0.1342087471544431,0.1342087471544431
148.548,0.11476428063374389,0.11476428063374389
148.549,0.10169621101645299,0.10169621101645299
148.55,0.10393850148604611,0.10393850148604611
148.55100000000002,0.12669265586531875,0.12669265586531875
148.55200000000002,0.16891541338163596,0.16891541338163596
148.553,0.22269569117875343,0.22269569117875343
148.554,0.27490905823857714,0.27490905823857714
148.555,0.3107853379538257,0.3107853379538257
148.556,0.318351789417175,0.318351789417175
148.55700000000002,0.2923558545443452,0.2923558545443452
148.55800000000002,0.2363647166983207,0.2363647166983207
148.559,0.1622716876493162,0.1622716876493162
148.56,0.08724920794299651,0.08724920794299651
148.561,0.029013104444009175,0.029013104444009175
148.562,0.0008280533251887601,0.0008280533251887601
148.56300000000002,0.00779582395673506,0.00779582395673506
148.56400000000002,0.04557998172578781,0.04557998172578781
148.565,0.10195406461298417,0.10195406461298417
148.566,0.16066388039078539,0.16066388039078539
148.567,0.20636322802995188,0.20636322802995188
148.568,0.2290572937167481,0.2290572937167481
148.56900000000002,0.22667525647173914,0.22667525647173914
148.57000000000002,0.20502792454535967,0.20502792454535967
148.571,0.17527289252745604,0.17527289252745604
148.572,0.1498178510857282,0.1498178510857282
148.573,0.13807399381965713,0.13807399381965713
148.574,0.14347106415180044,0.14347106415180044
148.57500000000002,0.1626735227262237,0.1626735227262237
148.57600000000002,0.18716324352115166,0.18716324352115166
148.577,0.20654728382473553,0.20654728382473553
148.578,0.21238480358796963,0.21238480358796963
148.579,0.20119175372701603,0.20119175372701603
148.58,0.1756108534978733,0.1756108534978733
148.58100000000002,0.14340221026255806,0.14340221026255806
148.58200000000002,0.1146769136137129,0.1146769136137129
148.583,0.09839333850838305,0.09839333850838305
148.584,0.09936018673515123,0.09936018673515123
148.585,0.11677292323464017,0.11677292323464017
148.586,0.14473897225407817,0.14473897225407817
148.58700000000002,0.1745319843616473,0.1745319843616473
148.588,0.19771283529376893,0.19771283529376893
148.589,0.20897561406989706,0.20897561406989706
148.59,0.20771243056759703,0.20771243056759703
148.591,0.19778364916427837,0.19778364916427837
148.592,0.18564601746808762,0.18564601746808762
148.59300000000002,0.17758737225972632,0.17758737225972632
148.594,0.1771294197799802,0.1771294197799802
148.595,0.18358077182586285,0.18358077182586285
148.596,0.19228476746848422,0.19228476746848422
148.597,0.19647304166919421,0.19647304166919421
148.598,0.19003762980639594,0.19003762980639594
148.59900000000002,0.17018813805074195,0.17018813805074195
148.6,0.13899039882839137,0.13899039882839137
148.601,0.10317734724498795,0.10317734724498795
148.602,0.07223928200329133,0.07223928200329133
148.603,0.055418247523747466,0.055418247523747466
148.604,0.05862986161653638,0.05862986161653638
148.60500000000002,0.08237458809322495,0.08237458809322495
148.606,0.12136683367663648,0.12136683367663648
148.607,0.16602358347676938,0.16602358347676938
148.608,0.20532177650690686,0.20532177650690686
148.609,0.2300761009536818,0.2300761009536818
148.61,0.2355627485337517,0.2355627485337517
148.61100000000002,0.2226577735660764,0.2226577735660764
148.612,0.1971791561163725,0.1971791561163725
148.613,0.1677326726644437,0.1677326726644437
148.614,0.14284930238614924,0.14284930238614924
148.615,0.1284010446071373,0.1284010446071373
148.616,0.1261334224300905,0.1261334224300905
148.61700000000002,0.13372129509133912,0.13372129509133912
148.618,0.1462022281562727,0.1462022281562727
148.619,0.15816813165717147,0.15816813165717147
148.62,0.16586583711379643,0.16586583711379643
148.621,0.1684427908882591,0.1684427908882591
148.622,0.16793153241975878,0.16793153241975878
148.62300000000002,0.16805610448975017,0.16805610448975017
148.624,0.17238197153220103,0.17238197153220103
148.625,0.18255983820063015,0.18255983820063015
148.626,0.19735574533984734,0.19735574533984734
148.627,0.2128449636982388,0.2128449636982388
148.628,0.22369889469049453,0.22369889469049453
148.62900000000002,0.2250816630815069,0.2250816630815069
148.63,0.2144482604023461,0.2144482604023461
148.631,0.19257816043043774,0.19257816043043774
148.632,0.1634662547889416,0.1634662547889416
148.633,0.1331154228668474,0.1331154228668474
148.634,0.10767337049630132,0.10767337049630132
148.63500000000002,0.0915840436408435,0.0915840436408435
148.636,0.08640053946583515,0.08640053946583515
148.637,0.09064618195219531,0.09064618195219531
148.638,0.10071506210272951,0.10071506210272951
148.639,0.112422833151548,0.112422833151548
148.64,0.1225944365887448,0.1225944365887448
148.64100000000002,0.13008816030943748,0.13008816030943748
148.642,0.1358951809740916,0.1358951809740916
148.643,0.142325340892691,0.142325340892691
148.644,0.1516495871864183,0.1516495871864183
148.645,0.1647795334857709,0.1647795334857709
148.64600000000002,0.18054526605256127,0.18054526605256127
148.64700000000002,0.19589195154913264,0.19589195154913264
148.648,0.20694674979741157,0.20694674979741157
148.649,0.2105522209510493,0.2105522209510493
148.65,0.20565881962205035,0.20565881962205035
148.651,0.1939986256093198,0.1939986256093198
148.65200000000002,0.17971878595242297,0.17971878595242297
148.65300000000002,0.16804349904414018,0.16804349904414018
148.654,0.1634124958157519,0.1634124958157519
148.655,0.1677678454430127,0.1677678454430127
148.656,0.17964062038932904,0.17964062038932904
148.657,0.19442468403224877,0.19442468403224877
148.65800000000002,0.20580729265549413,0.20580729265549413
148.65900000000002,0.2079045186641697,0.2079045186641697
148.66,0.19737752237459483,0.19737752237459483
148.661,0.17478569586341286,0.17478569586341286
148.662,0.14467743923869603,0.14467743923869603
148.663,0.11434631182346133,0.11434631182346133
148.66400000000002,0.09164052122786992,0.09164052122786992
148.66500000000002,0.08254467096803686,0.08254467096803686
148.666,0.08933659137173167,0.08933659137173167
148.667,0.10992823024143483,0.10992823024143483
148.668,0.13859560535037363,0.13859560535037363
148.669,0.1678306653143138,0.1678306653143138
148.67000000000002,0.19067320864823656,0.19067320864823656
148.67100000000002,0.20273407510521335,0.20273407510521335
148.672,0.2032503825795966,0.2032503825795966
148.673,0.1948699321674099,0.1948699321674099
148.674,0.18231534069112687,0.18231534069112687
148.675,0.17046626759428185,0.17046626759428185
148.67600000000002,0.1625830748033139,0.1625830748033139
148.67700000000002,0.1593146796670757,0.1593146796670757
148.678,0.1588208996948446,0.1588208996948446
148.679,0.15791236161302802,0.15791236161302802
148.68,0.1537267099894022,0.1537267099894022
148.681,0.14525929109866365,0.14525929109866365
148.68200000000002,0.13412284644602113,0.13412284644602113
148.68300000000002,0.12420309470624002,0.12420309470624002
148.684,0.12029813554237534,0.12029813554237534
148.685,0.126224662803901,0.126224662803901
148.686,0.14309689261016056,0.14309689261016056
148.687,0.16845028287877772,0.16845028287877772
148.68800000000002,0.19659933286756348,0.19659933286756348
148.68900000000002,0.22018493568917252,0.22018493568917252
148.69,0.23243542350415214,0.23243542350415214
148.691,0.22939116010772787,0.22939116010772787
148.692,0.21132587036581696,0.21132587036581696
148.693,0.18284940961634244,0.18284940961634244
148.69400000000002,0.15161267261265055,0.15161267261265055
148.69500000000002,0.1260068464134314,0.1260068464134314
148.696,0.11259387679057475,0.11259387679057475
148.697,0.11410364121086891,0.11410364121086891
148.698,0.12865116567827095,0.12865116567827095
148.699,0.15042579617048446,0.15042579617048446
148.70000000000002,0.17161966052029243,0.17161966052029243
148.70100000000002,0.18495854901513908,0.18495854901513908
148.702,0.18600924648292527,0.18600924648292527
148.703,0.17452376494705102,0.17452376494705102
148.704,0.15440949169901685,0.15440949169901685
148.705,0.13237084510209618,0.13237084510209618
148.70600000000002,0.11569801945373936,0.11569801945373936
148.70700000000002,0.10993996083566548,0.10993996083566548
148.708,0.11721034531065744,0.11721034531065744
148.709,0.13564162975738725,0.13564162975738725
148.71,0.16010964276806838,0.16010964276806838
148.711,0.1839359672658556,0.1839359672658556
148.71200000000002,0.2009758504227217,0.2009758504227217
148.713,0.2074091166181633,0.2074091166181633
148.714,0.20268963714503485,0.20268963714503485
148.715,0.18941683628300465,0.18941683628300465
148.716,0.1722579682248062,0.1722579682248062
148.717,0.15634691405108225,0.15634691405108225
148.71800000000002,0.1457189332784663,0.1457189332784663
148.719,0.14227746126748175,0.14227746126748175
148.72,0.14556450407949062,0.14556450407949062
148.721,0.15330940781598734,0.15330940781598734
148.722,0.16246980532068322,0.16246980532068322
148.723,0.17034155040553856,0.17034155040553856
148.72400000000002,0.17533989844839737,0.17533989844839737
148.725,0.17722013322707575,0.17722013322707575
148.726,0.17674128322709093,0.17674128322709093
148.727,0.1749898210191998,0.1749898210191998
148.728,0.17269327697201775,0.17269327697201775
148.729,0.16982998037610897,0.16982998037610897
148.73000000000002,0.16569707257176702,0.16569707257176702
148.731,0.15939552835755277,0.15939552835755277
148.732,0.15050942164539038,0.15050942164539038
148.733,0.13966761817221895,0.13966761817221895
148.734,0.12871327715454184,0.12871327715454184
148.735,0.1203553006405258,0.1203553006405258
148.73600000000002,0.11737936645448932,0.11737936645448932
148.737,0.1216771917502597,0.1216771917502597
148.738,0.13344234012384382,0.13344234012384382
148.739,0.15084394489802166,0.15084394489802166
148.74,0.1703371434193679,0.1703371434193679
148.741,0.18755373990593638,0.18755373990593638
148.74200000000002,0.1985142645700666,0.1985142645700666
148.743,0.200784390547051,0.200784390547051
148.744,0.1942062992278737,0.1942062992278737
148.745,0.18096693827169785,0.18096693827169785
148.746,0.16497561923824722,0.16497561923824722
148.747,0.15074210586940406,0.15074210586940406
148.74800000000002,0.14210076159227736,0.14210076159227736
148.749,0.14116711090188927,0.14116711090188927
148.75,0.14783012158454278,0.14783012158454278
148.751,0.15990768113280796,0.15990768113280796
148.752,0.17388444618033816,0.17388444618033816
148.753,0.18597872684071493,0.18597872684071493
148.75400000000002,0.1932014493088008,0.1932014493088008
148.755,0.19409675440779495,0.19409675440779495
148.756,0.18897464975804779,0.18897464975804779
148.757,0.1796161080143983,0.1796161080143983
148.758,0.16859235738072798,0.16859235738072798
148.759,0.1584425384950372,0.1584425384950372
148.76000000000002,0.150970482297897,0.150970482297897
148.761,0.1468553999058373,0.1468553999058373
148.762,0.1456524147034033,0.1456524147034033
148.763,0.1461307167249608,0.1461307167249608
148.764,0.14680135673068762,0.14680135673068762
148.765,0.146449459030352,0.146449459030352
148.76600000000002,0.14451066849453298,0.14451066849453298
148.767,0.14120191926369086,0.14120191926369086
148.768,0.13740285304089261,0.13740285304089261
148.769,0.13435662825752837,0.13435662825752837
148.77,0.13329740157288872,0.13329740157288872
148.77100000000002,0.1351114352249041,0.1351114352249041
148.77200000000002,0.14010866155769408,0.14010866155769408
148.773,0.14793870762526495,0.14793870762526495
148.774,0.15764685609656892,0.15764685609656892
148.775,0.1678414867846878,0.1678414867846878
148.776,0.1769361395120237,0.1769361395120237
148.77700000000002,0.18343000027048628,0.18343000027048628
148.77800000000002,0.18619163883205236,0.18619163883205236
148.779,0.18470693070387045,0.18470693070387045
148.78,0.179244771415892,0.179244771415892
148.781,0.17089116129132043,0.17089116129132043
148.782,0.1614132294545092,0.1614132294545092
148.78300000000002,0.15294555326699477,0.15294555326699477
148.78400000000002,0.14753873739852064,0.14753873739852064
148.785,0.14666176705195122,0.14666176705195122
148.786,0.15078589174526402,0.15078589174526402
148.787,0.15918032024396722,0.15918032024396722
148.788,0.17000942466547841,0.17000942466547841
148.78900000000002,0.18074282423567611,0.18074282423567611
148.79000000000002,0.18879431052114226,0.18879431052114226
148.791,0.19222355079218056,0.19222355079218056
148.792,0.19029605939588157,0.19029605939588157
148.793,0.1837207743712863,0.1837207743712863
148.794,0.1744697834371951,0.1744697834371951
148.79500000000002,0.16520895635640565,0.16520895635640565
148.79600000000002,0.15849353417422352,0.15849353417422352
148.797,0.15596753375347205,0.15596753375347205
148.798,0.15781908368234854,0.15781908368234854
148.799,0.1626763885170872,0.1626763885170872
148.8,0.16799824380713613,0.16799824380713613
148.80100000000002,0.1708582806927461,0.1708582806927461
148.80200000000002,0.16889267529724705,0.16889267529724705
148.803,0.16111996966861186,0.16111996966861186
148.804,0.14837114325668255,0.14837114325668255
148.805,0.13318146920659135,0.13318146920659135
148.806,0.119158816597976,0.119158816597976
148.80700000000002,0.11000489564832705,0.11000489564832705
148.80800000000002,0.10847507307158577,0.10847507307158577
148.809,0.11558382049802307,0.11558382049802307
148.81,0.1302895714698138,0.1302895714698138
148.811,0.14974803590858432,0.14974803590858432
148.812,0.17005281314471055,0.17005281314471055
148.81300000000002,0.18724002020121056,0.18724002020121056
148.81400000000002,0.19826334177472682,0.19826334177472682
148.815,0.20166731803574267,0.20166731803574267
148.816,0.19778996147294237,0.19778996147294237
148.817,0.18847528178193795,0.18847528178193795
148.818,0.17642289599441074,0.17642289599441074
148.81900000000002,0.16439949511685148,0.16439949511685148
148.82000000000002,0.15455734837357937,0.15455734837357937
148.821,0.14804651866194485,0.14804651866194485
148.822,0.1449941827146739,0.1449941827146739
148.823,0.14479725559040846,0.14479725559040846
148.824,0.1465765995137922,0.1465765995137922
148.82500000000002,0.14960339186230254,0.14960339186230254
148.82600000000002,0.15353958513494415,0.15353958513494415
148.827,0.15841961111685743,0.15841961111685743
148.828,0.16440659373540845,0.16440659373540845
148.829,0.17144467734985835,0.17144467734985835
148.83,0.1789688170371353,0.1789688170371353
148.83100000000002,0.1858118256650909,0.1858118256650909
148.83200000000002,0.1903747922937622,0.1903747922937622
148.833,0.19102828979597986,0.19102828979597986
148.834,0.18662324571276834,0.18662324571276834
148.835,0.17694290088554698,0.17694290088554698
148.836,0.16293722292705892,0.16293722292705892
148.83700000000002,0.14664502980843874,0.14664502980843874
148.838,0.13080544162971774,0.13080544162971774
148.839,0.11825729618042358,0.11825729618042358
148.84,0.11129148094616559,0.11129148094616559
148.841,0.11113608179051249,0.11113608179051249
148.842,0.11771413563246136,0.11771413563246136
148.84300000000002,0.1297323945846618,0.1297323945846618
148.844,0.14506301624912754,0.14506301624912754
148.845,0.16129823161681434,0.16129823161681434
148.846,0.17631474947501613,0.17631474947501613
148.847,0.18869107515020778,0.18869107515020778
148.848,0.19787279245522282,0.19787279245522282
148.84900000000002,0.20406077043887083,0.20406077043887083
148.85,0.20788064186176425,0.20788064186176425
148.851,0.2099546201926381,0.2099546201926381
148.852,0.210521863724338,0.210521863724338
148.853,0.2092356067974961,0.2092356067974961
148.854,0.20521060336607966,0.20521060336607966
148.85500000000002,0.19731892430633002,0.19731892430633002
148.856,0.18465639827101588,0.18465639827101588
148.857,0.16704596215578582,0.16704596215578582
148.858,0.14542261403638435,0.14542261403638435
148.859,0.12196391546837182,0.12196391546837182
148.86,0.09988691242777836,0.09988691242777836
148.86100000000002,0.08291490536752177,0.08291490536752177
148.862,0.07450706677467012,0.07450706677467012
148.863,0.07701879465498163,0.07701879465498163
148.864,0.09100060646303221,0.09100060646303221
148.865,0.11483417630465564,0.11483417630465564
148.866,0.14484204174332205,0.14484204174332205
148.86700000000002,0.17590178067811624,0.17590178067811624
148.868,0.20246811941757148,0.20246811941757148
148.869,0.2197886624978096,0.2197886624978096
148.87,0.22502404587829816,0.22502404587829816
148.871,0.2179776707947778,0.2179776707947778
148.872,0.201214382015088,0.201214382015088
148.87300000000002,0.17949067329543444,0.17949067329543444
148.874,0.1585988376119185,0.1585988376119185
148.875,0.14389652972674227,0.14389652972674227
148.876,0.13890135165732231,0.13890135165732231
148.877,0.1443394286047741,0.1443394286047741
148.878,0.15793506814012814,0.15793506814012814
148.87900000000002,0.17503533828646978,0.17503533828646978
148.88,0.1899283491730066,0.1899283491730066
148.881,0.1975041812143774,0.1975041812143774
148.882,0.1947879651762019,0.1947879651762019
148.883,0.18188836600827862,0.18188836600827862
148.884,0.1620566128592651,0.1620566128592651
148.88500000000002,0.14080372655755213,0.14080372655755213
148.886,0.12430529251659173,0.12430529251659173
148.887,0.11754883789963966,0.11754883789963966
148.888,0.12277576926161449,0.12277576926161449
148.889,0.13870136568748137,0.13870136568748137
148.89,0.16077604206976415,0.16077604206976415
148.89100000000002,0.18244109258677588,0.18244109258677588
148.892,0.1970257215150133,0.1970257215150133
148.893,0.19972554602906256,0.19972554602906256
148.894,0.18906420702164328,0.18906420702164328
148.895,0.16738652651132324,0.16738652651132324
148.89600000000002,0.14022251679149345,0.14022251679149345
148.89700000000002,0.11470786067213701,0.11470786067213701
148.898,0.09753942629990164,0.09753942629990164
148.899,0.0930896490758295,0.0930896490758295
148.9,0.10225252888371639,0.10225252888371639
148.901,0.12236058252501114,0.12236058252501114
148.90200000000002,0.14816999828044497,0.14816999828044497
148.90300000000002,0.1735708149191677,0.1735708149191677
148.904,0.1934515849703704,0.1934515849703704
148.905,0.20510920478360317,0.20510920478360317
148.906,0.2087582242888395,0.2087582242888395
148.907,0.20700632779445782,0.20700632779445782
148.90800000000002,0.20351940623739972,0.20351940623739972
148.90900000000002,0.2013798025985667,0.2013798025985667
148.91,0.20174805472360902,0.20174805472360902
148.911,0.20333239553861548,0.20333239553861548
148.912,0.20288417771735623,0.20288417771735623
148.913,0.19656674941922403,0.19656674941922403
148.91400000000002,0.1817172531989124,0.1817172531989124
148.91500000000002,0.1583514745140664,0.1583514745140664
148.916,0.12981625341923442,0.12981625341923442
148.917,0.10226219655957713,0.10226219655957713
148.918,0.08300765381996156,0.08300765381996156
148.919,0.07826153173218198,0.07826153173218198
148.92000000000002,0.09093124003049091,0.09093124003049091
148.92100000000002,0.119268036802602,0.119268036802602
148.922,0.15687523161247552,0.15687523161247552
148.923,0.19418923778393093,0.19418923778393093
148.924,0.22106892859873373,0.22106892859873373
148.925,0.22974916986768834,0.22974916986768834
148.92600000000002,0.21725792899008955,0.21725792899008955
148.92700000000002,0.18652227412412237,0.18652227412412237
148.928,0.14576596868445368,0.14576596868445368
148.929,0.10631703018341021,0.10631703018341021
148.93,0.07943705993042505,0.07943705993042505
148.931,0.07309862883395413,0.07309862883395413
148.93200000000002,0.08967016281047702,0.08967016281047702
148.93300000000002,0.1252052258255021,0.1252052258255021
148.934,0.17055393986889755,0.17055393986889755
148.935,0.21396647140271052,0.21396647140271052
148.936,0.24441203126569988,0.24441203126569988
148.937,0.2546296890804327,0.2546296890804327
148.93800000000002,0.24302186972677386,0.24302186972677386
148.93900000000002,0.21386513152410003,0.21386513152410003
148.94,0.1758294149390358,0.1758294149390358
148.941,0.139304092812643,0.139304092812643
148.942,0.11337048710899045,0.11337048710899045
148.943,0.10333485923860941,0.10333485923860941
148.94400000000002,0.10952798974916589,0.10952798974916589
148.94500000000002,0.12766080117192868,0.12766080117192868
148.946,0.15053666704241664,0.15053666704241664
148.947,0.17051487473492655,0.17051487473492655
148.948,0.1819196012901605,0.1819196012901605
148.949,0.18264878236201487,0.18264878236201487
148.95000000000002,0.17452743850593366,0.17452743850593366
148.95100000000002,0.162369028649878,0.162369028649878
148.952,0.15211847815341373,0.15211847815341373
148.953,0.14872275874473373,0.14872275874473373
148.954,0.15442976887190518,0.15442976887190518
148.955,0.16804674116932405,0.16804674116932405
148.95600000000002,0.18535981945040536,0.18535981945040536
148.95700000000002,0.20053864304232816,0.20053864304232816
148.958,0.20804523910377282,0.20804523910377282
148.959,0.20442735998486294,0.20442735998486294
148.96,0.1894377397649607,0.1894377397649607
148.961,0.16615280182063819,0.16615280182063819
148.96200000000002,0.14008561266568642,0.14008561266568642
148.963,0.11759389686373822,0.11759389686373822
148.964,0.10408155599769886,0.10408155599769886
148.965,0.10252789592791522,0.10252789592791522
148.966,0.11275270594567433,0.11275270594567433
148.967,0.13158698392731827,0.13158698392731827
148.96800000000002,0.1538482292245691,0.1538482292245691
148.969,0.17379871458496554,0.17379871458496554
148.97,0.18665532148265207,0.18665532148265207
148.971,0.18974190792826606,0.18974190792826606
148.972,0.18300995849601942,0.18300995849601942
148.973,0.16884980970175767,0.16884980970175767
148.97400000000002,0.15131043166905567,0.15131043166905567
148.975,0.13498618074973434,0.13498618074973434
148.976,0.12388295006797012,0.12388295006797012
148.977,0.12054156383728198,0.12054156383728198
148.978,0.12559593879802788,0.12559593879802788
148.979,0.13781442346793926,0.13781442346793926
148.98000000000002,0.15455265324302592,0.15455265324302592
148.981,0.17246307771437008,0.17246307771437008
148.982,0.18827243147904027,0.18827243147904027
148.983,0.19945130707197434,0.19945130707197434
148.984,0.2046470499252213,0.2046470499252213
148.985,0.20381610239570547,0.20381610239570547
148.98600000000002,0.1980597363163119,0.1980597363163119
148.987,0.1892266684928452,0.1892266684928452
148.988,0.1793897600821348,0.1793897600821348
148.989,0.17032643081815002,0.17032643081815002
148.99,0.16312944436967847,0.16312944436967847
148.991,0.15804429746986903,0.15804429746986903
148.99200000000002,0.15457387919193288,0.15457387919193288
148.993,0.15181937807406842,0.15181937807406842
148.994,0.14895488549551383,0.14895488549551383
148.995,0.14568263731795983,0.14568263731795983
148.996,0.1425058629876419,0.1425058629876419
148.997,0.1406974054815222,0.1406974054815222
148.99800000000002,0.14193017026972599,0.14193017026972599
148.999,0.14764857855548752,0.14764857855548752
149.0,0.15836424784647973,0.15836424784647973
149.001,0.1731169075617811,0.1731169075617811
149.002,0.1893258173123964,0.1893258173123964
149.003,0.2031617125256473,0.2031617125256473
149.00400000000002,0.21041522987403427,0.21041522987403427
149.005,0.207668726035378,0.207668726035378
149.006,0.19344924944089992,0.19344924944089992
149.007,0.16899939715169787,0.16899939715169787
149.008,0.1383741966086245,0.1383741966086245
149.009,0.10774548802655182,0.10774548802655182
149.01000000000002,0.08402523000149587,0.08402523000149587
149.011,0.07313746073558414,0.07313746073558414
149.012,0.07840480399985683,0.07840480399985683
149.013,0.0995196867532997,0.0995196867532997
149.014,0.1324316995675121,0.1324316995675121
149.015,0.17023443850185171,0.17023443850185171
149.01600000000002,0.2048480008250737,0.2048480008250737
149.017,0.22905338932022667,0.22905338932022667
149.018,0.2383179732959313,0.2383179732959313
149.019,0.23189719683970145,0.23189719683970145
149.02,0.21289799089315298,0.21289799089315298
149.02100000000002,0.18728694242259825,0.18728694242259825
149.02200000000002,0.16213297394293646,0.16213297394293646
149.023,0.14359748181767595,0.14359748181767595
149.024,0.1352563847337913,0.1352563847337913
149.025,0.1372360366246661,0.1372360366246661
149.026,0.14639924261634962,0.14639924261634962
149.02700000000002,0.15750315860793718,0.15750315860793718
149.02800000000002,0.1649627926569175,0.1649627926569175
149.029,0.16467860019953884,0.16467860019953884
149.03,0.15537560820514384,0.15537560820514384
149.031,0.13905560954699392,0.13905560954699392
149.032,0.12043441415810108,0.12043441415810108
149.03300000000002,0.10554008505167323,0.10554008505167323
149.03400000000002,0.09989448832332659,0.09989448832332659
149.035,0.1068177316565313,0.1068177316565313
149.036,0.12635183911079673,0.12635183911079673
149.037,0.15511329799297324,0.15511329799297324
149.038,0.18711241905368126,0.18711241905368126
149.03900000000002,0.21530191284416733,0.21530191284416733
149.04000000000002,0.2334167600265873,0.2334167600265873
149.041,0.23759644828767446,0.23759644828767446
149.042,0.2273537761071538,0.2273537761071538
149.043,0.20564508640635903,0.20564508640635903
149.044,0.17804690425919056,0.17804690425919056
149.04500000000002,0.15128217050763015,0.15128217050763015
149.04600000000002,0.13150167676329638,0.13150167676329638
149.047,0.12277350283221833,0.12277350283221833
149.048,0.1261592760843686,0.1261592760843686
149.049,0.13958750672054587,0.13958750672054587
149.05,0.15852066677907128,0.15852066677907128
149.05100000000002,0.177211795549286,0.177211795549286
149.05200000000002,0.19020853757155098,0.19020853757155098
149.053,0.19371835252470682,0.19371835252470682
149.054,0.18650319928194659,0.18650319928194659
149.055,0.17010550618435438,0.17010550618435438
149.056,0.1483819439681473,0.1483819439681473
149.05700000000002,0.12649220140341177,0.12649220140341177
149.05800000000002,0.1096152962116208,0.1096152962116208
149.059,0.10171802527908214,0.10171802527908214
149.06,0.10467024723165563,0.10467024723165563
149.061,0.11790129035858232,0.11790129035858232
149.062,0.13864894179980713,0.13864894179980713
149.06300000000002,0.16270446535728733,0.16270446535728733
149.06400000000002,0.18544107004059196,0.18544107004059196
149.065,0.20285707946465448,0.20285707946465448
149.066,0.21238045341337508,0.21238045341337508
149.067,0.2132610364333105,0.2132610364333105
149.068,0.20649681719301172,0.20649681719301172
149.06900000000002,0.19436620131134563,0.19436620131134563
149.07000000000002,0.17973481842251116,0.17973481842251116
149.071,0.1653470319527528,0.1653470319527528
149.072,0.15329022180233975,0.15329022180233975
149.073,0.14474454933458092,0.14474454933458092
149.074,0.14002879613049934,0.14002879613049934
149.07500000000002,0.13885807644456105,0.13885807644456105
149.07600000000002,0.14067238213166666,0.14067238213166666
149.077,0.14489309024283314,0.14489309024283314
149.078,0.15101550460593738,0.15101550460593738
149.079,0.15852840403632418,0.15852840403632418
149.08,0.16673426550088122,0.16673426550088122
149.08100000000002,0.17459419826135036,0.17459419826135036
149.08200000000002,0.18071929192228642,0.18071929192228642
149.083,0.18357424884716145,0.18357424884716145
149.084,0.18186956459277104,0.18186956459277104
149.085,0.1750288169816554,0.1750288169816554
149.086,0.16356343758359038,0.16356343758359038
149.08700000000002,0.14919292170430043,0.14919292170430043
149.088,0.13461695956346342,0.13461695956346342
149.089,0.12295716574536275,0.12295716574536275
149.09,0.11700242760841961,0.11700242760841961
149.091,0.11847153687541567,0.11847153687541567
149.092,0.12751869010397865,0.12751869010397865
149.09300000000002,0.142643353209156,0.142643353209156
149.094,0.16104442902597427,0.16104442902597427
149.095,0.17931947263997827,0.17931947263997827
149.096,0.19430040403739457,0.19430040403739457
149.097,0.20377611531248774,0.20377611531248774
149.098,0.2068945865907541,0.2068945865907541
149.09900000000002,0.20414828906790872,0.20414828906790872
149.1,0.19698765890247105,0.19698765890247105
149.101,0.18722818491679005,0.18722818491679005
149.102,0.17647428925673236,0.17647428925673236
149.103,0.16575794913541064,0.16575794913541064
149.104,0.15549292553850447,0.15549292553850447
149.10500000000002,0.14571453862920092,0.14571453862920092
149.106,0.13646109396948392,0.13646109396948392
149.107,0.128100861191216,0.128100861191216
149.108,0.12143872878316464,0.12143872878316464
149.109,0.11753767017153716,0.11753767017153716
149.11,0.11732155590859294,0.11732155590859294
149.11100000000002,0.12113351797186311,0.12113351797186311
149.112,0.12846125193777258,0.12846125193777258
149.113,0.1379870707402362,0.1379870707402362
149.114,0.1479920987753749,0.1479920987753749
149.115,0.1569886600431385,0.1569886600431385
149.116,0.16433559153897748,0.16433559153897748
149.11700000000002,0.17056167268983513,0.17056167268983513
149.118,0.17720497171639615,0.17720497171639615
149.119,0.18615004895575682,0.18615004895575682
149.12,0.19865131284631232,0.19865131284631232
149.121,0.2143910603039405,0.2143910603039405
149.122,0.2309661096102349,0.2309661096102349
149.12300000000002,0.24409563301229098,0.24409563301229098
149.124,0.2486155066360929,0.2486155066360929
149.125,0.24004151244423988,0.24004151244423988
149.126,0.2162432837485717,0.2162432837485717
149.127,0.17866538497503948,0.17866538497503948
149.128,0.13261364532905007,0.13261364532905007
149.12900000000002,0.08638371155093716,0.08638371155093716
149.13,0.04937086934095647,0.04937086934095647
149.131,0.02964928681927459,0.02964928681927459
149.132,0.0317243488674499,0.0317243488674499
149.133,0.055160615201952146,0.055160615201952146
149.134,0.09455588621810729,0.09455588621810729
149.13500000000002,0.1409324081056098,0.1409324081056098
149.136,0.18417306497807662,0.18417306497807662
149.137,0.2157880327081465,0.2157880327081465
149.138,0.23117295691315864,0.23117295691315864
149.139,0.23066216914806015,0.23066216914806015
149.14,0.21905138202252683,0.21905138202252683
149.14100000000002,0.20374810764964724,0.20374810764964724
149.142,0.19214857326465928,0.19214857326465928
149.143,0.18909186534747757,0.18909186534747757
149.144,0.1952199116423119,0.1952199116423119
149.145,0.2067796916707103,0.2067796916707103
149.14600000000002,0.21693520006136247,0.21693520006136247
149.14700000000002,0.21816388587910374,0.21816388587910374
149.148,0.2049570397456113,0.2049570397456113
149.149,0.17594234142816423,0.17594234142816423
149.15,0.13473203404920686,0.13473203404920686
149.151,0.08920986745501192,0.08920986745501192
149.15200000000002,0.04946851065262803,0.04946851065262803
149.15300000000002,0.02503333157105203,0.02503333157105203
149.154,0.022222029239097996,0.022222029239097996
149.155,0.04242826814571843,0.04242826814571843
149.156,0.08180886187410419,0.08180886187410419
149.157,0.13240640313180618,0.13240640313180618
149.15800000000002,0.18430290182250886,0.18430290182250886
149.15900000000002,0.22811569461494874,0.22811569461494874
149.16,0.2570986480109547,0.2570986480109547
149.161,0.2683005800828919,0.2683005800828919
149.162,0.26258019144285827,0.26258019144285827
149.163,0.2436548224892745,0.2436548224892745
149.16400000000002,0.2166387513075001,0.2166387513075001
149.16500000000002,0.18661845228219343,0.18661845228219343
149.166,0.15770203959798335,0.15770203959798335
149.167,0.1327264855714554,0.1327264855714554
149.168,0.11351640353523051,0.11351640353523051
149.169,0.10137649522341063,0.10137649522341063
149.17000000000002,0.09744441192159115,0.09744441192159115
149.17100000000002,0.10264551373460828,0.10264551373460828
149.172,0.1172215345370533,0.1172215345370533
149.173,0.1400513962951151,0.1400513962951151
149.174,0.16813800280964863,0.16813800280964863
149.175,0.1966289034894202,0.1966289034894202
149.17600000000002,0.21956418203912853,0.21956418203912853
149.17700000000002,0.23126266292394115,0.23126266292394115
149.178,0.22797454723700006,0.22797454723700006
149.179,0.2092581834891898,0.2092581834891898
149.18,0.17855720354779803,0.17855720354779803
149.181,0.1426706104621911,0.1426706104621911
149.18200000000002,0.11015782873591817,0.11015782873591817
149.18300000000002,0.08908569186637649,0.08908569186637649
149.184,0.08477548091485398,0.08477548091485398
149.185,0.09825066893723466,0.09825066893723466
149.186,0.12589499736304122,0.12589499736304122
149.187,0.16046180637258756,0.16046180637258756
149.18800000000002,0.19314844584035762,0.19314844584035762
149.18900000000002,0.2161065332686649,0.2161065332686649
149.19,0.22461631523958814,0.22461631523958814
149.191,0.2182613866316243,0.2182613866316243
149.192,0.2007640530776582,0.2007640530776582
149.193,0.17857407934098268,0.17857407934098268
149.19400000000002,0.15870033554381302,0.15870033554381302
149.19500000000002,0.14650453891197945,0.14650453891197945
149.196,0.14416491472563675,0.14416491472563675
149.197,0.15027330949698725,0.15027330949698725
149.198,0.16063863019085023,0.16063863019085023
149.199,0.16996682932308027,0.16996682932308027
149.20000000000002,0.17380863740418628,0.17380863740418628
149.20100000000002,0.17010149033435495,0.17010149033435495
149.202,0.1597972536948853,0.1597972536948853
149.203,0.1463994197022569,0.1463994197022569
149.204,0.13461426215010142,0.13461426215010142
149.205,0.1286184636818466,0.1286184636818466
149.20600000000002,0.13056155070489628,0.13056155070489628
149.20700000000002,0.13982096094120333,0.13982096094120333
149.208,0.15325176350956315,0.15325176350956315
149.209,0.1663218695979194,0.1663218695979194
149.21,0.1747197567471388,0.1747197567471388
149.211,0.17586804137245404,0.17586804137245404
149.21200000000002,0.1698208580512035,0.1698208580512035
149.213,0.15924483524644262,0.15924483524644262
149.214,0.14850165248057712,0.14850165248057712
149.215,0.14215381857058706,0.14215381857058706
149.216,0.14340231234062362,0.14340231234062362
149.217,0.15297609861138595,0.15297609861138595
149.21800000000002,0.1688316740181508,0.1688316740181508
149.219,0.1867460854228875,0.1867460854228875
149.22,0.2015947434509926,0.2015947434509926
149.221,0.2088926724353215,0.2088926724353215
149.222,0.20611041840600408,0.20611041840600408
149.223,0.19336823347851362,0.19336823347851362
149.22400000000002,0.17332576332933458,0.17332576332933458
149.225,0.15034351360397258,0.15034351360397258
149.226,0.1292112624048185,0.1292112624048185
149.227,0.11385060253402579,0.11385060253402579
149.228,0.10637644581230021,0.10637644581230021
149.229,0.10676314072947823,0.10676314072947823
149.23000000000002,0.11315794359194142,0.11315794359194142
149.231,0.12268635607044986,0.12268635607044986
149.232,0.1324607428395448,0.1324607428395448
149.233,0.14046984291586884,0.14046984291586884
149.234,0.14609236080749666,0.14609236080749666
149.235,0.15011274308834133,0.15011274308834133
149.23600000000002,0.1542744008223227,0.1542744008223227
149.237,0.16053737600188045,0.16053737600188045
149.238,0.17027976422657987,0.17027976422657987
149.239,0.18368239004145082,0.18368239004145082
149.24,0.19947276235313605,0.19947276235313605
149.241,0.21510062814594155,0.21510062814594155
149.24200000000002,0.22730286164952007,0.22730286164952007
149.243,0.23291710112675057,0.23291710112675057
149.244,0.22974120608857995,0.22974120608857995
149.245,0.21721984215089551,0.21721984215089551
149.246,0.19677226846136286,0.19677226846136286
149.247,0.1716511160247196,0.1716511160247196
149.24800000000002,0.14632802611644524,0.14632802611644524
149.249,0.12551908337502038,0.12551908337502038
149.25,0.11306591615753248,0.11306591615753248
149.251,0.11094977145620843,0.11094977145620843
149.252,0.11871260717814658,0.11871260717814658
149.253,0.13348054685269473,0.13348054685269473
149.25400000000002,0.1506398948514549,0.1506398948514549
149.255,0.16503562830082452,0.16503562830082452
149.256,0.17239571447388546,0.17239571447388546
149.257,0.17058559656385297,0.17058559656385297
149.258,0.16030719133570281,0.16030719133570281
149.259,0.1449881243795068,0.1449881243795068
149.26000000000002,0.129833583096568,0.129833583096568
149.261,0.12027328228263823,0.12027328228263823
149.262,0.12024817073240901,0.12024817073240901
149.263,0.13087013013835014,0.13087013013835014
149.264,0.14991042966240586,0.14991042966240586
149.265,0.17233824981164925,0.17233824981164925
149.26600000000002,0.19180280670946104,0.19180280670946104
149.267,0.20263333709398523,0.20263333709398523
149.268,0.2017289833366367,0.2017289833366367
149.269,0.18970361365825594,0.18970361365825594
149.27,0.1708567297321688,0.1708567297321688
149.27100000000002,0.15190710341744795,0.15190710341744795
149.27200000000002,0.13983803832464936,0.13983803832464936
149.273,0.13952515646334573,0.13952515646334573
149.274,0.1519335802639168,0.1519335802639168
149.275,0.17352830380974416,0.17352830380974416
149.276,0.1971717187116102,0.1971717187116102
149.27700000000002,0.21429760387157004,0.21429760387157004
149.27800000000002,0.21770925663961682,0.21770925663961682
149.279,0.20410298092362988,0.20410298092362988
149.28,0.17546072429831505,0.17546072429831505
149.281,0.13878762740233186,0.13878762740233186
149.282,0.10419370645753245,0.10419370645753245
149.28300000000002,0.08186652352563129,0.08186652352563129
149.28400000000002,0.0788708142952792,0.0788708142952792
149.285,0.09680512719123202,0.09680512719123202
149.286,0.13110240925782657,0.13110240925782657
149.287,0.17225096496202186,0.17225096496202186
149.288,0.20859609000087986,0.20859609000087986
149.28900000000002,0.22986267304395458,0.22986267304395458
149.29000000000002,0.23028975168234767,0.23028975168234767
149.291,0.21037727629065084,0.21037727629065084
149.292,0.17668288185020042,0.17668288185020042
149.293,0.13973189672684572,0.13973189672684572
149.294,0.11071223367058303,0.11071223367058303
149.29500000000002,0.09801600975277869,0.09801600975277869
149.29600000000002,0.10473202298186046,0.10473202298186046
149.297,0.1278735921559273,0.1278735921559273
149.298,0.15955176423382467,0.15955176423382467
149.299,0.18966673000258072,0.18966673000258072
149.3,0.2092029817927905,0.2092029817927905
149.30100000000002,0.21303720301693674,0.21303720301693674
149.30200000000002,0.20135709546777547,0.20135709546777547
149.303,0.1792753629452708,0.1792753629452708
149.304,0.1548373209181526,0.1548373209181526
149.305,0.13615325390200317,0.13615325390200317
149.306,0.12865864841730335,0.12865864841730335
149.30700000000002,0.1334294565698515,0.1334294565698515
149.30800000000002,0.1470887903881768,0.1470887903881768
149.309,0.1632766180254306,0.1632766180254306
149.31,0.17511334067662587,0.17511334067662587
149.311,0.1777579609779154,0.1777579609779154
149.312,0.1701520916268826,0.1701520916268826
149.31300000000002,0.155349177117156,0.155349177117156
149.31400000000002,0.13934040326747388,0.13934040326747388
149.315,0.12882203630439948,0.12882203630439948
149.316,0.12871622796264082,0.12871622796264082
149.317,0.14033267252204507,0.14033267252204507
149.318,0.16082025753933338,0.16082025753933338
149.31900000000002,0.18409467552637815,0.18409467552637815
149.32000000000002,0.20290604029190895,0.20290604029190895
149.321,0.21131405054044494,0.21131405054044494
149.322,0.20670436475866816,0.20670436475866816
149.323,0.1906513645762209,0.1906513645762209
149.324,0.16834422563940565,0.16834422563940565
149.32500000000002,0.1467967972690376,0.1467967972690376
149.32600000000002,0.132479217419329,0.132479217419329
149.327,0.12919600203621529,0.12919600203621529
149.328,0.1369308660801507,0.1369308660801507
149.329,0.15202562868295066,0.15202562868295066
149.33,0.16858850497585665,0.16858850497585665
149.33100000000002,0.1806042204869771,0.1806042204869771
149.33200000000002,0.18399183356413396,0.18399183356413396
149.333,0.17790031651032545,0.17790031651032545
149.334,0.16482379180887574,0.16482379180887574
149.335,0.14954777371740313,0.14954777371740313
149.336,0.13734883181286417,0.13734883181286417
149.33700000000002,0.1321174298805745,0.1321174298805745
149.338,0.13507416416488094,0.13507416416488094
149.339,0.14451050693133594,0.14451050693133594
149.34,0.1565993859323822,0.1565993859323822
149.341,0.16693171336886015,0.16693171336886015
149.342,0.17218313454521672,0.17218313454521672
149.34300000000002,0.17128848267112007,0.17128848267112007
149.344,0.16570370921772626,0.16570370921772626
149.345,0.15868700652133416,0.15868700652133416
149.346,0.1539000810801714,0.1539000810801714
149.347,0.15388083051532275,0.15388083051532275
149.348,0.158979594297594,0.158979594297594
149.34900000000002,0.16717034471914416,0.16717034471914416
149.35,0.17481483844122137,0.17481483844122137
149.351,0.17809631619196087,0.17809631619196087
149.352,0.17458353707141971,0.17458353707141971
149.353,0.16432988346898414,0.16432988346898414
149.354,0.15007652081533362,0.15007652081533362
149.35500000000002,0.13645317064300566,0.13645317064300566
149.356,0.12843675766663765,0.12843675766663765
149.357,0.12960377614959095,0.12960377614959095
149.358,0.14079665635232042,0.14079665635232042
149.359,0.1596867783011795,0.1596867783011795
149.36,0.18140600332606205,0.18140600332606205
149.36100000000002,0.2000454161581371,0.2000454161581371
149.362,0.2105169274001608,0.2105169274001608
149.363,0.21014736501842757,0.21014736501842757
149.364,0.19946911274233337,0.19946911274233337
149.365,0.1819514063419525,0.1819514063419525
149.366,0.16278218974684822,0.16278218974684822
149.36700000000002,0.147133125837958,0.147133125837958
149.368,0.13850802171420806,0.13850802171420806
149.369,0.13773171903895887,0.13773171903895887
149.37,0.14290137546702497,0.14290137546702497
149.371,0.1502807837477731,0.1502807837477731
149.372,0.15579210474782523,0.15579210474782523
149.37300000000002,0.15656145964847146,0.15656145964847146
149.374,0.1519711690596175,0.1519711690596175
149.375,0.14385856873628544,0.14385856873628544
149.376,0.1358092838266316,0.1358092838266316
149.377,0.1318112753898273,0.1318112753898273
149.378,0.13475385673897677,0.13475385673897677
149.37900000000002,0.14530029257602317,0.14530029257602317
149.38,0.16152306433288843,0.16152306433288843
149.381,0.17942111322713084,0.17942111322713084
149.382,0.1941354560232238,0.1941354560232238
149.383,0.20144872264950964,0.20144872264950964
149.384,0.1990718344088318,0.1990718344088318
149.38500000000002,0.18730942395107975,0.18730942395107975
149.386,0.16891711920506136,0.16891711920506136
149.387,0.14823674034192158,0.14823674034192158
149.388,0.1299243182112939,0.1299243182112939
149.389,0.11769531465669725,0.11769531465669725
149.39,0.11347160280067459,0.11347160280067459
149.39100000000002,0.11714922825371743,0.11714922825371743
149.392,0.1269805892971516,0.1269805892971516
149.393,0.14036200684586908,0.14036200684586908
149.394,0.1547067578734791,0.1547067578734791
149.395,0.16809627716133213,0.16809627716133213
149.39600000000002,0.1795236947984027,0.1795236947984027
149.39700000000002,0.18872107783965686,0.18872107783965686
149.398,0.19572473016734215,0.19572473016734215
149.399,0.2004214207699433,0.2004214207699433
149.4,0.2023035879563495,0.2023035879563495
149.401,0.20055503611509984,0.20055503611509984
149.40200000000002,0.19443629877626778,0.19443629877626778
149.40300000000002,0.18380221133618768,0.18380221133618768
149.404,0.1695167976078007,0.1695167976078007
149.405,0.1535579672053462,0.1535579672053462
149.406,0.1387157826971277,0.1387157826971277
149.407,0.12794070425946624,0.12794070425946624
149.40800000000002,0.12353482364078472,0.12353482364078472
149.40900000000002,0.1264488429609274,0.1264488429609274
149.41,0.135924718958367,0.135924718958367
149.411,0.14961660721130654,0.14961660721130654
149.412,0.16416915229404627,0.16416915229404627
149.413,0.17608591040049815,0.17608591040049815
149.41400000000002,0.18263131200273675,0.18263131200273675
149.41500000000002,0.18250523696905985,0.18250523696905985
149.416,0.17610784805494695,0.17610784805494695
149.417,0.16534367010452033,0.16534367010452033
149.418,0.15305195886690104,0.15305195886690104
149.419,0.14225020605366412,0.14225020605366412
149.42000000000002,0.13541076917926453,0.13541076917926453
149.42100000000002,0.133953712660982,0.133953712660982
149.422,0.13805249404201314,0.13805249404201314
149.423,0.14674785877520868,0.14674785877520868
149.424,0.15828426847608412,0.15828426847608412
149.425,0.17054507451299328,0.17054507451299328
149.42600000000002,0.18147106270628788,0.18147106270628788
149.42700000000002,0.18938773916820306,0.18938773916820306
149.428,0.19321596034702848,0.19321596034702848
149.429,0.19257594848362447,0.19257594848362447
149.43,0.18780509002050638,0.18780509002050638
149.431,0.17989872536643592,0.17989872536643592
149.43200000000002,0.17036562104156228,0.17036562104156228
149.43300000000002,0.16098438040616658,0.16098438040616658
149.434,0.15346535085159463,0.15346535085159463
149.435,0.14906261465302983,0.14906261465302983
149.436,0.14822612368844568,0.14822612368844568
149.437,0.1504106850085647,0.1504106850085647
149.43800000000002,0.15414490117135982,0.15414490117135982
149.43900000000002,0.15740166570991976,0.15740166570991976
149.44,0.1582147654560082,0.1582147654560082
149.441,0.15538427160716384,0.15538427160716384
149.442,0.14904611768322895,0.14904611768322895
149.443,0.1408820070595358,0.1408820070595358
149.44400000000002,0.13382777152679592,0.13382777152679592
149.44500000000002,0.13128625333650468,0.13128625333650468
149.446,0.13602260642375974,0.13602260642375974
149.447,0.14905856230776449,0.14905856230776449
149.448,0.16893444259273016,0.16893444259273016
149.449,0.191643496096763,0.191643496096763
149.45000000000002,0.2113688245730192,0.2113688245730192
149.45100000000002,0.22191311615835163,0.22191311615835163
149.452,0.21847678788404679,0.21847678788404679
149.453,0.19928755240291873,0.19928755240291873
149.454,0.16657106901337237,0.16657106901337237
149.455,0.1264957506254647,0.1264957506254647
149.45600000000002,0.08799418756634525,0.08799418756634525
149.45700000000002,0.060686339724310256,0.060686339724310256
149.458,0.05241130794491422,0.05241130794491422
149.459,0.06702731604619272,0.06702731604619272
149.46,0.10310974118334726,0.10310974118334726
149.461,0.15396301901494924,0.15396301901494924
149.46200000000002,0.20901736847505692,0.20901736847505692
149.463,0.25629991448247424,0.25629991448247424
149.464,0.2853605796447094,0.2853605796447094
149.465,0.2898871844051891,0.2898871844051891
149.466,0.269307847166359,0.269307847166359
149.467,0.22893899418685715,0.22893899418685715
149.46800000000002,0.17862446462649872,0.17862446462649872
149.469,0.13021846810147752,0.13021846810147752
149.47,0.09457876905884866,0.09457876905884866
149.471,0.07886833296990137,0.07886833296990137
149.472,0.08487657312720565,0.08487657312720565
149.473,0.10878963546576248,0.10878963546576248
149.47400000000002,0.1424417812183052,0.1424417812183052
149.475,0.17567786538419727,0.17567786538419727
149.476,0.1991617093332858,0.1991617093332858
149.477,0.20685748754373412,0.20685748754373412
149.478,0.19751843845449768,0.19751843845449768
149.479,0.17480617566678558,0.17480617566678558
149.48000000000002,0.146051117765162,0.146051117765162
149.481,0.12004031758677192,0.12004031758677192
149.482,0.10447851648075268,0.10447851648075268
149.483,0.10384130121544954,0.10384130121544954
149.484,0.1182092864579436,0.1182092864579436
149.485,0.14338032412872348,0.14338032412872348
149.48600000000002,0.17218884653032918,0.17218884653032918
149.487,0.1966233251423688,0.1966233251423688
149.488,0.2101195011339878,0.2101195011339878
149.489,0.20937590926439276,0.20937590926439276
149.49,0.19519333541697415,0.19519333541697415
149.491,0.17213187672654517,0.17213187672654517
149.49200000000002,0.14712083237658158,0.14712083237658158
149.493,0.12744845627400236,0.12744845627400236
149.494,0.11871855824079192,0.11871855824079192
149.495,0.12334762548212264,0.12334762548212264
149.496,0.13999979593405798,0.13999979593405798
149.497,0.16407502666184404,0.16407502666184404
149.49800000000002,0.18906424161701585,0.18906424161701585
149.499,0.20835238437916304,0.20835238437916304
149.5,0.2169502204394771,0.2169502204394771
149.501,0.21269009173245812,0.21269009173245812
149.502,0.1966041994625991,0.1966041994625991
149.503,0.1724538276687666,0.1724538276687666
149.50400000000002,0.14561558589086898,0.14561558589086898
149.505,0.12168669016819567,0.12168669016819567
149.506,0.10520618221025257,0.10520618221025257
149.507,0.09880416899652622,0.09880416899652622
149.508,0.10292552240181108,0.10292552240181108
149.509,0.11608912134109595,0.11608912134109595
149.51000000000002,0.1355001945027594,0.1355001945027594
149.511,0.1577728950280235,0.1577728950280235
149.512,0.17955129615190035,0.17955129615190035
149.513,0.1979146301646475,0.1979146301646475
149.514,0.21057006381102505,0.21057006381102505
149.515,0.2159238949835658,0.2159238949835658
149.51600000000002,0.21314624683565553,0.21314624683565553
149.517,0.2023002109566423,0.2023002109566423
149.518,0.18451875038631016,0.18451875038631016
149.519,0.16212549817807553,0.16212549817807553
149.52,0.13855388378175082,0.13855388378175082
149.52100000000002,0.11794995333669767,0.11794995333669767
149.52200000000002,0.10444487746127518,0.10444487746127518
149.523,0.10121969132298014,0.10121969132298014
149.524,0.10960422654237689,0.10960422654237689
149.525,0.12850197548580877,0.12850197548580877
149.526,0.15438176495930644,0.15438176495930644
149.52700000000002,0.18193012284784849,0.18193012284784849
149.52800000000002,0.2052565751687685,0.2052565751687685
149.529,0.2193538317133521,0.2193538317133521
149.53,0.22140404245657708,0.22140404245657708
149.531,0.2115366080471599,0.2115366080471599
149.532,0.19278743173271073,0.19278743173271073
149.53300000000002,0.17024410471665252,0.17024410471665252
149.53400000000002,0.14961297692856546,0.14961297692856546
149.535,0.13562954337204491,0.13562954337204491
149.536,0.13078912066469428,0.13078912066469428
149.537,0.13477819670722502,0.13477819670722502
149.538,0.14476669170920142,0.14476669170920142
149.53900000000002,0.15644860225558976,0.15644860225558976
149.54000000000002,0.16548295804068758,0.16548295804068758
149.541,0.16886692129189163,0.16886692129189163
149.542,0.16580774593143777,0.16580774593143777
149.543,0.15783710888479874,0.15783710888479874
149.544,0.14816860692169564,0.14816860692169564
149.54500000000002,0.14054845007629901,0.14054845007629901
149.54600000000002,0.13800581194339512,0.13800581194339512
149.547,0.14192155343189872,0.14192155343189872
149.548,0.15170200350012686,0.15170200350012686
149.549,0.16511890379386673,0.16511890379386673
149.55,0.17914053780264094,0.17914053780264094
149.55100000000002,0.19091763271284368,0.19091763271284368
149.55200000000002,0.19855724891683968,0.19855724891683968
149.553,0.2014258070703725,0.2014258070703725
149.554,0.19992433705816892,0.19992433705816892
149.555,0.1948957059810179,0.1948957059810179
149.556,0.18697044361657,0.18697044361657
149.55700000000002,0.1761768941281585,0.1761768941281585
149.55800000000002,0.16202378015678942,0.16202378015678942
149.559,0.14405310010755312,0.14405310010755312
149.56,0.12264037176139508,0.12264037176139508
149.561,0.09967667300993921,0.09967667300993921
149.562,0.07876523685133274,0.07876523685133274
149.56300000000002,0.06471552930320179,0.06471552930320179
149.56400000000002,0.06237275567753042,0.06237275567753042
149.565,0.0750905469209937,0.0750905469209937
149.566,0.10333769737905407,0.10333769737905407
149.567,0.1439505177224394,0.1439505177224394
149.568,0.19037986484742309,0.19037986484742309
149.56900000000002,0.23398077367564607,0.23398077367564607
149.57000000000002,0.2660497782366191,0.2660497782366191
149.571,0.2800474303072329,0.2800474303072329
149.572,0.27334746487042705,0.27334746487042705
149.573,0.24797033437181182,0.24797033437181182
149.574,0.21005658817058648,0.21005658817058648
149.57500000000002,0.16822087524397267,0.16822087524397267
149.57600000000002,0.13127409849324767,0.13127409849324767
149.577,0.10599401285894383,0.10599401285894383
149.578,0.09559845176108062,0.09559845176108062
149.579,0.0993389458627878,0.0993389458627878
149.58,0.11326541809318758,0.11326541809318758
149.58100000000002,0.13183860603062691,0.13183860603062691
149.58200000000002,0.14981116215058177,0.14981116215058177
149.583,0.16374473795590605,0.16374473795590605
149.584,0.1726922290706865,0.1726922290706865
149.585,0.17789076255456915,0.17789076255456915
149.586,0.18166835171392282,0.18166835171392282
149.58700000000002,0.1860393785570451,0.1860393785570451
149.588,0.19155700571871837,0.19155700571871837
149.589,0.19687480458429163,0.19687480458429163
149.59,0.19919039642957448,0.19919039642957448
149.591,0.1954037635522694,0.1954037635522694
149.592,0.1835460090808605,0.1835460090808605
149.59300000000002,0.16392123131435232,0.16392123131435232
149.594,0.13949614851655467,0.13949614851655467
149.595,0.11533671659386258,0.11533671659386258
149.596,0.09723375300543724,0.09723375300543724
149.597,0.08995781404866454,0.08995781404866454
149.598,0.09573010261238468,0.09573010261238468
149.59900000000002,0.11343751640843203,0.11343751640843203
149.6,0.13887523901339738,0.13887523901339738
149.601,0.16595447619980197,0.16595447619980197
149.602,0.1884866355633068,0.1884866355633068
149.603,0.20196201783619738,0.20196201783619738
149.604,0.20474754153596253,0.20474754153596253
149.60500000000002,0.1983306492507526,0.1983306492507526
149.606,0.1865634605769293,0.1865634605769293
149.607,0.17419800620416503,0.17419800620416503
149.608,0.16523356480580498,0.16523356480580498
149.609,0.1616431134303311,0.1616431134303311
149.61,0.1628955528766287,0.1628955528766287
149.61100000000002,0.16640026685913956,0.16640026685913956
149.612,0.16867502577697358,0.16867502577697358
149.613,0.166791793143364,0.166791793143364
149.614,0.15957193059453423,0.15957193059453423
149.615,0.14810758257445156,0.14810758257445156
149.616,0.13543768020243063,0.13543768020243063
149.61700000000002,0.12551236614971972,0.12551236614971972
149.618,0.12182922972359944,0.12182922972359944
149.619,0.1262314499741457,0.1262314499741457
149.62,0.13828750145552138,0.13828750145552138
149.621,0.15545408991486553,0.15545408991486553
149.622,0.17394001223015998,0.17394001223015998
149.62300000000002,0.189941961545389,0.189941961545389
149.624,0.20080154744484924,0.20080154744484924
149.625,0.20567686690396347,0.20567686690396347
149.626,0.2055122560531799,0.2055122560531799
149.627,0.20235446125783563,0.20235446125783563
149.628,0.19830491002118755,0.19830491002118755
149.62900000000002,0.19452845162222343,0.19452845162222343
149.63,0.19071251405552636,0.19071251405552636
149.631,0.18519803050739436,0.18519803050739436
149.632,0.17574831339265562,0.17574831339265562
149.633,0.16067715064181565,0.16067715064181565
149.634,0.13991142575087245,0.13991142575087245
149.63500000000002,0.11556949991262111,0.11556949991262111
149.636,0.09179335699001712,0.09179335699001712
149.637,0.07382591458746068,0.07382591458746068
149.638,0.06658725029587775,0.06658725029587775
149.639,0.07318451921952729,0.07318451921952729
149.64,0.09382843562170962,0.09382843562170962
149.64100000000002,0.1255119970977936,0.1255119970977936
149.642,0.16257465842766972,0.16257465842766972
149.643,0.19800490571325202,0.19800490571325202
149.644,0.22511393460304174,0.22511393460304174
149.645,0.23911134821662317,0.23911134821662317
149.64600000000002,0.23815770211303766,0.23815770211303766
149.64700000000002,0.22363741305242324,0.22363741305242324
149.648,0.19962949959355059,0.19962949959355059
149.649,0.17177664258900882,0.17177664258900882
149.65,0.14589831509076068,0.14589831509076068
149.651,0.12672478812667443,0.12672478812667443
149.65200000000002,0.11704877571986305,0.11704877571986305
149.65300000000002,0.11743809333397914,0.11743809333397914
149.654,0.12648225960006565,0.12648225960006565
149.655,0.14141255123058571,0.14141255123058571
149.656,0.15887278360938217,0.15887278360938217
149.657,0.1756325289654712,0.1756325289654712
149.65800000000002,0.18910482292554964,0.18910482292554964
149.65900000000002,0.19762103819039956,0.19762103819039956
149.66,0.2004913376705728,0.2004913376705728
149.661,0.1979181352953283,0.1979181352953283
149.662,0.19082976890198888,0.19082976890198888
149.663,0.18067634603168403,0.18067634603168403
149.66400000000002,0.16920134762460548,0.16920134762460548
