Czas,Sum
55.867,0.06139161724903212
55.868,0.0689001391299429
55.869,0.06688083764923765
55.87,0.05569999434337014
55.871,0.03740952531155881
55.872,0.015141972810836846
55.873,0.007694646645917353
55.874,0.028164965615210924
55.875,0.04428287584056339
55.876,0.055114961025163244
55.876999999999995,0.06054939264051552
55.878,0.06088539730179003
55.879,0.05644955793432158
55.879999999999995,0.04741426930988054
55.881,0.03389441389877934
55.882,0.016269868692648244
55.882999999999996,0.004426213876857415
55.884,0.026257887491239956
55.885,0.04644246361986879
55.885999999999996,0.06177071971374665
55.887,0.06930976132636435
55.888,0.06718686614259345
55.888999999999996,0.05519854608014419
55.89,0.035024491238154126
55.891,0.009942570230931378
55.891999999999996,0.015899451389325876
55.893,0.03845215223999337
55.894,0.05468574042820018
55.894999999999996,0.06318888625226704
55.896,0.06427418777123999
55.897,0.05958244199433012
55.897999999999996,0.051343669348244726
55.899,0.04156369476548419
55.9,0.031421954601745336
55.900999999999996,0.021082627410108197
55.902,0.009966117917052417
55.903,0.0026440231593420883
55.903999999999996,0.016911116914023295
55.905,0.03196114149515351
55.906,0.045823630437243926
55.907,0.055864088510581576
55.908,0.05959062256089111
55.909,0.05556795942269062
55.91,0.04411131742334329
55.911,0.027485673699478456
55.912,0.009488731271695701
55.913,0.005500807189070169
55.914,0.013742210579726771
55.915,0.013247019066213369
55.916,0.004431580274357387
55.917,0.009916566164267102
55.918,0.0253731538831476
55.919,0.03710769987820269
55.92,0.04124723482012699
55.921,0.035965647986001596
55.922,0.021974502383163882
55.923,0.0022761538243196064
55.924,0.01873305810954436
55.925,0.036525561526262185
55.926,0.04768364310337887
55.927,0.05075127815089137
55.928,0.04646325731125413
55.929,0.03732041320230824
55.93,0.026683287815004328
55.931,0.017696246887081525
55.932,0.012387595586589925
55.933,0.011212509477331897
55.934,0.01314531555867942
55.935,0.016242090637241562
55.936,0.01844590564539895
55.937,0.01834263815801976
55.937999999999995,0.015612298742217208
55.939,0.011041779772833295
55.94,0.006124890931873433
55.940999999999995,0.0024183112058378297
55.942,0.0008996806180597624
55.943,0.0015626587748570236
55.943999999999996,0.0033909326136708027
55.945,0.004714033389821876
55.946,0.0038122062583743747
55.946999999999996,0.0004476984953394097
55.948,0.008170340918214624
55.949,0.01833768081016483
55.949999999999996,0.02909327302697057
55.951,0.03830534049251319
55.952,0.04421567376187342
55.952999999999996,0.045956398163309924
55.954,0.04376642431358459
55.955,0.03884475236369923
55.955999999999996,0.032901183987736386
55.957,0.027563970353894914
55.958,0.023845835398286358
55.958999999999996,0.02184259705931562
55.96,0.020754147927714944
55.961,0.019206705242284208
55.961999999999996,0.01575652628010597
55.963,0.009401418531835808
55.964,6.670424337962176e-05
55.964999999999996,0.011972808262601909
55.966,0.024944598802209953
55.967,0.03729375279330549
55.967999999999996,0.047455465843672884
55.969,0.054342532071403625
55.97,0.057513112830454835
55.971,0.057125400225224936
55.972,0.05372908291184514
55.973,0.04799516395774042
55.974,0.040495242922051894
55.975,0.03160821024768686
55.976,0.021571660884196767
55.977,0.010632088335390234
55.978,0.0007930531513818093
55.979,0.012031513344825155
55.98,0.022205637087854866
55.981,0.030411102926251234
55.982,0.03596227628774716
55.983,0.03860657882882899
55.984,0.0386143069017114
55.985,0.03669325302124135
55.986,0.03374406768620599
55.987,0.030537511835239804
55.988,0.027432960195191702
55.989,0.024252158604210823
55.99,0.02037240151527899
55.991,0.015024736072046014
55.992,0.00770288026857327
55.993,0.0014632413128064445
55.994,0.011518074323164455
55.995,0.02077277823249474
55.996,0.02718653202576566
55.997,0.028943218017343047
55.998,0.025053120798722177
55.999,0.01578441491347395
56.0,0.0027679000428824335
56.001,0.011288612903880354
56.001999999999995,0.02322054310025807
56.003,0.030197796907139328
56.004,0.03046243156437255
56.004999999999995,0.02379534583214393
56.006,0.011569902140831905
56.007,0.0036283911505418797
56.007999999999996,0.01870714272791629
56.009,0.030890445303355066
56.01,0.03841864972313667
56.010999999999996,0.0409222368011195
56.012,0.03936892357899381
56.013,0.03561484799603268
56.013999999999996,0.03171136745387981
56.015,0.029191083564190517
56.016,0.028558170590643056
56.016999999999996,0.02913939947831199
56.018,0.029335952801491247
56.019,0.027189418641319532
56.019999999999996,0.021078099568378514
56.021,0.010321848233996811
56.022,0.004494340406777234
56.022999999999996,0.021577385791393032
56.024,0.03834416493115778
56.025,0.05207098706535297
56.025999999999996,0.06057816113575825
56.027,0.06274902830114036
56.028,0.05874019851106275
56.028999999999996,0.0498386150587129
56.03,0.038029069017642796
56.031,0.025418920623269795
56.032,0.013700324973229339
56.033,0.0038061812564100703
56.034,0.004155145489566249
56.035,0.010694627962144721
56.036,0.01656001541126927
56.037,0.02231886748418803
56.038,0.028051143442942437
56.039,0.03324995248914756
56.04,0.03695461136228114
56.041,0.038062273659105444
56.042,0.03570845271248875
56.043,0.02958957584348197
56.044,0.020125536373909556
56.045,0.008416411146734531
56.046,0.003985192095024894
56.047,0.015408994541027999
56.048,0.024405301286819024
56.049,0.02999192338014325
56.05,0.031754127898277695
56.051,0.029795549972128885
56.052,0.02458656161391038
56.053,0.016783586826926464
56.054,0.007090285625844528
56.055,0.0037975941065541657
56.056,0.015165051095751145
56.057,0.02620961654907826
56.058,0.03599435906986374
56.059,0.04347809444203101
56.06,0.0476471791916166
56.061,0.047727988570356705
56.062,0.043417476170597935
56.063,0.03504777078023627
56.064,0.023609630930126753
56.065,0.010598246482195667
56.065999999999995,0.002298031811185625
56.067,0.013588753613546948
56.068,0.022338717412744426
56.068999999999996,0.028376839997333224
56.07,0.032279056252012335
56.071,0.03511434900673314
56.071999999999996,0.03801917509249956
56.073,0.04172692713375867
56.074,0.04620437867885615
56.074999999999996,0.05052526693765515
56.076,0.05304569268449193
56.077,0.05185454328597414
56.077999999999996,0.045381856332335616
56.079,0.03298757956194805
56.08,0.015343694357219242
56.080999999999996,0.005529287800077874
56.082,0.026615829792270843
56.083,0.044578154344459296
56.083999999999996,0.056576057954676975
56.085,0.06100545820319319
56.086,0.05793670432325515
56.086999999999996,0.04910943047203686
56.088,0.037463789716688005
56.089,0.026323739210302854
56.089999999999996,0.018456409437359093
56.091,0.015278475145889916
56.092,0.01644872031226908
56.092999999999996,0.019981416887854837
56.094,0.022865716266325782
56.095,0.022024768403134574
56.096,0.015340024687029543
56.097,0.002435353808154949
56.098,0.01502546919332125
56.099,0.033639806491009394
56.1,0.049104877880926545
56.101,0.05737247422030553
56.102,0.05579733607817183
56.103,0.04394813027210129
56.104,0.023838243149827736
56.105,0.0005048455066627501
56.106,0.02402426436742223
56.107,0.041904823764484116
56.108,0.050778406707297406
56.109,0.049529057718838275
56.11,0.03947799943343299
56.111,0.02390752553012449
56.112,0.007072462427509166
56.113,0.007007583191832608
56.114,0.01562525115245617
56.115,0.01802883143978224
56.116,0.01546449736510107
56.117,0.010631484549810898
56.118,0.006736850125681963
56.119,0.0064480669393636916
56.12,0.011060270778687655
56.121,0.020117535070226403
56.122,0.031580723893168336
56.123,0.04246556282923882
56.124,0.04973627085906557
56.125,0.05117386733195266
56.126,0.04596157839971681
56.126999999999995,0.034831318053627616
56.128,0.01975946721898633
56.129,0.0033395187139837403
56.129999999999995,0.01195034895810573
56.131,0.024351306089649773
56.132,0.033126470191906926
56.132999999999996,0.038501256283316326
56.134,0.041304885946532026
56.135,0.042470845599968006
56.135999999999996,0.04258881008843958
56.137,0.04166726739104436
56.138,0.03917982973832543
56.138999999999996,0.03436135212630669
56.14,0.026630451001201042
56.141,0.015973151772812583
56.141999999999996,0.0031407668142757633
56.143,0.01041513064828774
56.144,0.02285301490195475
56.144999999999996,0.03239374936287961
56.146,0.03776487200597531
56.147,0.03849364951794065
56.147999999999996,0.03496193364134324
56.149,0.02821971646500264
56.15,0.019635223099984056
56.150999999999996,0.010509034244259769
56.152,0.0017819560945920168
56.153,0.00607741926158782
56.153999999999996,0.012991396893204407
56.155,0.019056646097347987
56.156,0.024297690571045336
56.157,0.028500218796225663
56.158,0.031196243960891414
56.159,0.03180856487326992
56.16,0.029895726193553757
56.161,0.025396014291519883
56.162,0.018765989640214777
56.163,0.010946642278641863
56.164,0.0031542357507120494
56.165,0.0034407370337649406
56.166,0.008039142324039959
56.167,0.010430945135212942
56.168,0.011028565591174074
56.169,0.010703070567506048
56.17,0.010478883396458544
56.171,0.011191097950134362
56.172,0.013220551470195201
56.173,0.016392016410093597
56.174,0.0200615830826268
56.175,0.023352453323943916
56.176,0.02544828241873198
56.177,0.025837669197953425
56.178,0.024427181661349138
56.179,0.02149361744978492
56.18,0.017508472979852682
56.181,0.012915266560937761
56.182,0.007955658225708944
56.183,0.0026178300311004345
56.184,0.003270765398509138
56.185,0.00984460800818186
56.186,0.016979811232466523
56.187,0.02415085850134748
56.188,0.03043862989231891
56.189,0.0347096756886769
56.19,0.035921968648972916
56.190999999999995,0.03346098207897678
56.192,0.027391158340430103
56.193,0.018529367005977248
56.193999999999996,0.008302130654423591
56.195,0.0015814760900899954
56.196,0.009548319838888772
56.196999999999996,0.01454710552088764
56.198,0.016287024138945054
56.199,0.015260710031928911
56.199999999999996,0.0125502289328544
56.201,0.009480422497020266
56.202,0.007226834990955617
56.202999999999996,0.006493021222864837
56.204,0.0073440460942217345
56.205,0.009230922528474324
56.205999999999996,0.011183079373683078
56.207,0.012101317251152214
56.208,0.011064444050826547
56.208999999999996,0.007571330902712647
56.21,0.0016693170436376014
56.211,0.006043307146417064
56.211999999999996,0.014521899394349783
56.213,0.022451408230396663
56.214,0.02845637698910495
56.214999999999996,0.03131604821940667
56.216,0.030165189181654246
56.217,0.024665007644917202
56.217999999999996,0.015124485013201369
56.219,0.002544797993995527
56.22,0.011443552461152705
56.221,0.024771769404791453
56.222,0.03524759189522778
56.223,0.04095311584943032
56.224,0.04064862272957094
56.225,0.03408431107493357
56.226,0.02212780787530102
56.227,0.006652218616118972
56.228,0.009810112165623573
56.229,0.024576265262201087
56.23,0.03536078135001118
56.231,0.04072295841491225
56.232,0.04029868077413201
56.233,0.03476390776133554
56.234,0.025556260409774764
56.235,0.01445188013464299
56.236,0.003132917752445866
56.237,0.007126528498332312
56.238,0.015578669548747417
56.239,0.02192225152060563
56.24,0.02609488984343347
56.241,0.028050535035380023
56.242,0.027632485041192825
56.243,0.024605230825853492
56.244,0.01883483900280388
56.245,0.010536331827202976
56.246,0.00046647559410580806
56.247,0.010050658611847958
56.248,0.019320634907214092
56.249,0.02566723902641193
56.25,0.027899076425129364
56.251,0.025694029797636925
56.251999999999995,0.01975232688167334
56.253,0.011637924520353463
56.254,0.003333534649404182
56.254999999999995,0.0033598027555317577
56.256,0.007381381969314067
56.257,0.00873078026996676
56.257999999999996,0.008423596727604944
56.259,0.008078995695975557
56.26,0.009266043981204602
56.260999999999996,0.012829869500209048
56.262,0.018440012388757136
56.263,0.02454024395090977
56.263999999999996,0.028749227256093756
56.265,0.028606781753187528
56.266,0.022433930985494958
56.266999999999996,0.010021607603718128
56.268,0.007095520869907442
56.269,0.025897562413728217
56.269999999999996,0.04261698932736839
56.271,0.05374308442834115
56.272,0.05698772115439834
56.272999999999996,0.051912158977015066
56.274,0.04001835289263189
56.275,0.024277487707199313
56.275999999999996,0.008247398671494774
56.277,0.004940137419506997
56.278,0.01340447412056696
56.278999999999996,0.016903330701782248
56.28,0.016680576011853875
56.281,0.014852071612040156
56.282,0.0135564154058468
56.283,0.014167363642071528
56.284,0.016833187910152838
56.285,0.02048793536238767
56.286,0.023313172118926653
56.287,0.023473924634862475
56.288,0.019861804130072533
56.289,0.012581354814607981
56.29,0.0030094364007130065
56.291,0.006592171039727492
56.292,0.013776552823419079
56.293,0.01668434331730011
56.294,0.01462864625942751
56.295,0.008299524552746794
56.296,0.0004728861988079875
56.297,0.00930866519906909
56.298,0.01601873614256633
56.299,0.019249429531116687
56.3,0.018825146917292836
56.301,0.015691034627147507
56.302,0.0114935786628109
56.303,0.007954493826157663
56.304,0.006253819806377495
56.305,0.006624506840879942
56.306,0.008281644314538627
56.307,0.009695023981548955
56.308,0.009103978370200067
56.309,0.0051039680787033324
56.31,0.0028755404385625884
56.311,0.014335145563217886
56.312,0.02776170768009969
56.313,0.04093897820649137
56.314,0.051411129411550835
56.315,0.05697449382684551
56.315999999999995,0.05609021573270823
56.317,0.048153803180784126
56.318,0.033605180178225245
56.318999999999996,0.01389594416723984
56.32,0.008659336025222002
56.321,0.031129331629091005
56.321999999999996,0.05030408570682034
56.323,0.0631208531638129
56.324,0.06715400155878254
56.324999999999996,0.06110802516950254
56.326,0.0452128823790491
56.327,0.021400380499903313
56.327999999999996,0.0068418786705548885
56.329,0.034979940511569184
56.33,0.05825126398603771
56.330999999999996,0.07263380769643145
56.332,0.07573698440011378
56.333,0.06737280926745472
56.333999999999996,0.04962730613774722
56.335,0.026377471033201996
56.336,0.0023541678291252918
56.336999999999996,0.018011040435212684
56.338,0.03164260997296997
56.339,0.03748559550273387
56.339999999999996,0.036590527902216084
56.341,0.03160049007915846
56.342,0.025801703804306714
56.342999999999996,0.02203169143069127
56.344,0.021781919670361187
56.345,0.024769587571784255
56.346,0.02910445239137665
56.347,0.0319881221488101
56.348,0.03071517082644822
56.349,0.02365150752910792
56.35,0.010875437439720205
56.351,0.005723153426548786
56.352,0.022916327497750258
56.353,0.03703417423844144
56.354,0.04500299937662229
56.355,0.04520621778075802
56.356,0.03791111361344008
56.357,0.025145963209792208
56.358,0.010084600547772915
56.359,0.003856672105104452
56.36,0.013927822782974452
56.361,0.018692346709349907
56.362,0.018243357551791666
56.363,0.0139631909680908
56.364,0.007943490103533502
56.365,0.0022774232006433875
56.366,0.0015445156985263138
56.367,0.0029597561822616546
56.368,0.0023125096461207475
56.369,0.0005390172947108576
56.37,0.0012963396250539744
56.371,0.002434744219063681
56.372,0.0026762094617968444
56.373,0.002380053885318313
56.374,0.00223641031550521
56.375,0.0029125519541651507
56.376,0.004715280407678872
56.376999999999995,0.007395932622541711
56.378,0.010166805960260763
56.379,0.01192019882003683
56.379999999999995,0.011572023523960645
56.381,0.008414045922671842
56.382,0.002362430523417767
56.382999999999996,0.005969608251480578
56.384,0.015387700160241284
56.385,0.0243763598607938
56.385999999999996,0.03142273062874557
56.387,0.03531741001132675
56.388,0.03536658650857826
56.388999999999996,0.031485581940267154
56.39,0.024179348971565522
56.391,0.014438157555394598
56.391999999999996,0.0035819015674265747
56.393,0.006921944602674061
56.394,0.015654020716550875
56.394999999999996,0.021445751073076776
56.396,0.023576490200994473
56.397,0.02193711840033615
56.397999999999996,0.017116038000425722
56.399,0.010359167553839315
56.4,0.0033720971506258895
56.400999999999996,0.002028815549119627
56.402,0.00435813104236273
56.403,0.0028905447433072535
56.403999999999996,0.002050297474337492
56.405,0.00905526668777518
56.406,0.015900102017035442
56.407,0.020091021989772702
56.408,0.019563477558732507
56.409,0.013346956061910779
56.41,0.0019943013970467162
56.411,0.012378903610131756
56.412,0.026498951979316145
56.413,0.03670944637937758
56.414,0.03992781983504443
56.415,0.034524496733583016
56.416,0.020870100028569316
56.417,0.0013761118996497694
56.418,0.02000935656698298
56.419,0.03873483186040981
56.42,0.05076529696439158
56.421,0.05358588958933885
56.422,0.04681302850656579
56.423,0.03224353558022203
56.424,0.013330039357234886
56.425,0.005766515236169785
56.426,0.021277020041918573
56.427,0.03076601743500392
56.428,0.03365423496874209
56.429,0.031186873604575314
56.43,0.02587694350917893
56.431,0.02060650247294492
56.432,0.017665930110051055
56.433,0.018023899720718755
56.434,0.0210456181068324
56.435,0.024737614963201423
56.436,0.026436348482461507
56.437,0.023723729983359032
56.438,0.015285367626183467
56.439,0.0014463739144081804
56.44,0.015781713860994327
56.440999999999995,0.03316154696349551
56.442,0.04706481042417691
56.443,0.054437538558289734
56.443999999999996,0.05361571555623943
56.445,0.04475839992322745
56.446,0.029781305028643925
56.446999999999996,0.011821833495774288
56.448,0.00559804224102796
56.449,0.019462312600170544
56.449999999999996,0.027950331618683034
56.451,0.030741009760412465
56.452,0.02887091925349358
56.452999999999996,0.02422218445062498
56.454,0.01882391583856326
56.455,0.014197516871174477
56.455999999999996,0.010948908887859161
56.457,0.008720527395767869
56.458,0.006493409744281833
56.458999999999996,0.003114976923894304
56.46,0.0021420122625568274
56.461,0.009187747338644995
56.461999999999996,0.01702723447889986
56.463,0.024005873768841727
56.464,0.02830450674908004
56.464999999999996,0.02851539393501633
56.466,0.024104150460189204
56.467,0.015602356740807571
56.467999999999996,0.004467417724687529
56.469,0.0073411403422533016
56.47,0.01792465840054021
56.471,0.025958038930225934
56.472,0.03098237165711094
56.473,0.033385773524429334
56.474,0.034090249921309844
56.475,0.03406568217175405
56.476,0.03385332268363325
56.477,0.03327880347873014
56.478,0.0314687208749386
56.479,0.02717735708344255
56.48,0.019317683689575732
56.481,0.007512367349526977
56.482,0.007536068196502437
56.483,0.024004331188010958
56.484,0.03927996063138782
56.485,0.05058532371160508
56.486,0.0557134953219518
56.487,0.05365206179470662
56.488,0.044899679732632085
56.489,0.03137251056599479
56.49,0.0159235631939209
56.491,0.0016164902726447687
56.492,0.0090318960514823
56.493,0.014622131477694944
56.494,0.015102059965428242
56.495,0.011613330162599496
56.496,0.006030750479454639
56.497,0.00035947584608929183
56.498,0.003814647925380941
56.499,0.0056613471992317185
56.5,0.0051538291110185775
56.501,0.0028570836546203382
56.501999999999995,0.0004292548383394916
56.503,0.004020947203765143
56.504,0.007559152168334253
56.504999999999995,0.011014826008381882
56.506,0.014510019993187613
56.507,0.018053602317876855
56.507999999999996,0.02132291404453338
56.509,0.02360365233490593
56.51,0.023935762461768706
56.510999999999996,0.021428139750519482
56.512,0.015631965983510653
56.513,0.006829641521751667
56.513999999999996,0.003883092253611001
56.515,0.014776426099906736
56.516,0.023890526158896204
56.516999999999996,0.02954582946336422
56.518,0.030798317971838445
56.519,0.027691016945768705
56.519999999999996,0.021217343511947824
56.521,0.013006334775708993
56.522,0.0048316641983447576
56.522999999999996,0.0018960423403584599
56.524,0.006490533618507921
56.525,0.009093289537854621
56.525999999999996,0.010495634654830157
56.527,0.011750972882628302
56.528,0.013717131602045912
56.528999999999996,0.016688627249896067
56.53,0.020244099633461948
56.531,0.023358332308588622
56.532,0.02473797965072016
56.533,0.023266191450057216
56.534,0.01840791342331492
56.535,0.010444213068110508
56.536,0.00046273839775177024
56.537,0.009889171608849084
56.538,0.018809302634392677
56.539,0.024780668829459267
56.54,0.02692230863655361
56.541,0.025162378118377755
56.542,0.020204058962356764
56.543,0.01331510658166389
56.544,0.006014398236511996
56.545,0.0002569508948184091
56.546,0.004405726048585954
56.547,0.005854637590824337
56.548,0.004598695401733209
56.549,0.0011649155233585536
56.55,0.003500009404262801
56.551,0.008192140079042395
56.552,0.011647735058183596
56.553,0.012762654059016384
56.554,0.010813158891845009
56.555,0.005642916980624772
56.556,0.002231926081647548
56.557,0.011647832174148904
56.558,0.02097688103363561
56.559,0.028455062161377744
56.56,0.03259339879950911
56.561,0.032568024215831194
56.562,0.028470855971585805
56.563,0.02132660184731272
56.564,0.012843088305291564
56.565,0.00494436885906
56.565999999999995,0.0007867263588619928
56.567,0.003586285028048017
56.568,0.003746504900241142
56.568999999999996,0.002517162739530913
56.57,0.001680577908985138
56.571,0.002920034794049804
56.571999999999996,0.0071808121128942625
56.573,0.014240545290891157
56.574,0.0226507074401397
56.574999999999996,0.03009704594851604
56.576,0.034088763962016634
56.577,0.03276960957527619
56.577999999999996,0.025589794729613487
56.579,0.01360779130638232
56.58,0.0007000355730770816
56.580999999999996,0.014088882663712877
56.582,0.02346936082098599
56.583,0.02682356989538102
56.583999999999996,0.023822336996787895
56.585,0.015938376257843143
56.586,0.006005448600568674
56.586999999999996,0.002650520961871551
56.588,0.007242921297269802
56.589,0.006396172950125474
56.589999999999996,0.0005809440537019
56.591,0.008029019976913807
56.592,0.01623873873618274
56.592999999999996,0.020842473347244605
56.594,0.019648379968701772
56.595,0.012197793959182808
56.596,4.4759809245055775e-05
56.597,0.014089271448271512
56.598,0.026281773254390874
56.599,0.03336426678685295
56.6,0.03341069447965178
56.601,0.02636042504666325
56.602,0.013999288281278607
56.603,0.0005907499834129846
56.604,0.013932939174397523
56.605,0.023129121720391613
56.606,0.02661609469099226
56.607,0.024493845586696438
56.608,0.018352598777389834
56.609,0.010678715674211527
56.61,0.004040342907066666
56.611,0.0003075270388044673
56.612,0.00013607250905804907
56.613,0.0028523182426593795
56.614,0.0067491342024033835
56.615,0.009681841013085125
56.616,0.009771892698124552
56.617,0.006006627888583011
56.618,0.0014339214687020135
56.619,0.011204520353379188
56.62,0.021153809086428086
56.621,0.028902219885108896
56.622,0.032473415376513035
56.623,0.03080953902452404
56.624,0.024040937593383587
56.625,0.013451398726020788
56.626,0.0011596766396992368
56.626999999999995,0.01039332345664349
56.628,0.019020178262969794
56.629,0.0232855216108741
56.629999999999995,0.022812140571755308
56.631,0.018328544393736483
56.632,0.011453983817965818
56.632999999999996,0.004277695350535978
56.634,0.0011642239012990747
56.635,0.003388273392732228
56.635999999999996,0.001819684228595378
56.637,0.0030799687378925134
56.638,0.009943552068918608
56.638999999999996,0.01685374649289968
56.64,0.021832627552532895
56.641,0.023340447901175912
56.641999999999996,0.020656038778666633
56.643,0.014042724916099196
56.644,0.0046616498947348985
56.644999999999996,0.005736752439611555
56.646,0.01525244434461118
56.647,0.022282703554993365
56.647999999999996,0.025856038066889124
56.649,0.025772265159629316
56.65,0.022530357184313225
56.650999999999996,0.01709074882203043
56.652,0.0105651904447331
56.653,0.0039399144184253795
56.653999999999996,0.0020863965486917
56.655,0.00711970715202495
56.656,0.010971434088930225
56.657,0.013515405422917067
56.658,0.014585491571726047
56.659,0.013974105086021883
56.66,0.011540684558156511
56.661,0.007382102326616033
56.662,0.0019777199355382152
56.663,0.003781366461500011
56.664,0.008731957840471703
56.665,0.011734081100742927
56.666,0.012038236690879596
56.667,0.009594427789383337
56.668,0.005172456146894291
56.669,0.00021436391015294706
56.67,0.0035707532427245708
56.671,0.00476190082733051
56.672,0.0027540736180485053
56.673,0.0019310623930985109
56.674,0.0076868453934508685
56.675,0.01224174446299635
56.676,0.01335483937147602
56.677,0.009578458059503966
56.678,0.0008378670183096365
56.679,0.011381232365120638
56.68,0.024331219642784143
56.681,0.034725701782119554
56.682,0.039681650750002295
56.683,0.03759132352361538
56.684,0.02864329229216915
56.685,0.01481390852512432
56.686,0.0006844628182107662
56.687,0.014337057677246677
56.688,0.023353853195978363
56.689,0.02646664546139426
56.69,0.02424264827177172
56.690999999999995,0.018815391786351554
56.692,0.01312192117841971
56.693,0.00989547127521843
56.693999999999996,0.0107416599556183
56.695,0.015597453612699295
56.696,0.022745343504568104
56.696999999999996,0.029372763953414184
56.698,0.03248963029432813
56.699,0.02990358150448116
56.699999999999996,0.020939628599585276
56.701,0.006680788740927417
56.702,0.01033323584324704
56.702999999999996,0.0268363623248998
56.704,0.039750033479973176
56.705,0.04698895289944234
56.705999999999996,0.047918484250849346
56.707,0.04335137397528941
56.708,0.035128537747477116
56.708999999999996,0.02545999414711159
56.71,0.016264084041414932
56.711,0.008718646566891908
56.711999999999996,0.0031410008529335442
56.713,0.0008163030185609319
56.714,0.0037806643310594294
56.714999999999996,0.006268711394905198
56.716,0.008454224765478247
56.717,0.010176630200750639
56.717999999999996,0.011160513332927922
56.719,0.011321641173722337
56.72,0.010994660933925232
56.721,0.010948360595346113
56.722,0.012144477955698701
56.723,0.015310240495587712
56.724,0.020487500699672104
56.725,0.026753946971169146
56.726,0.032267844159205576
56.727,0.03467939196522041
56.728,0.03181647787354913
56.729,0.02243962183881393
56.73,0.006813529440698589
56.731,0.013117945055328846
56.732,0.03404979228198691
56.733,0.052066212022794614
56.734,0.06361843553038678
56.735,0.06644325092631848
56.736,0.0601455387781463
56.737,0.046268521045548246
56.738,0.027833812557587025
56.739,0.008497568338560434
56.74,0.008415112908204944
56.741,0.02070548694975367
56.742,0.027698672555837425
56.743,0.03015158024013493
56.744,0.029739706042818104
56.745,0.028322317710041765
56.746,0.027245104067423507
56.747,0.02691035969886468
56.748,0.02674064110865046
56.749,0.025520823313403645
56.75,0.02197482368175348
56.751,0.01535989863597182
56.751999999999995,0.00586561125050226
56.753,0.005318894623662114
56.754,0.016286468469910304
56.754999999999995,0.02494045076156937
56.756,0.02958976356386297
56.757,0.029416923214150674
56.757999999999996,0.02467767464091614
56.759,0.016587009534454147
56.76,0.006950376820407648
56.760999999999996,0.0023251665170903476
56.762,0.009681050309987905
56.763,0.014191366229639242
56.763999999999996,0.01562519189459832
56.765,0.014312995584781774
56.766,0.010905116634516317
56.766999999999996,0.006131910535949553
56.768,0.0006523431961273598
56.769,0.00497619067300649
56.769999999999996,0.010234994435676457
56.771,0.014558766786609691
56.772,0.017305792023026553
56.772999999999996,0.01783192488560621
56.774,0.01566348325346553
56.775,0.010710230990562813
56.775999999999996,0.0034280830029806923
56.777,0.0051537138586155076
56.778,0.013584532107415465
56.778999999999996,0.020303522496814306
56.78,0.02402821501581285
56.781,0.024102308146698434
56.782,0.02068808238638035
56.783,0.014733124814611146
56.784,0.007711536829883417
56.785,0.0012125963063683266
56.786,0.0034999993744202675
56.787,0.005824823278642494
56.788,0.0059547005862913786
56.789,0.0047680898150157395
56.79,0.003518833702352233
56.791,0.0034236941752311214
56.792,0.005274264198192922
56.793,0.00918670125435631
56.794,0.014555729964330447
56.795,0.02021553621605113
56.796,0.024750671969242948
56.797,0.026862816538329642
56.798,0.025693195082663225
56.799,0.021023632300462464
56.8,0.013320533512017216
56.801,0.0036302668864885215
56.802,0.006632175757575818
56.803,0.015944263054316662
56.804,0.022932753035689094
56.805,0.026586870438666192
56.806,0.02640575914528747
56.807,0.022471039631465937
56.808,0.015441290674608124
56.809,0.006466902813182618
56.81,0.0029734744548580157
56.811,0.011304799239899327
56.812,0.0171296247983309
56.813,0.019498812187378117
56.814,0.018119508825867724
56.815,0.013440982210475108
56.815999999999995,0.006578491117242583
56.817,0.0009269175786466254
56.818,0.007468105261960054
56.818999999999996,0.011765297039776416
56.82,0.013187075552060463
56.821,0.011902945557216826
56.821999999999996,0.00881313958828592
56.823,0.005264250732359958
56.824,0.0026250840262367413
56.824999999999996,0.0018447780867496021
56.826,0.0031280583732773114
56.827,0.005833992355954161
56.827999999999996,0.00864138120144697
56.829,0.009944005957680505
56.83,0.008366532014867574
56.830999999999996,0.0032496979687693735
56.832,0.005044520000239859
56.833,0.01511008416911004
56.833999999999996,0.024779841053272366
56.835,0.03164972331569838
56.836,0.03370838716556735
56.836999999999996,0.029902595113538967
56.838,0.020482017712215767
56.839,0.007023857652882334
56.839999999999996,0.007878262970341806
56.841,0.021188650553635575
56.842,0.030126249302231616
56.842999999999996,0.03281175727681095
56.844,0.028706466524325836
56.845,0.018737033895626153
56.846,0.005078327929493034
56.847,0.009350579591487945
56.848,0.02155454892588574
56.849,0.029135091995637796
56.85,0.03080980138086287
56.851,0.026659268938756343
56.852,0.018048171251738375
56.853,0.0072448255137520035
56.854,0.0031649586877920024
56.855,0.010924911127925247
56.856,0.014656519952217154
56.857,0.014172178296716723
56.858,0.010474289267724098
56.859,0.005439835829677167
56.86,0.001271012035506547
56.861,0.00014427526363662544
56.862,0.0022096926795956142
56.863,0.008155025483540938
56.864,0.01633042553610981
56.865,0.02453937587382445
56.866,0.030347977024727205
56.867,0.031770074848976294
56.868,0.027846553389883868
56.869,0.018949598700477074
56.87,0.006717286804122518
56.871,0.006370603093764764
56.872,0.017658370136805036
56.873,0.025029850151281254
56.874,0.02746273550022837
56.875,0.02525604690108637
56.876,0.019862631763872745
56.876999999999995,0.013379980067098299
56.878,0.007860392199161006
56.879,0.0046608520863680065
56.879999999999995,0.004043205281615541
56.881,0.005157207060340571
56.882,0.006415614288851101
56.882999999999996,0.006140292673937253
56.884,0.0032635537473307222
56.885,0.002158040686915865
56.885999999999996,0.00880788535554438
56.887,0.014424402405710546
56.888,0.016492593891690627
56.888999999999996,0.013107578956416843
56.89,0.0037355975809911387
56.891,0.010386757356415787
56.891999999999996,0.02637498032037854
56.893,0.04034538388986627
56.894,0.04843031592161147
56.894999999999996,0.04787766466108457
56.896,0.037911607458307586
56.897,0.02008750680865652
56.897999999999996,0.001987634387200033
56.899,0.023516464993852383
56.9,0.03973103147115835
56.900999999999996,0.04713871815549043
56.902,0.04444780240473611
56.903,0.032911466812908345
56.903999999999996,0.015989973331751152
56.905,0.0015793358313272463
56.906,0.015050027939635117
56.907,0.020925978281410563
56.908,0.017870692049206948
56.909,0.007024832544759704
56.91,0.008344875403141003
56.911,0.02375935249990506
56.912,0.034747567232280216
56.913,0.03804100518964972
56.914,0.0324248150182003
56.915,0.019028363222698446
56.916,0.0009930598499318971
56.917,0.01737809661681522
56.918,0.031751589972862725
56.919,0.0388715787049024
56.92,0.03735795963757566
56.921,0.027997796182438826
56.922,0.01347211663067751
56.923,0.0023916093897327823
56.924,0.015631757552495823
56.925,0.02315951042018742
56.926,0.023501914836049673
56.927,0.017100284555702023
56.928,0.006104828282414007
56.929,0.006261132529626947
56.93,0.01658528189116161
56.931,0.022159166462813393
56.932,0.021647222473852725
56.933,0.015367178937196455
56.934,0.0051259295637898095
56.935,0.006325098518366384
56.936,0.016052445033599545
56.937,0.02170708153763282
56.938,0.022089655327915205
56.939,0.017373971186512866
56.94,0.008949206051624933
56.940999999999995,0.001050641512258994
56.942,0.010377464290098084
56.943,0.01727055249598561
56.943999999999996,0.020859289451159693
56.945,0.021266090095756883
56.946,0.019404123923623576
56.946999999999996,0.01655700511183364
56.948,0.013889274179015821
56.949,0.012049187943705323
56.949999999999996,0.01098680464285645
56.951,0.01003450506474295
56.952,0.008209351733211362
56.952999999999996,0.0046256516014794805
56.954,0.0011257963302709778
56.955,0.008758937365912682
56.955999999999996,0.01730379265873238
56.957,0.025339210123245477
56.958,0.031366139845950186
56.958999999999996,0.03419833051676244
56.96,0.033248163397534045
56.961,0.028627084866928564
56.961999999999996,0.021046637968822172
56.963,0.011573237588745709
56.964,0.0013340307373213077
56.964999999999996,0.008722147017931186
56.966,0.01793616480816349
56.967,0.025906071954949626
56.967999999999996,0.032353426627510486
56.969,0.036970441746002426
56.97,0.03933453293145801
56.971,0.03894548580040867
56.972,0.03538549332900022
56.973,0.028545295471237075
56.974,0.018823199447378276
56.975,0.007203006712091847
56.976,0.004846360113101393
56.977,0.015644879272729843
56.978,0.023679798160308442
56.979,0.027975637281616225
56.98,0.02833782924821166
56.981,0.025388137820725586
56.982,0.020375863748375373
56.983,0.014821702452645864
56.984,0.010105386540796337
56.985,0.007124743295297311
56.986,0.00612676223278287
56.987,0.0067505104710832205
56.988,0.008249102403137754
56.989,0.00979936242300148
56.99,0.010783883702518829
56.991,0.010948598185991271
56.992,0.010391854931918357
56.993,0.009407906506302988
56.994,0.008263279094331537
56.995,0.007007981113500137
56.996,0.005406441562427673
56.997,0.0030224640139463145
56.998,0.0005718987965344554
56.999,0.005546763686065263
57.0,0.01162839306610894
57.001,0.018061336085339608
57.001999999999995,0.02374987819141866
57.003,0.027542597518202663
57.004,0.028568085802282615
57.004999999999995,0.026507149947949026
57.006,0.02170619301934299
57.007,0.015091242477229379
57.007999999999996,0.007912054172764199
57.009,0.0014047766112824927
57.01,0.003512300722513661
57.010999999999996,0.006412021799481946
57.012,0.007355456188574417
57.013,0.006735857055089433
57.013999999999996,0.005049740070623834
57.015,0.0026990180938648405
57.016,9.122934353784145e-05
57.016999999999996,0.0032097053745981027
57.018,0.006489512145386561
57.019,0.009525490195062412
57.019999999999996,0.011587502178139716
57.021,0.011707840357149174
57.022,0.00895197004108299
57.022999999999996,0.002800095686817549
57.024,0.006495335628316485
57.025,0.017727110681574117
57.025999999999996,0.028835196974260107
57.027,0.03731380083906094
57.028,0.04083668812558756
57.028999999999996,0.03792576269235404
57.03,0.02845276358384922
57.031,0.013798641679642145
57.032,0.0034074004730053034
57.033,0.019916817839184923
57.034,0.03268569019701351
57.035,0.0396517098162883
57.036,0.04022979325419282
57.037,0.03537633730077287
57.038,0.027207110817076236
57.039,0.018295263109057037
57.04,0.010876860813985695
57.041,0.0062177390312104005
57.042,0.004338167414669215
57.043,0.004170040175865174
57.044,0.004076036690568241
57.045,0.0025404382687434107
57.046,0.0012127880054571272
57.047,0.006889719383659534
57.048,0.013197145544384123
57.049,0.01828800428980501
57.05,0.02042641142712005
57.051,0.018641977679630804
57.052,0.013146582552984004
57.053,0.005366642381083536
57.054,0.0024277837007414746
57.055,0.0077826446518563346
57.056,0.008800359696311861
57.057,0.004729036811503814
57.058,0.0037803779771341467
57.059,0.014822531713138954
57.06,0.02573876682869547
57.061,0.033813999967527895
57.062,0.03696290932531233
57.063,0.03421604007955899
57.064,0.025889772972279596
57.065,0.013425688674048789
57.065999999999995,0.0010201732913655312
57.067,0.015098686886352769
57.068,0.026751513267746854
57.068999999999996,0.03454679807155309
57.07,0.037820196857618275
57.071,0.03663964059545925
57.071999999999996,0.03165544341541333
57.073,0.023907878242969645
57.074,0.014645572703222611
57.074999999999996,0.005174691919659551
57.076,0.003270410767180655
57.077,0.009655245862724463
57.077999999999996,0.013280635918197264
57.079,0.013908289719506067
57.08,0.011834480450268582
57.080999999999996,0.007862453275912737
57.082,0.0031431885649945692
57.083,0.0011035748469693317
57.083999999999996,0.003925444053974595
57.085,0.004930063954406909
57.086,0.004427726148360975
57.086999999999996,0.0033513785741311774
57.088,0.0029492051679181766
57.089,0.004325211420377047
57.089999999999996,0.00796770071946155
57.091,0.013428494841657307
57.092,0.019284227406217717
57.092999999999996,0.023430532068686838
57.094,0.02365390323432359
57.095,0.018328646776813055
57.096,0.007031234137162332
57.097,0.009127291064497929
57.098,0.027577510154472573
57.099,0.04478648484905982
57.1,0.057056418398105054
57.101,0.06141828360361862
57.102,0.056378446886076426
57.103,0.04231479009671454
57.104,0.021416991169355255
57.105,0.0028070483132758297
57.106,0.026319114653624107
57.107,0.04542040679079949
57.108,0.05748158285980986
57.109,0.06136553224023069
57.11,0.05747162474441186
57.111,0.0474370655144497
57.112,0.03361595015482563
57.113,0.01849710751137052
57.114,0.004211466397424182
57.115,0.0077713063774454555
57.116,0.016727192100405318
57.117,0.022578165596181466
57.118,0.025683877333990728
57.119,0.02660870531901531
57.12,0.02592957130905253
57.121,0.024116947578161085
57.122,0.021489377411121006
57.123,0.01822182671566475
57.124,0.01438382250226468
57.125,0.009990456458177498
57.126,0.005059371985716579
57.126999999999995,0.00032827230283868133
57.128,0.005968581861400969
57.129,0.011492632428438482
57.129999999999995,0.016364067060507324
57.131,0.019937680965747325
57.132,0.02158467500035079
57.132999999999996,0.020864334721177526
57.134,0.017695129994073744
57.135,0.012463290883551989
57.135999999999996,0.006013866677632705
57.137,0.0004995824200464166
57.138,0.005883035531506648
57.138999999999996,0.009216629727023322
57.14,0.010116099796595734
57.141,0.00884600248395383
57.141999999999996,0.006230760255722556
57.143,0.003376149866901752
57.144,0.0012838124223652483
57.144999999999996,0.0004885846202755631
57.146,0.0008526164207948051
57.147,0.0016051975648457496
57.147999999999996,0.0016347477534904423
57.149,5.350208364028198e-05
57.15,0.003870601345097842
57.150999999999996,0.009343344626405395
57.152,0.015112372595671391
57.153,0.01926564523161889
57.153999999999996,0.019926435616488988
57.155,0.01591581568540891
57.156,0.007265740267130118
57.157,0.004609922204422421
57.158,0.017178225699650274
57.159,0.027435647210606613
57.16,0.03276086762164257
57.161,0.031710353555774305
57.162,0.02449855924674559
57.163,0.012994297354377522
57.164,0.00021452196617619012
57.165,0.01054156264574884
57.166,0.016655254933909576
57.167,0.016948267196851115
57.168,0.012000470791188269
57.169,0.003925573221247162
57.17,0.0043218652510633865
57.171,0.009884617809299891
57.172,0.010885785733147474
57.173,0.006977924030927418
57.174,0.0006076086515222793
57.175,0.009511397649892702
57.176,0.01703458033722795
57.177,0.020997876717247392
57.178,0.020390021704001178
57.179,0.015605227280133997
57.18,0.008214584729774944
57.181,0.00037502259462224736
57.182,0.005903232301580439
57.183,0.009373073500017662
57.184,0.009847498746374363
57.185,0.008097308139022852
57.186,0.00541656083724022
57.187,0.003040081161850875
57.188,0.0016434634105139407
57.189,0.0011159467979861462
57.19,0.0006864836449810608
57.190999999999995,0.0006551863030344735
57.192,0.0036160607188407998
57.193,0.0081590666181234
57.193999999999996,0.013351863660799263
57.195,0.017585870774340946
57.196,0.01910555801425836
57.196999999999996,0.01666578389551784
57.198,0.010076527197546401
57.199,0.0004227423291953864
57.199999999999996,0.010145816675450897
57.201,0.019010682934088512
57.202,0.023883445512435965
57.202999999999996,0.023544666287623996
57.204,0.018270246919622396
57.205,0.009790027899362497
57.205999999999996,0.0007764527257512039
57.207,0.005981921256958198
57.208,0.008459877399840457
57.208999999999996,0.006044665280918404
57.21,0.0002558537540746252
57.211,0.008114607011759324
57.211999999999996,0.01460086532777147
57.213,0.01708316644647595
57.214,0.014036758586593309
57.214999999999996,0.0055088386869635
57.216,0.006891029143083776
57.217,0.020455512311982896
57.217999999999996,0.032139661102994696
57.219,0.03937510687555389
57.22,0.04069615451447416
57.221,0.036011889195984415
57.222,0.026481682962818876
57.223,0.014077801153783306
57.224,0.0010059869464035419
57.225,0.010823043097154124
57.226,0.0201230235850859
57.227,0.026304147091324136
57.228,0.029328130039066085
57.229,0.029457988045891694
57.23,0.027033860761143835
57.231,0.022371430722803794
57.232,0.015808099589117955
57.233,0.007845235287158662
57.234,0.000715530678678927
57.235,0.008747258485070833
57.236,0.01494405269003761
57.237,0.018123431504238823
57.238,0.017593888362695258
57.239,0.01345254910719328
57.24,0.006684475403412962
57.241,0.0010066102225372226
57.242,0.007615683105146815
57.243,0.011390274376802767
57.244,0.011351344224432246
57.245,0.0076096980873116855
57.246,0.0013637854794164316
57.247,0.005436225592170495
57.248,0.01066506556265039
57.249,0.01266591258212744
57.25,0.010761496575388142
57.251,0.005472156703353124
57.251999999999995,0.0016288964573740908
57.253,0.008379599204425676
57.254,0.012670008113801954
57.254999999999995,0.013065158860968783
57.256,0.009223998146549301
57.257,0.0019952077893850067
57.257999999999996,0.0068282770736717655
57.259,0.015012079634552299
57.26,0.020485163593000677
57.260999999999996,0.02187103083422527
57.262,0.018803574417379808
57.263,0.011959028214033605
57.263999999999996,0.002822096721960531
57.265,0.006723513489504884
57.266,0.014852868941751132
57.266999999999996,0.02018367779434209
57.268,0.022003892219114803
57.269,0.020317573477432235
57.269999999999996,0.015736652649519515
57.271,0.009279254425783054
57.272,0.002141622701019732
57.272999999999996,0.00450547453077342
57.274,0.009671927748234466
57.275,0.01265517421047144
57.275999999999996,0.013110315251907097
57.277,0.01109158281983404
57.278,0.007060652357544095
57.278999999999996,0.001845577177013279
57.28,0.0034671317364025137
57.281,0.007711251801555276
57.282,0.009869479702868365
57.283,0.009304611772271215
57.284,0.005930500213563826
57.285,0.0002650529651986584
57.286,0.006664858337696071
57.287,0.013553640643575266
57.288,0.019125111568511915
57.289,0.02243203918013416
57.29,0.023058645001394994
57.291,0.02116584745831189
57.292,0.017369323865553427
57.293,0.012496057790953377
57.294,0.007306222319625747
57.295,0.002278618021514561
57.296,0.002465762021160807
57.297,0.00707872717190092
57.298,0.011776185872050291
57.299,0.016592226692466117
57.3,0.02120043734266318
57.301,0.02488621074841199
57.302,0.026700344246542745
57.303,0.02575619609055645
57.304,0.021574243001585027
57.305,0.014350861774822102
57.306,0.00504395839307714
57.307,0.004776694659046249
57.308,0.01328937265936457
57.309,0.018892292868950555
57.31,0.020645401728334862
57.311,0.018541738383184073
57.312,0.01351646415270748
57.313,0.007181931466510284
57.314,0.0013635060725630992
57.315,0.0024250407929485495
57.315999999999995,0.0034071508477239117
57.317,0.001740654950488854
57.318,0.0015719127748089938
57.318999999999996,0.0050290621599631555
57.32,0.007122557462251363
57.321,0.006822999217488681
57.321999999999996,0.003910579307378218
57.323,0.0009466124532098444
57.324,0.006385265801750636
57.324999999999996,0.010747055398914468
57.326,0.012563472936949321
57.327,0.010982619587666878
57.327999999999996,0.006018969424583755
57.329,0.0014357768050331397
57.33,0.009831745551549859
57.330999999999996,0.017338496109190554
57.332,0.022273604072044567
57.333,0.023472295529644832
57.333999999999996,0.020516130490824874
57.335,0.013784516027701012
57.336,0.004340395120992098
57.336999999999996,0.006303100329369532
57.338,0.01647234368311068
57.339,0.024619718553893426
57.339999999999996,0.02956288760124825
57.341,0.030651467149119642
57.342,0.027850277971839577
57.342999999999996,0.021735972690153368
57.344,0.013406870246589021
57.345,0.004309562814166327
57.346,0.0040048281366625955
57.347,0.010165775699460835
57.348,0.01326195895363196
57.349,0.013051806207188547
57.35,0.010044951630603299
57.351,0.005413894084325288
57.352,0.0007340147559505259
57.353,0.002401456223175626
57.354,0.002801615586226939
57.355,2.074973622518412e-05
57.356,0.005479455993351896
57.357,0.012409459221770641
57.358,0.018968539031054388
57.359,0.023323443961736044
57.36,0.02412050044125594
57.361,0.020884811758727823
57.362,0.014185865930065187
57.363,0.0055126269541149915
57.364,0.003114973071251935
57.365,0.00969248639807348
57.366,0.012780566742451465
57.367,0.011899345253274036
57.368,0.007652992080685489
57.369,0.001548342808055218
57.37,0.0044391716031079165
57.371,0.00842591172878341
57.372,0.00914540569776664
57.373,0.0062905929081385
57.374,0.0005811827935953397
57.375,0.006454160383507295
57.376,0.01290968783185274
57.376999999999995,0.01702019179046839
57.378,0.017618860650721
57.379,0.014415374260299945
57.379999999999995,0.008032261011062478
57.381,0.0001913771290621383
57.382,0.008557394061898841
57.382999999999996,0.015419945196312995
57.384,0.019541231513182145
57.385,0.020311071229721357
57.385999999999996,0.017797125111941398
57.387,0.012642066878569648
57.388,0.005860545173354668
57.388999999999996,0.0013964267237172496
57.39,0.008049632668295921
57.391,0.013235684552965832
57.391999999999996,0.016378562689747685
57.393,0.017203075263936416
57.394,0.015715180431000952
57.394999999999996,0.0121714123626256
57.396,0.007047935603424648
57.397,0.0010061392697116426
57.397999999999996,0.005156946463636088
57.399,0.010584829839203039
57.4,0.014466801830673615
57.400999999999996,0.016161147558857076
57.402,0.01531295089088125
57.403,0.011937470154479782
57.403999999999996,0.006443780974048054
57.405,0.0004142796316835675
57.406,0.007655624954866598
57.407,0.014236790724125972
57.408,0.019231395223664488
57.409,0.02198781938754192
57.41,0.022233589860269416
57.411,0.020106401286459654
57.412,0.01610669339075317
57.413,0.01098199687944846
57.414,0.005566295202156415
57.415,0.0006066498542429084
57.416,0.003386880465900961
57.417,0.006234344187515455
57.418,0.008097460570784275
57.419,0.009400868121765125
57.42,0.010675139294768885
57.421,0.012355867700254153
57.422,0.014591063656035092
57.423,0.01711627857461481
57.424,0.019248186631767458
57.425,0.02002136609753258
57.426,0.018453757690961796
57.427,0.013883283017168188
57.428,0.006284472187507122
57.429,0.00353750730751721
57.43,0.01395932356299633
57.431,0.02279406438873819
57.432,0.027756140844059248
57.433,0.02703667411636153
57.434,0.01984226744574095
57.435,0.006741201873730688
57.436,0.010301914937912438
57.437,0.028245545196407287
57.438,0.04359079631685892
57.439,0.05315874865457694
57.44,0.05482987244530556
57.440999999999995,0.04805038539059976
57.442,0.03396744567023246
57.443,0.015153948746945589
57.443999999999996,0.005003949319724643
57.445,0.023091118366763325
57.446,0.036409835111490506
57.446999999999996,0.04349587624558515
57.448,0.04428514042709554
57.449,0.039917348322473595
57.449999999999996,0.03226814704245935
57.451,0.023372054721686124
57.452,0.014914947858949729
57.452999999999996,0.007933511950712974
57.454,0.0027766955158345526
57.455,0.0007095057164993656
57.455999999999996,0.0028849708888792672
57.457,0.00404389511583234
57.458,0.00428032505671714
57.458999999999996,0.003534909292027924
57.46,0.001784912305198348
57.461,0.0007254507306981498
57.461999999999996,0.003339991269910488
57.463,0.005027405023153016
57.464,0.0046257239044290716
57.464999999999996,0.0012334407721831147
57.466,0.005383257760444842
57.467,0.014522741938150828
57.467999999999996,0.024543490344145866
57.469,0.033166361076415206
57.47,0.038024192803846155
57.471,0.03730951153650814
57.472,0.030326453467749776
57.473,0.017771023920638136
57.474,0.0016407860700803486
57.475,0.015213084311803467
57.476,0.029768208516895493
57.477,0.03955252046539999
57.478,0.04319925865151872
57.479,0.040684547383202874
57.48,0.033197732939173476
57.481,0.02270803448263708
57.482,0.011379348355425973
57.483,0.0010201276352919898
57.484,0.007272126137675143
57.485,0.013189820072196197
57.486,0.017034620069819727
57.487,0.01937930144882455
57.488,0.02071704026134241
57.489,0.021231240214947787
57.49,0.020760166349915232
57.491,0.01894907014136329
57.492,0.015509466964060869
57.493,0.010467476317144215
57.494,0.004293059473654502
57.495,0.002146446495269687
57.496,0.007793503374344458
57.497,0.011690157056911647
57.498,0.01324206565771836
57.499,0.012361819858013288
57.5,0.009447099620838475
57.501,0.005215556132511882
57.501999999999995,0.0004732017473464264
57.503,0.004085903152363695
57.504,0.00797225970861479
57.504999999999995,0.010864137210857234
57.506,0.012484423179615367
57.507,0.012480588462435768
57.507999999999996,0.01040342483358366
57.509,0.0058400841759872965
57.51,0.0013162338684466171
57.510999999999996,0.01055530782723385
57.512,0.020541859424699167
57.513,0.029149541571003558
57.513999999999996,0.033810724656829175
57.515,0.032147438868302604
57.516,0.022733209719719497
57.516999999999996,0.005755588949096928
57.518,0.0166606010330395
57.519,0.040636342773023894
57.519999999999996,0.061254937315930603
57.521,0.07367299342812295
57.522,0.07434808149782152
57.522999999999996,0.0620419610061597
57.524,0.038296967749987906
57.525,0.007218033439155092
57.525999999999996,0.025413649437644705
57.527,0.053475344895252255
57.528,0.07193196291157233
57.528999999999996,0.07797480753106242
57.53,0.07156792790960738
57.531,0.055272141947390004
57.532,0.03342484917565146
57.533,0.010933694443339118
57.534,0.007960505722761234
57.535,0.020608833184696643
57.536,0.026339279771744953
57.537,0.0262503049996796
57.538,0.0225419650586195
57.539,0.0176409470561433
57.54,0.01341301323537165
57.541,0.010697528785054665
57.542,0.009269734167988151
57.543,0.008184618705704066
57.544,0.0063336574228792355
57.545,0.0029911236196871823
57.546,0.0018466146994705966
57.547,0.007432977686378262
57.548,0.012537457323077003
57.549,0.015884770457283
57.55,0.016592811832128143
57.551,0.014450066309482952
57.552,0.009944981319027081
57.553,0.004058425607617266
57.554,0.002082627882248093
57.555,0.007548587141351132
57.556,0.011820251247826213
57.557,0.014806510381067894
57.558,0.016686569220866972
57.559,0.01766857082148168
57.56,0.017787377667289272
57.561,0.01684230992342452
57.562,0.014510357188254592
57.563,0.010588616518484511
57.564,0.005255159911848047
57.565,0.0007824075789294979
57.565999999999995,0.006346503992419461
57.567,0.010074484330850578
57.568,0.01085296820009082
57.568999999999996,0.008253969647931176
57.57,0.0028047765681875714
57.571,0.004033960084969623
57.571999999999996,0.010213419876195501
57.573,0.013682312695910985
57.574,0.013036344366283363
57.574999999999996,0.008016406214021162
57.576,0.00032498171374773264
57.577,0.009869811979127523
57.577999999999996,0.018040486766899216
57.579,0.02258914444205889
57.58,0.022323252099733897
57.580999999999996,0.01752825197064604
57.582,0.009935226412989755
57.583,0.0022219444012834748
57.583999999999996,0.002815003374834927
57.585,0.003169149364656491
57.586,0.001668286340632966
57.586999999999996,0.010431338859757007
57.588,0.020336048180020966
57.589,0.027814434834238656
57.589999999999996,0.029524285851978176
57.591,0.02334774244078744
57.592,0.009090907529937305
57.592999999999996,0.011319842997087602
57.594,0.03420734919684043
57.595,0.0549838466512754
57.596,0.06923908381312531
57.597,0.07379115821611391
57.598,0.06743234765259233
57.599,0.05119088504865892
57.6,0.02806120744231419
57.601,0.0022914717833522613
57.602,0.02157846658296186
57.603,0.03968763172812216
57.604,0.0496081972955132
57.605,0.050728315646790305
57.606,0.044208708153625015
57.607,0.03256117431578501
57.608,0.018977780742700973
57.609,0.006581700543865033
57.61,0.002230085157435161
57.611,0.006219752005282194
57.612,0.005446338023117467
57.613,0.0011066072905200296
57.614,0.0048602806474469335
57.615,0.010299695426415964
57.616,0.0133760470192966
57.617,0.012997380259566753
57.618,0.009042040325127058
57.619,0.002345457466817689
57.62,0.005541301629506338
57.621,0.012758975610720362
57.622,0.017614232017662986
57.623,0.01900609286049591
57.624,0.016701521266954282
57.625,0.011393066704323553
57.626,0.004524580540930638
57.626999999999995,0.0020714301521805364
57.628,0.0066338304370766885
57.629,0.007914633927527046
57.629999999999995,0.00549191792095911
57.631,0.0001231019901021259
57.632,0.007608604778464725
57.632999999999996,0.01514977713397256
57.634,0.020869342560226656
57.635,0.023264192257573032
57.635999999999996,0.021545022047168443
57.637,0.015805118784150377
57.638,0.006989478399908535
57.638999999999996,0.0033168815619059587
57.64,0.013224565906360003
57.641,0.02092220252050867
57.641999999999996,0.02502751387112235
57.643,0.024843832259015722
57.644,0.02048254687224181
57.644999999999996,0.012837543862420637
57.646,0.0034204563193298127
57.647,0.005916021011199601
57.647999999999996,0.013324616381587382
57.649,0.017325331133591023
57.65,0.01711932849147731
57.650999999999996,0.01278945900943014
57.652,0.005331713619582916
57.653,0.003512793865359162
57.653999999999996,0.011615156871368017
57.655,0.0169460201531862
57.656,0.018088557985572344
57.657,0.014647175097407282
57.658,0.007429118795587401
57.659,0.0016790128988367458
57.66,0.010142076490546844
57.661,0.015428363462103648
57.662,0.015721639936556283
57.663,0.0104961132759028
57.664,0.0007765897714360736
57.665,0.011018604478259485
57.666,0.021640712465888674
57.667,0.027848175333043533
57.668,0.027297347298159757
57.669,0.019235370095455458
57.67,0.004788545970911296
57.671,0.013251782093115397
57.672,0.031101040345594206
57.673,0.04493177234700061
57.674,0.051839143872709804
57.675,0.05055139947529572
57.676,0.041689242593436565
57.677,0.027511373426071344
57.678,0.011234853765596079
57.679,0.003858424642058534
57.68,0.015262058028120862
57.681,0.02179260084602688
57.682,0.023705069692223885
57.683,0.022377284304248513
57.684,0.01969737762557849
57.685,0.01737318324493249
57.686,0.016391816172096705
57.687,0.016792356981739583
57.688,0.017798848861237195
57.689,0.018235655616856816
57.69,0.01705535523873553
57.690999999999995,0.013780794330985483
57.692,0.008705010571297146
57.693,0.002788027486512825
57.693999999999996,0.0026974740621807727
57.695,0.006629674229569905
57.696,0.008433088087393114
57.696999999999996,0.008259411372882348
57.698,0.0068911396201941045
57.699,0.005410975245946951
57.699999999999996,0.004768098566564368
57.701,0.005410445248777964
57.702,0.00712621841230854
57.702999999999996,0.009157493919273332
57.704,0.010543575123355527
57.705,0.010560770495917898
57.705999999999996,0.009082858769725293
57.707,0.00670977857470568
57.708,0.004594409610145478
57.708999999999996,0.00401029080182171
57.71,0.005806313738176897
57.711,0.009949584426367286
57.711999999999996,0.015342382494245639
57.713,0.020015316424630874
57.714,0.0216725015553709
57.714999999999996,0.018437872354590983
57.716,0.009568405387647201
57.717,0.0041092181280576135
57.717999999999996,0.02021030571181765
57.719,0.03529133004497575
57.72,0.04572275191072969
57.721,0.04869691906628108
57.722,0.04307668982450921
57.723,0.02982332973800974
57.724,0.01185605323082662
57.725,0.006642643409779183
57.726,0.021299970706309974
57.727,0.028714764333690287
57.728,0.027387428173174005
57.729,0.018156812178070237
57.73,0.004016639341698659
57.731,0.010646798582898485
57.732,0.021197227972988925
57.733,0.023971520066742212
57.734,0.017264090662213197
57.735,0.0018185536914249222
57.736,0.019297358579707782
57.737,0.041399055160867775
57.738,0.05929480677169571
57.739,0.06852255404017084
57.74,0.06641378849557662
57.741,0.05273342653803349
57.742,0.02975163453230356
57.743,0.0017404350783416986
57.744,0.025978691776254184
57.745,0.04821042444848442
57.746,0.06101372057631519
57.747,0.06252908802237372
57.748,0.05332510019469567
57.749,0.03619594445066819
57.75,0.015466437991535449
57.751,0.004028881291843738
57.751999999999995,0.018054313038429214
57.753,0.02391354668050054
57.754,0.021007605922019303
57.754999999999995,0.010886321922402678
57.756,0.0032103834087297963
57.757,0.017203374602436445
57.757999999999996,0.027205183015354583
57.759,0.03047585451016782
57.76,0.026068880950335147
57.760999999999996,0.015011714702333702
57.762,1.530200610714819e-05
57.763,0.015408913027057578
57.763999999999996,0.02758465341993173
57.765,0.033881087014138694
57.766,0.03319216467260602
57.766999999999996,0.026170950641263842
57.768,0.014966960028363278
57.769,0.002586373748569319
57.769999999999996,0.007936166946126361
57.771,0.014321212399954581
57.772,0.015572963898732835
57.772999999999996,0.012122826929228432
57.774,0.005572912567054347
57.775,0.001861691868190225
57.775999999999996,0.008032839577178926
57.777,0.011458036520899889
57.778,0.011670829715907344
57.778999999999996,0.009239119812042264
57.78,0.005471052212255833
57.781,0.001919746617040442
57.782,0.00014879834934271882
57.783,0.00015946235789219827
57.784,0.0016131102141839922
57.785,0.004166472498847284
57.786,0.006122727714604532
57.787,0.006194581750523284
57.788,0.003620596035114592
57.789,0.0015587987770762806
57.79,0.00846095502562989
57.791,0.015562521869010342
57.792,0.021081920486707508
57.793,0.02343624641701216
57.794,0.02165222347745317
57.795,0.015629173252690132
57.796,0.006194207745608286
57.797,0.005057316472633019
57.798,0.016093530688367896
57.799,0.02487198047524426
57.8,0.029765995631083904
57.801,0.029902094954283216
57.802,0.025340052610141956
57.803,0.01705960501643857
57.804,0.006755566828901585
57.805,0.003519371964024111
57.806,0.011793252093046595
57.807,0.016603683551505412
57.808,0.017321950905574948
57.809,0.014293474297533726
57.81,0.00875156627346836
57.811,0.002512057456309984
57.812,0.0024885024607468153
57.813,0.004702675856018448
57.814,0.003399484051273354
57.815,0.0011100712614045287
57.815999999999995,0.007522899402412049
57.817,0.013871521105372455
57.818,0.018053615829852786
57.818999999999996,0.018424690439640377
57.82,0.014288395383774041
57.821,0.006139446624998864
57.821999999999996,0.0044209476757683126
57.823,0.01508472092928223
57.824,0.02344590965496467
57.824999999999996,0.027647917774984543
57.826,0.026882264328683767
57.827,0.021592526315778408
57.827999999999996,0.013323258756504953
57.829,0.004259624799583217
57.83,0.003403444631236214
57.830999999999996,0.008072919741824423
57.832,0.009168365502435348
57.833,0.007214135233013929
57.833999999999996,0.0035958619875272554
57.835,6.831803069705734e-05
57.836,0.0018233998151658045
57.836999999999996,0.0012255123080446753
57.838,0.0017865894269205622
57.839,0.006277852447864185
57.839999999999996,0.010793281156714522
57.841,0.01384572895684156
57.842,0.014387800647118117
57.842999999999996,0.01211757648348818
57.844,0.007530419110804033
57.845,0.0017176591090552907
57.846,0.0040034805971436264
57.847,0.008493946061691578
57.848,0.011094608115508338
57.849,0.011735005311614368
57.85,0.010832838577549322
57.851,0.009043608916537141
57.852,0.006969427996152297
57.853,0.0049428129462468365
57.854,0.0029644145320372535
57.855,0.0008083259486675309
57.856,0.00175980066073186
57.857,0.004752157997426952
57.858,0.007821650437897752
57.859,0.010287877498571572
57.86,0.011331453005427348
57.861,0.010293614896376575
57.862,0.00697184409200029
57.863,0.0017958489148599773
57.864,0.004194972783262388
57.865,0.009584203967920228
57.866,0.012958897778476322
57.867,0.013321488678233741
57.868,0.010401973851161914
57.869,0.004769245335796302
57.87,0.0022952171289249714
57.871,0.009122010888432478
57.872,0.01407613765949706
57.873,0.015950257812344184
57.874,0.014219151827191951
57.875,0.009097899249578227
57.876,0.0014135899898377107
57.876999999999995,0.007641983838086407
57.878,0.016783334883753467
57.879,0.02484062403977164
57.879999999999995,0.03086309283324947
57.881,0.034126099028024805
57.882,0.03409475252726304
57.882999999999996,0.030412101393471856
57.884,0.022959950970081345
57.885,0.011994041945162934
57.885999999999996,0.001697647508803829
57.887,0.016700532206557147
57.888,0.031030594734467676
57.888999999999996,0.04239111714739387
57.89,0.048608361490695924
57.891,0.04815178816867509
57.891999999999996,0.040593582107907755
57.893,0.026856437249095387
57.894,0.009144880305589959
57.894999999999996,0.00945744323648782
57.896,0.025640948365148974
57.897,0.03660847994424524
57.897999999999996,0.040699846222058834
57.899,0.03773098001071263
57.9,0.028957812502922654
57.900999999999996,0.016685097154015543
57.902,0.0036434941901691657
57.903,0.007679235231257642
57.903999999999996,0.015564800436521404
57.905,0.019317734298580424
57.906,0.01921005299374824
57.907,0.016181891473123818
57.908,0.011433160182633361
57.909,0.006059021447725333
57.91,0.0008438119298581781
57.911,0.0037489210715578487
57.912,0.007437355293226281
57.913,0.009939766548385643
57.914,0.01086795795758623
57.915,0.009772446489597283
57.916,0.006339888237145636
57.917,0.0006629020893969994
57.918,0.006548143698141015
57.919,0.013939343129328208
57.92,0.019742552264313564
57.921,0.02223254110858253
57.922,0.020286072534388255
57.923,0.013854660837958216
57.924,0.004164678257839523
57.925,0.006469536371233128
57.926,0.01521165915763199
57.927,0.019507817298964586
57.928,0.01789219466194412
57.929,0.01053290839990589
57.93,0.0006796769784959822
57.931,0.012566035332326135
57.932,0.021511971517025365
57.933,0.02450422024084991
57.934,0.02003782007704853
57.935,0.008613799750560454
57.936,0.007335447020234122
57.937,0.02408224047699184
57.938,0.037617345713503524
57.939,0.04474099939695845
57.94,0.04390856885977988
57.940999999999995,0.03558720819699586
57.942,0.02203410627372421
57.943,0.006585763590928366
57.943999999999996,0.007306840510567
57.945,0.016996337994044798
57.946,0.021241690845787406
57.946999999999996,0.02034309130147328
57.948,0.015814975956912617
57.949,0.009749239039636292
57.949999999999996,0.004106470873025763
57.951,0.00017277901575492421
57.952,0.0016613969481617658
57.952999999999996,0.0017730159711108558
57.954,0.0009295342871372814
57.955,0.00015434303515925415
57.955999999999996,0.0011366883367101089
57.957,0.002121644915375225
57.958,0.003473847724607036
57.958999999999996,0.005474165210649908
57.96,0.007986318133621866
57.961,0.010303222466885337
57.961999999999996,0.011270976990447993
57.963,0.009674174897064665
57.964,0.004752652296403653
57.964999999999996,0.0033484227195159978
57.966,0.013387517691749114
57.967,0.02320618665198789
57.967999999999996,0.03026116548560918
57.969,0.03235972445176038
57.97,0.028363601598888486
57.971,0.018621114323490697
57.972,0.0049663695254129146
57.973,0.00973617762523389
57.974,0.02237151084180751
57.975,0.030436136893738447
57.976,0.03270893495526514
57.977,0.029518410450648173
57.978,0.022527827791263895
57.979,0.014120481459350184
57.98,0.006599559511919806
57.981,0.0014748378764493962
57.982,0.0009280320933125304
57.983,0.0014173703386773549
57.984,0.0014829414385564062
57.985,0.0026201114282192652
57.986,0.005684591678830063
57.987,0.010514856212095847
57.988,0.015957689443655252
57.989,0.020283037154930232
57.99,0.02183150264762131
57.991,0.01965305428441169
57.992,0.01389929950737044
57.993,0.005822428796073501
57.994,0.0026215377617603277
57.995,0.009422052324569668
57.996,0.013179535745418249
57.997,0.013544234027862936
57.998,0.011268717168957602
57.999,0.007857068300486648
58.0,0.0049440966237204
58.001,0.0036402246714467013
58.001999999999995,0.004093452318643971
58.003,0.005441638171063919
58.004,0.006183346673431966
58.004999999999995,0.0048359118204570764
58.006,0.0006339564444951099
58.007,0.006005552152648225
58.007999999999996,0.013451546974181067
58.009,0.01930846910341959
58.01,0.02121832486172166
58.010999999999996,0.0177473810116635
58.012,0.009040537889595723
58.013,0.0030116627803394385
58.013999999999996,0.015192858693237382
58.015,0.023868710770544095
58.016,0.026110488864015777
58.016999999999996,0.02067426157397696
58.018,0.008506235282833213
58.019,0.00741287510293149
58.019999999999996,0.022862582695441332
58.021,0.03358733556207665
58.022,0.03654524606347933
58.022999999999996,0.03081452796820745
58.024,0.01787504526625199
58.025,0.0011768691964536148
58.025999999999996,0.01487007776069845
58.027,0.026173097119656926
58.028,0.030110891991358767
58.028999999999996,0.026221541705019346
58.03,0.01623350578080719
58.031,0.0034562375125294174
58.032,0.008258444063301217
58.033,0.015652444650935963
58.034,0.016951437414354214
58.035,0.012260881845982806
58.036,0.0033867402832042687
58.037,0.006819632541589462
58.038,0.01535644454209007
58.039,0.01991830755652036
58.04,0.019449648426517252
58.041,0.01427513519337145
58.042,0.0058226540354224905
58.043,0.003921083967315582
58.044,0.01301700268852508
58.045,0.020046430434141078
58.046,0.024327512733129414
58.047,0.02585740837493576
58.048,0.025059260126173953
58.049,0.022468830962118977
58.05,0.018495354607511096
58.051,0.013340877137576979
58.052,0.007085950939975488
58.053,0.00012184180944877174
58.054,0.007879827408150662
58.055,0.015441475581402334
58.056,0.021782003997040694
58.057,0.025809637811015255
58.058,0.02665540167752851
58.059,0.023942926475362333
58.06,0.01794547850221779
58.061,0.00957597351380736
58.062,0.00021115558994403143
58.063,0.008597363611547646
58.064,0.01544235727280318
58.065,0.01932690313354871
58.065999999999995,0.019818522487347674
58.067,0.01707194884462655
58.068,0.011738109072065723
58.068999999999996,0.004800262295360838
58.07,0.0026167761113847113
58.071,0.009428139047661956
58.071999999999996,0.01474046649829345
58.073,0.01796485640750465
58.074,0.01888610273205496
58.074999999999996,0.017679745528079105
58.076,0.014864903174279692
58.077,0.011185017913457216
58.077999999999996,0.007424683372798253
58.079,0.004195739187637546
58.08,0.0017499147561359884
58.080999999999996,0.0001146580212012962
58.082,0.0020000619930519415
58.083,0.004695660431361433
58.083999999999996,0.008849450450308475
58.085,0.014620964820856345
58.086,0.021440997849049997
58.086999999999996,0.02798960794620052
58.088,0.03244545473410749
58.089,0.03297088961999608
58.089999999999996,0.028306674932470608
58.091,0.018291080316041083
58.092,0.00411657144404909
58.092999999999996,0.011798436419571741
58.094,0.02633021551576569
58.095,0.03643947660572181
58.096,0.04000505008096482
58.097,0.03644171402031473
58.098,0.02689308586866239
58.099,0.013915788339427918
58.1,0.0007331717813446729
58.101,0.009717693540762903
58.102,0.015644346730690883
58.103,0.016881739643722988
58.104,0.014835422075938104
58.105,0.01189824800848541
58.106,0.010532917692101266
58.107,0.01233193056106128
58.108,0.017382274918768932
58.109,0.024165189031898984
58.11,0.030041354758775406
58.111,0.03216873488753614
58.112,0.02854391031556924
58.113,0.01880417738685777
58.114,0.004498722773756924
58.115,0.01128800588562652
58.116,0.02485675121501415
58.117,0.03306215928972125
58.118,0.03433911372510281
58.119,0.029232913548212492
58.12,0.020238926121695647
58.121,0.0109873169279334
58.122,0.005031575464986036
58.123,0.004639290024438832
58.124,0.009990783331966038
58.125,0.01906132776843662
58.126,0.02823806074036804
58.126999999999995,0.03347853143252985
58.128,0.03163640264470078
58.129,0.02152264833031674
58.129999999999995,0.004357031361775228
58.131,0.01653460396275111
58.132,0.0366745900937814
58.132999999999996,0.05172638449216284
58.134,0.0587099597279891
58.135,0.05675975410990232
58.135999999999996,0.04720645710294354
58.137,0.03299277733299045
58.138,0.017650987247013153
58.138999999999996,0.00420313693968363
58.14,0.005649197615146179
58.141,0.011797727072157827
58.141999999999996,0.015413627790000701
58.143,0.018204883276845888
58.144,0.021545609365817425
58.144999999999996,0.0258094520542817
58.146,0.03015139625470808
58.147,0.032810305262757154
58.147999999999996,0.031811650861990164
58.149,0.02580518168305836
58.15,0.014725767191398237
58.150999999999996,3.129179546104267e-05
58.152,0.015576843378108657
58.153,0.028863103217810538
58.153999999999996,0.03696219526166214
58.155,0.03818137104469383
58.156,0.032445534035126365
58.157,0.021257662476335783
58.158,0.007212390675543197
58.159,0.0067556667825429285
58.16,0.018134132912069337
58.161,0.025369971711351386
58.162,0.02804460677803551
58.163,0.026688209828875643
58.164,0.02235908078370256
58.165,0.016180873300130717
58.166,0.00901865803136202
58.167,0.0013944918343190918
58.168,0.006370063200416275
58.169,0.013896429231746188
58.17,0.020534613240444113
58.171,0.025325846089818187
58.172,0.027193158370231205
58.173,0.025303917658048243
58.174,0.019462127910522292
58.175,0.010359056976164243
58.176,0.0004477052450366729
58.177,0.010858741387257
58.178,0.018775777746672176
58.179,0.02268764705758658
58.18,0.02209659698010817
58.181,0.017631335426797474
58.182,0.010802202754071474
58.183,0.003483003948541872
58.184,0.002695310284113284
58.185,0.006820765356164665
58.186,0.008876518897412353
58.187,0.0095610385872282
58.188,0.009833388506239448
58.189,0.010373291656987771
58.19,0.01118321397912319
58.190999999999995,0.011509536711449912
58.192,0.010138025801189816
58.193,0.005969144369285662
58.193999999999996,0.001342610930280283
58.195,0.010946487414965693
58.196,0.020759469665063535
58.196999999999996,0.027910193590229768
58.198,0.029563169136603347
58.199,0.023873879438393263
58.199999999999996,0.010754657630381146
58.201,0.00783064982918339
58.202,0.028186229404947822
58.202999999999996,0.04576493473409645
58.204,0.05636888761064327
58.205,0.05731347389899861
58.205999999999996,0.04819646821918323
58.207,0.031029402077257115
58.208,0.009684480719302693
58.208999999999996,0.01117652936932193
58.21,0.027364936082674523
58.211,0.036238068754692876
58.211999999999996,0.03726908062446531
58.213,0.03196662510753917
58.214,0.023206421389885396
58.214999999999996,0.014218905246819409
58.216,0.007573556586076762
58.217,0.0044821265668617315
58.217999999999996,0.004619941175435189
58.219,0.006481519633940545
58.22,0.00810735166631335
58.221,0.007902936548138258
58.222,0.005255621008241857
58.223,0.0007406572216104382
58.224,0.004138044232979423
58.225,0.007560148168878925
58.226,0.008120029199830178
58.227,0.005406534701098164
58.228,0.00022036521018180293
58.229,0.005650398977278289
58.23,0.010019520010896756
58.231,0.011052303391392853
58.232,0.007916645033209425
58.233,0.0011108623864616396
58.234,0.007645873180093588
58.235,0.015927308365468053
58.236,0.021350667510956482
58.237,0.022319870040942703
58.238,0.018522073556113617
58.239,0.011020941086975626
58.24,0.0019217223206040913
58.241,0.00628004246231215
58.242,0.011456674436738229
58.243,0.012475067596599722
58.244,0.009500681438237558
58.245,0.003892998053114145
58.246,0.0022644209544120985
58.247,0.00684446831487035
58.248,0.008352084092996374
58.249,0.006386235301618752
58.25,0.0017495111859612497
58.251,0.003823674306521832
58.251999999999995,0.008233579047317955
58.253,0.009702142571560941
58.254,0.007371581993542801
58.254999999999995,0.001632168469965966
58.256,0.005924450284222884
58.257,0.012922152898256108
58.257999999999996,0.016876663402240127
58.259,0.01594440930528467
58.26,0.009532001274034571
58.260999999999996,0.0014127986350085742
58.262,0.01452549262499626
58.263,0.026551001363726134
58.263999999999996,0.03414790373789875
58.265,0.034766798315245005
58.266,0.02737046611762402
58.266999999999996,0.012796537270508007
58.268,0.006348639808759044
58.269,0.026254654869511486
58.269999999999996,0.04279637019183002
58.271,0.05252233997323978
58.272,0.053483689264554164
58.272999999999996,0.045682372151836126
58.274,0.031018235965987746
58.275,0.012751543288573542
58.275999999999996,0.005366840791819283
58.277,0.020051324145323377
58.278,0.02925392661545118
58.278999999999996,0.03253992695108422
58.28,0.030974725349335822
58.281,0.0265796336454725
58.282,0.021546592202038937
58.283,0.01747430125747062
58.284,0.014876538027877613
58.285,0.013119750987672719
58.286,0.010800655825998663
58.287,0.006423178086168613
58.288,0.0008714786823217932
58.289,0.010790661485846984
58.29,0.021791048328335987
58.291,0.031452084708277143
58.292,0.03721367439790809
58.293,0.037235642999363244
58.294,0.03108215542484873
58.295,0.019981474195805024
58.296,0.006547555896371084
58.297,0.005968966093927257
58.298,0.014668035861514562
58.299,0.017902406206592756
58.3,0.01578874763815254
58.301,0.01014455001691708
58.302,0.0038576632976885868
58.303,0.00011118135499427927
58.304,0.00023797967970645454
58.305,0.005226138126567625
58.306,0.013345004278336374
58.307,0.02173887941334248
58.308,0.027168253932832235
58.309,0.027136456100595025
58.31,0.02079775193264244
58.311,0.009331478635676889
58.312,0.004358018868372534
58.313,0.01652962537506284
58.314,0.023795013617973117
58.315,0.02421625893381846
58.315999999999995,0.017943881155848287
58.317,0.007178236210564215
58.318,0.00453734711802336
58.318999999999996,0.013459040792694619
58.32,0.016841304284788104
58.321,0.013793980476023121
58.321999999999996,0.005515772078692156
58.323,0.005166256288749579
58.324,0.014786552893712876
58.324999999999996,0.02041768393522762
58.326,0.020630734017857158
58.327,0.01591450208557604
58.327999999999996,0.008417628626837346
58.329,0.001112891631745304
58.33,0.0033170239848706244
58.330999999999996,0.003476833902913471
58.332,0.00021554401160873694
58.333,0.005665442577104296
58.333999999999996,0.009860383268919101
58.335,0.009993667459769769
58.336,0.004564021582333856
58.336999999999996,0.0059357987684874585
58.338,0.01899487182167263
58.339,0.030756973841293164
58.339999999999996,0.037189141362865386
58.341,0.03537615191877251
58.342,0.024523973634544786
58.342999999999996,0.00634445214609189
58.344,0.015311145727455688
58.345,0.035465407580664805
58.346,0.0493696504956358
58.347,0.053793876365204434
58.348,0.04787337046379346
58.349,0.033278027572532946
58.35,0.013681503975503837
58.351,0.006284393453608975
58.352,0.022264106572730185
58.353,0.031242656143742237
58.354,0.03215901185988554
58.355,0.025943972764355
58.356,0.015037585209605246
58.357,0.002585579354890981
58.358,0.008418341904916492
58.359,0.01580037775219233
58.36,0.018535998163188325
58.361,0.01672000168978407
58.362,0.011270360558927175
58.363,0.003522383527360899
58.364,0.005132051285217531
58.365,0.01346226928670611
58.366,0.020458475945944157
58.367,0.025291458384977636
58.368,0.027265745594865592
58.369,0.02584618188447482
58.37,0.020785135850881736
58.371,0.012310656192548513
58.372,0.0012848804626337878
58.373,0.01076999226733305
58.374,0.0218466335083489
58.375,0.029827784446017358
58.376,0.03298253241905735
58.376999999999995,0.03044638964751565
58.378,0.022533490904810945
58.379,0.010766422932573643
58.379999999999995,0.002412307356472117
58.381,0.014188301042767894
58.382,0.02204356362553775
58.382999999999996,0.0243661577434329
58.384,0.020836068475449648
58.385,0.01248478022888653
58.385999999999996,0.0014176595006430224
58.387,0.009719489260503797
58.388,0.018382636053641415
58.388999999999996,0.02271208767332475
58.39,0.021913312743355867
58.391,0.016356980867741115
58.391999999999996,0.007398137300265534
58.393,0.003014068747270285
58.394,0.012819470187002004
58.394999999999996,0.020296450834795688
58.396,0.024375678627736447
58.397,0.024762624473454627
58.397999999999996,0.021867964121990057
58.399,0.016591969016437984
58.4,0.01003787776389308
58.400999999999996,0.003235657791763049
58.402,0.0030566815891291646
58.403,0.008435727535685727
58.403999999999996,0.012815446723378778
58.405,0.016298601490424818
58.406,0.01900820836889214
58.407,0.02093930960073067
58.408,0.021884220183923046
58.409,0.021462542152027697
58.41,0.0192551088029731
58.411,0.015006170457415448
58.412,0.008830031449888536
58.413,0.0013463032965779695
58.414,0.0063217189077947305
58.415,0.012717696065721274
58.416,0.01637429174392842
58.417,0.016216114717358246
58.418,0.01193372802566391
58.419,0.004208349266290075
58.42,0.005306763746076954
58.421,0.014281851697712457
58.422,0.020236968696283646
58.423,0.021176953822188604
58.424,0.016165651110815624
58.425,0.005669784133699464
58.426,0.008445208451357671
58.427,0.023292622449063854
58.428,0.03563324482076011
58.429,0.04266406770935702
58.43,0.04271324697776689
58.431,0.035647998869389234
58.432,0.022881624477915825
58.433,0.006981501825331431
58.434,0.009003781945896145
58.435,0.022299692471511298
58.436,0.03102648154923687
58.437,0.034517818193215415
58.438,0.03327060680087174
58.439,0.028578205737651987
58.44,0.021996715894526224
58.440999999999995,0.014837787037301507
58.442,0.007857691566303409
58.443,0.001230732848196294
58.443999999999996,0.005214991888786889
58.445,0.01162036065372608
58.446,0.017749628711656182
58.446999999999996,0.022836107428147772
58.448,0.025704149215506247
58.449,0.025143385279300066
58.449999999999996,0.020407258030836754
58.451,0.011647784045957094
58.452,0.00010591322988692879
58.452999999999996,0.012048152496488653
58.454,0.022211995296259366
58.455,0.02805153654182159
58.455999999999996,0.02819012397405748
58.457,0.02266014938833574
58.458,0.012956913925278823
58.458999999999996,0.0016571391874716658
58.46,0.00829567524479748
58.461,0.014426499731504323
58.461999999999996,0.015428672808930712
58.463,0.011511557358674424
58.464,0.0042887055791183334
58.464999999999996,0.0037559550708644407
58.466,0.010053713631668255
58.467,0.012740751798356086
58.467999999999996,0.011206625984819732
58.469,0.006236844449217806
58.47,0.0002837541512006812
58.471,0.006001251501193348
58.472,0.00884950191461083
58.473,0.007693981187874948
58.474,0.002667443629499227
58.475,0.004893567365121438
58.476,0.012874170196350164
58.477,0.01902141709644013
58.478,0.02159462704296131
58.479,0.019831083220640488
58.48,0.014102614015914656
58.481,0.005742310677895025
58.482,0.0033778599721588473
58.483,0.01137089500242895
58.484,0.01679854008579201
58.485,0.01895200416576319
58.486,0.01789931779793182
58.487,0.014328079883225936
58.488,0.009270365889650562
58.489,0.0038164016576628782
58.49,0.0010966363092178436
58.491,0.0047818624069090425
58.492,0.00680041395201562
58.493,0.00691159145795757
58.494,0.005035561280546188
58.495,0.0012671234252556484
58.496,0.004060843379149723
58.497,0.010304984732106079
58.498,0.01649142632375243
58.499,0.021400889007943735
58.5,0.023775873987068
58.501,0.02261664399207945
58.501999999999995,0.01748782248200523
58.503,0.008736386000614325
58.504,0.002464925019754957
58.504999999999995,0.014289078408542115
58.506,0.02461717938260704
58.507,0.0315063171101821
58.507999999999996,0.03363938204319309
58.509,0.030632814778234093
58.51,0.02311627354065693
58.510999999999996,0.012563299656307196
58.512,0.0009236756253195571
58.513,0.009836323215736577
58.513999999999996,0.018157379897490333
58.515,0.023163164821480002
58.516,0.024727941587048576
58.516999999999996,0.02334076507196468
58.518,0.019831749850052493
58.519,0.015061968166361706
58.519999999999996,0.00968002674926378
58.521,0.004016636573487468
58.522,0.0018644573557694923
58.522999999999996,0.007996656624036837
58.524,0.014299553738914932
58.525,0.02041669582007807
58.525999999999996,0.02567284223569833
58.527,0.029178406438195328
58.528,0.030056356446265607
58.528999999999996,0.027722342759902534
58.53,0.022126542074565943
58.531,0.013872695978413412
58.532,0.0041639348828128074
58.533,0.005424207345532629
58.534,0.01329099160580677
58.535,0.018187307437561383
58.536,0.01951909692062466
58.537,0.017491238492007108
58.538,0.01304755206679764
58.539,0.007617763838477229
58.54,0.002735616063293418
58.541,0.0003709383860929734
58.542,0.0011066858047570668
58.543,0.0003372957523101266
58.544,0.0030486580679628243
58.545,0.0056638185355314796
58.546,0.006772930528294145
58.547,0.005350769344531311
58.548,0.0010941997970940547
58.549,0.005431151825466057
58.55,0.012883148369439783
58.551,0.019458467456540746
58.552,0.023353482837508502
58.553,0.0232507983528414
58.554,0.01870068004053231
58.555,0.010291222394182009
58.556,0.0004447140030828682
58.557,0.011368207747000923
58.558,0.020235056668833195
58.559,0.025230945177888972
58.56,0.02540347912772521
58.561,0.020880896398919876
58.562,0.012824127545130291
58.563,0.003129316301366096
58.564,0.006037751293141526
58.565,0.012753216467083148
58.565999999999995,0.015764091487481615
58.567,0.01473388509984541
58.568,0.01025712354971804
58.568999999999996,0.003656746561090723
58.57,0.0033686353672322533
58.571,0.009150157214795356
58.571999999999996,0.012407438916345609
58.573,0.012485178538900908
58.574,0.009431777322725626
58.574999999999996,0.003926299182941851
58.576,0.0029073268556313115
58.577,0.00974389632063991
58.577999999999996,0.015304356552860703
58.579,0.01856613829925146
58.58,0.01891271553684798
58.580999999999996,0.016213227041929665
58.582,0.010831285736168124
58.583,0.0035651017111572136
58.583999999999996,0.004477150023519588
58.585,0.012057594617101009
58.586,0.018024696190759703
58.586999999999996,0.0215309522426838
58.588,0.022206269963774623
58.589,0.020239079992498285
58.589999999999996,0.0163306622802544
58.591,0.011517262519694097
58.592,0.0068930037918530735
58.592999999999996,0.0033025473079557606
58.594,0.0010924280694366894
58.595,3.832157532114872e-06
58.596,0.0007450248602162649
58.597,0.002194206828496008
58.598,0.005262507540604144
58.599,0.010365503088764282
58.6,0.01715655437651014
58.601,0.024489151141604885
58.602,0.030637294741715095
58.603,0.03373150195054559
58.604,0.03229603876303527
58.605,0.02573212946397682
58.606,0.014597358727493596
58.607,0.0005841579291954973
58.608,0.013814368473077081
58.609,0.02587069002642477
58.61,0.033270122060379666
58.611,0.034662009206324736
58.612,0.029964725397336342
58.613,0.02034627677345485
58.614,0.007896473503799175
58.615,0.004906431259497762
58.616,0.015778856055199866
58.617,0.02310543810825421
58.618,0.026188420691549932
58.619,0.02523459753265699
58.62,0.02112310693323032
58.621,0.015057433377403204
58.622,0.008225379052330731
58.623,0.0015678695750182292
58.624,0.004297210800952553
58.625,0.009014372213730379
58.626,0.012361177669398262
58.626999999999995,0.014136057880108743
58.628,0.014129880403110879
58.629,0.012201053257297595
58.629999999999995,0.008419377191247303
58.631,0.0032041152254109217
58.632,0.0026264590434284746
58.632999999999996,0.00794896754913891
58.634,0.011573002351223523
58.635,0.012563700505812661
58.635999999999996,0.01054606929463667
58.637,0.005880455064474822
58.638,0.0003685676397170405
58.638999999999996,0.006683331790054957
58.64,0.01150329880575373
58.641,0.01367485405700067
58.641999999999996,0.012799824344958131
58.643,0.009366937373379017
58.644,0.004615334383698704
58.644999999999996,0.00016349944666881744
58.646,0.0024869673832870038
58.647,0.002420779999118555
58.647999999999996,0.00039480338908052447
58.649,0.0050809621760693644
58.65,0.010096930316360152
58.650999999999996,0.013693371120131968
58.652,0.014432160754935443
58.653,0.011616129739178662
58.653999999999996,0.005501883563505032
58.655,0.002763282361250078
58.656,0.011455383363070283
58.657,0.018740206429310523
58.658,0.023153065755041845
58.659,0.02395570129840446
58.66,0.021277641746419655
58.661,0.016017586196104328
58.662,0.009550941292325817
58.663,0.0033410060843079774
58.664,0.0014305365732130246
58.665,0.004115692250424086
58.666,0.004681089498964366
58.667,0.0036191012789447293
58.668,0.001738192616105816
58.669,9.169726578732169e-05
58.67,0.0011625521873284339
58.671,0.0010667011690615844
58.672,0.0002686338201777443
58.673,0.0026352495554197415
58.674,0.005648086405423044
58.675,0.00885551156880217
58.676,0.011821908938980686
58.677,0.01416859472384337
58.678,0.015579833419145456
58.679,0.01579451869404413
58.68,0.01460662325348919
58.681,0.011889164082909687
58.682,0.007641503464687247
58.683,0.00204466405241583
58.684,0.004500055795281218
58.685,0.011373936444162328
58.686,0.017800420786996774
58.687,0.022960522409152223
58.688,0.026145243186950138
58.689,0.02691185873056909
58.69,0.025204459778774328
58.690999999999995,0.021402740275681915
58.692,0.016276464816147813
58.693,0.010843791173841747
58.693999999999996,0.006155350070823261
58.695,0.0030473631550460133
58.696,0.0019207049973835862
58.696999999999996,0.00260428357991786
58.698,0.004348168344306917
58.699,0.005965415158585376
58.699999999999996,0.006106048091684776
58.701,0.0036099788114684634
58.702,0.002142536371744665
58.702999999999996,0.010974828569982085
58.704,0.021831162473184586
58.705,0.032910235746404747
58.705999999999996,0.042004844824671234
58.707,0.04698145309674179
58.708,0.046289332274166
58.708999999999996,0.03937121323298322
58.71,0.026863796056199537
58.711,0.010525322003527767
58.711999999999996,0.007103027409959162
58.713,0.023223879563006346
58.714,0.03536847376921956
58.714999999999996,0.04189279322761565
58.716,0.04226321451958775
58.717,0.03706973759563891
58.717999999999996,0.027781929117774166
58.719,0.016333353994065238
58.72,0.0046625559267052166
58.721,0.00566033871876304
58.722,0.013631942588891562
58.723,0.018815417158730047
58.724,0.021187526868482087
58.725,0.020926810912542
58.726,0.018247016389334163
58.727,0.01334921492905568
58.728,0.006506248502031107
58.729,0.001772603524203062
58.73,0.010594506461775776
58.731,0.0186573768236526
58.732,0.02441078879191322
58.733,0.026396891801345503
58.734,0.023685305123798475
58.735,0.01625928223057603
58.736,0.005201076317714223
58.737,0.007428533423721802
58.738,0.019029131999509633
58.739,0.02712127788571338
58.74,0.030043452979248465
58.741,0.027465416512277095
58.742,0.02053506486096766
58.743,0.011578572385609805
58.744,0.003412792140473369
58.745,0.0015392836104944846
58.746,0.0020595226350768165
58.747,0.0013954281904944158
58.748,0.006742264358524803
58.749,0.01085961816893538
58.75,0.010567293186186143
58.751,0.0037110323447854913
58.752,0.00998482681172266
58.753,0.028582867628425473
58.754,0.04825762999737841
58.754999999999995,0.06422494113589955
58.756,0.07203134385207849
58.757,0.06883742486243243
58.757999999999996,0.05431423837809635
58.759,0.03087293288337427
58.76,0.003136539186584983
58.760999999999996,0.02321582258496723
58.762,0.04291495453999625
58.763,0.052464816495424796
58.763999999999996,0.05101588238270358
58.765,0.040502205032953896
58.766,0.02500958363088693
58.766999999999996,0.009565178923991988
58.768,0.0012956666309966811
58.769,0.0047707778195657064
58.769999999999996,0.0004901826920471063
58.771,0.009511305004870558
58.772,0.021514912371999106
58.772999999999996,0.03129692416235047
58.774,0.035403607185557004
58.775,0.03214398067572023
58.775999999999996,0.02201961412686041
58.777,0.0074884373308895654
58.778,0.007838048837514433
58.778999999999996,0.02029957905558603
58.78,0.027250044294645275
58.781,0.02776220716737905
58.782,0.022780172709864262
58.783,0.014701845116052471
58.784,0.0065480148774048385
58.785,0.000993917870931343
58.786,0.0004314576277760871
58.787,0.0022609414596456265
58.788,0.007635333395812604
58.789,0.013393156075457146
58.79,0.01718239980244227
58.791,0.01738466419118544
58.792,0.013628093234922376
58.793,0.006871234169363666
58.794,0.0009540769206944935
58.795,0.007610112758514137
58.796,0.011303413152119898
58.797,0.011268844484760194
58.798,0.007998049208709735
58.799,0.0030423103248137114
58.8,0.0015396677217883483
58.801,0.00390245510619051
58.802,0.003061725152554612
58.803,0.0007483779148337725
58.804,0.00613161487800981
58.805,0.01098843926186649
58.806,0.013233846285956318
58.807,0.011543519446025897
58.808,0.005882680755023977
58.809,0.0023649293439538684
58.81,0.010728654677235171
58.811,0.01636044865697677
58.812,0.01691887052623825
58.813,0.01136318661581861
58.814,0.00041131228739873154
58.815,0.013492295529507651
58.815999999999995,0.026713074673502854
58.817,0.03533557842903097
58.818,0.03620451767340208
58.818999999999996,0.02781521255861238
58.82,0.010808973775186859
58.821,0.012065395945616878
58.821999999999996,0.03652009728493114
58.823,0.0576835746819639
58.824,0.07120127144620075
58.824999999999996,0.07420914354372886
58.826,0.06594770726055416
58.827,0.047882635480316266
58.827999999999996,0.023324802086995035
58.829,0.003336511094543414
58.83,0.02758919659970581
58.830999999999996,0.04571501839714328
58.832,0.055467160966800114
58.833,0.05638035710954013
58.833999999999996,0.04967969405260727
58.835,0.037846076987297854
58.836,0.023964896865818278
58.836999999999996,0.011017487113856705
58.838,0.0012702745860441724
58.839,0.004119495673735982
58.839999999999996,0.005218319705786204
58.841,0.0031503752772362175
58.842,0.0002932107903119208
58.842999999999996,0.0031714143623291814
58.844,0.003916237082641146
58.845,0.0017422217967917812
58.846,0.003152159626889972
58.847,0.009641068073748994
58.848,0.01597723818644285
58.849,0.02027765809754136
58.85,0.02106934898185606
58.851,0.017750693422964182
58.852,0.010834247044236998
58.853,0.001885313892984031
58.854,0.00685132665964606
58.855,0.013054744304603617
58.856,0.015003730623595198
58.857,0.012130407383813102
58.858,0.005274155975563935
58.859,0.0034681253366819257
58.86,0.01128627638775749
58.861,0.015464547731973895
58.862,0.01422823291639628
58.863,0.007372328575486501
58.864,0.0035401019568495886
58.865,0.015507374262394524
58.866,0.024888891080156364
58.867,0.028467688882547377
58.868,0.024471235218539947
58.869,0.013235910393833426
58.87,0.002712847411202006
58.871,0.019230222223126755
58.872,0.03164427417865145
58.873,0.03607850019432028
58.874,0.030627483974391054
58.875,0.016033427202119505
58.876,0.004356668818869294
58.877,0.025370691238236206
58.878,0.04133129974986376
58.879,0.047558049043184746
58.879999999999995,0.04163497387083617
58.881,0.024089510467633714
58.882,0.0017051298929008118
58.882999999999996,0.030371691340436397
58.884,0.05587372761481825
58.885,0.07298764739257134
58.885999999999996,0.07850323891023425
58.887,0.07184708104230245
58.888,0.055000608762139455
58.888999999999996,0.031789843121482336
58.89,0.006794136433841437
58.891,0.01579262052462121
58.891999999999996,0.033033932218061744
58.893,0.043652625472130224
58.894,0.04792195108230971
58.894999999999996,0.047163707828222726
58.896,0.04307625109197168
58.897,0.03713736933256899
58.897999999999996,0.030266176919284703
58.899,0.02281184758293974
58.9,0.014809427776378569
58.900999999999996,0.006349227356579833
58.902,0.002123058950340882
58.903,0.009717023207804133
58.903999999999996,0.015267519048968132
58.905,0.01770416778001237
58.906,0.016477427286922305
58.907,0.011870077216668735
58.908,0.0050591528458964466
58.909,0.0021199831358014024
58.91,0.0076501272125214905
58.911,0.009905014184174811
58.912,0.008136206983612445
58.913,0.0027158430584503005
58.914,0.004945995211200856
58.915,0.012787080977160557
58.916,0.018664892186820662
58.917,0.020942030629100872
58.918,0.01891371751644263
58.919,0.01296065126321154
58.92,0.004398925127939593
58.921,0.004909407280459116
58.922,0.01305569899502599
58.923,0.018543917403773615
58.924,0.02058704989411535
58.925,0.019180588137788154
58.926,0.014967079150094697
58.927,0.008966221494762583
58.928,0.0022736191548238115
58.929,0.00417758585799585
58.93,0.009736691371579719
58.931,0.014032881467516427
58.932,0.01689032755898646
58.933,0.018223405321187647
58.934,0.01796932139335951
58.935,0.016088116990825435
58.936,0.01262356775509116
58.937,0.007788206653416488
58.938,0.0020231711099009454
58.939,0.004007321785112016
58.94,0.00950111414664025
58.940999999999995,0.013665299529642145
58.942,0.015882897901644776
58.943,0.015847609442377168
58.943999999999996,0.013625358478683411
58.945,0.009625910635717229
58.946,0.004497238633230966
58.946999999999996,0.0010213378570716747
58.948,0.006241868563673743
58.949,0.010627928967914976
58.949999999999996,0.013833209088306207
58.951,0.01568327727620314
58.952,0.01612429987699346
58.952999999999996,0.015170271843697637
58.954,0.012875018211153428
58.955,0.009340093937760018
58.955999999999996,0.004751384772937875
58.957,0.0005770222734867606
58.958,0.00617812835842633
58.958999999999996,0.011447378874151877
58.96,0.01570563093908805
58.961,0.01830132607494054
58.961999999999996,0.018730527945392057
58.963,0.016747448730824444
58.964,0.01243995386672802
58.964999999999996,0.0062525584178110055
58.966,0.0010497012810548052
58.967,0.008472692692941429
58.967999999999996,0.014928030693801124
58.969,0.019394071487291345
58.97,0.021082176884408707
58.971,0.019584634619303924
58.972,0.014978892039304024
58.973,0.007863557893928008
58.974,0.0006927394441949118
58.975,0.009296330568837117
58.976,0.016455512284129798
58.977,0.020856205116575356
58.978,0.021634040857215805
58.979,0.01858131691328689
58.98,0.012232736029725237
58.981,0.003795696712570679
58.982,0.005074435774352027
58.983,0.01261441233291744
58.984,0.017335881201715506
58.985,0.01836159216571323
58.986,0.01563161677908697
58.987,0.009924428989586846
58.988,0.0026817011225263375
58.989,0.004325927037783016
58.99,0.009414871555718053
58.991,0.011388175425864521
58.992,0.009823641641691454
58.993,0.005181845121288864
58.994,0.0012923832102453305
58.995,0.00785379001849266
58.996,0.012662858021639812
58.997,0.014224296003371934
58.998,0.011760615152253188
58.999,0.005436570316431029
59.0,0.0036197425838485177
59.001,0.013512257913234219
59.002,0.02195709725323199
59.003,0.026775145175554994
59.004,0.02639575975536248
59.004999999999995,0.020259824964930062
59.006,0.009022733756779266
59.007,0.0055060437703072845
59.007999999999996,0.020694756076072865
59.009,0.0336358640097356
59.01,0.041791588938496126
59.010999999999996,0.04358610696412486
59.012,0.03879110806732755
59.013,0.028592246399111662
59.013999999999996,0.015300810746902782
59.015,0.001770100368582718
59.016,0.00933657723581886
59.016999999999996,0.016227082483413296
59.018,0.0184144009605195
59.019,0.01676972029259717
59.019999999999996,0.01316967839440239
59.021,0.009837138924431704
59.022,0.00857614960655938
59.022999999999996,0.010145294125067983
59.024,0.013980668849845956
59.025,0.018375262458025995
59.025999999999996,0.02107498987393638
59.027,0.020108930330122194
59.028,0.014580608612168937
59.028999999999996,0.005142636083699146
59.03,0.006033831942590169
59.031,0.015824358064715365
59.032,0.021101037803070596
59.033,0.019775802379433414
59.034,0.01159421372516016
59.035,0.0016031075505974714
59.036,0.01627560439755081
59.037,0.028149122179760615
59.038,0.03347532008887285
59.039,0.03019537713952783
59.04,0.01863178241061804
59.041,0.0014692247596617741
59.042,0.01699294479259443
59.043,0.0320989320525549
59.044,0.0402163435733873
59.045,0.039800336929767303
59.046,0.03179927818899735
59.047,0.019268802263787948
59.048,0.006318967109687273
59.049,0.0032599031278359187
59.05,0.007237710091172948
59.051,0.005637332398451576
59.052,0.0006456734781581259
59.053,0.004229846394455628
59.054,0.0054766909320112965
59.055,0.0009180823817055814
59.056,0.009382517223597299
59.057,0.022975002849655972
59.058,0.035705262852945265
59.059,0.04301947718409484
59.06,0.041469906755280256
59.061,0.029926795359605154
59.062,0.010089816228417299
59.063,0.01388305425692831
59.064,0.036525161395345125
59.065,0.052631988443442176
59.065999999999995,0.05875930379139952
59.067,0.05417958827548519
59.068,0.04100470176015825
59.068999999999996,0.023452365687863897
59.07,0.006506630478216325
59.071,0.005591293890968872
59.071999999999996,0.010544857040667172
59.073,0.008534438295347526
59.074,0.0019461281172852931
59.074999999999996,0.005573645595328138
59.076,0.01039780925847786
59.077,0.01010247668694484
59.077999999999996,0.004179531695481818
59.079,0.005922027476572237
59.08,0.01739392082454536
59.080999999999996,0.027065156834295268
59.082,0.03244091677805894
59.083,0.03243790489145721
59.083999999999996,0.0275968244176506
59.085,0.019745279762149473
59.086,0.011273169392981053
59.086999999999996,0.004302533791383858
59.088,4.7320156765455984e-05
59.089,0.0014326010565466605
59.089999999999996,0.001035978101778703
59.091,9.924076762795041e-05
59.092,0.0002238277751481781
59.092999999999996,0.0005644326031994015
59.094,0.002152826989354096
59.095,0.003629668488208059
59.096,0.0039502240818838005
59.097,0.002463522615047238
59.098,0.0007193079086540724
59.099,0.004667303280991259
59.1,0.007912177422270067
59.101,0.008968838346697929
59.102,0.006899923033499391
59.103,0.0017122640509895212
59.104,0.005565854759781007
59.105,0.013161683709732317
59.106,0.019096608567446882
59.107,0.021801352930543593
59.108,0.020598359008058995
59.109,0.015892514129010857
59.11,0.009016479148159093
59.111,0.0017968216729032666
59.112,0.004001644271188995
59.113,0.007164865053309822
59.114,0.007300639535973691
59.115,0.004828609934712649
59.116,0.0007296219801216698
59.117,0.0038251678738893324
59.118,0.007817268229841457
59.119,0.010579107327292522
59.12,0.011805101009255088
59.121,0.011418036666630691
59.122,0.009393515554403743
59.123,0.005656387236373041
59.124,0.00012148389531341335
59.125,0.0071253601980144545
59.126,0.015588327840070007
59.127,0.02419307469671663
59.128,0.03130889916447814
59.129,0.03501900913952579
59.129999999999995,0.03360029007155385
59.131,0.026081091782759237
59.132,0.012692832581346644
59.132999999999996,0.00495763432642941
59.134,0.024092172940775803
59.135,0.0413222297338604
59.135999999999996,0.05342776590730641
59.137,0.0581367846399602
59.138,0.054678043573743874
59.138999999999996,0.043943829937706534
59.14,0.028217746906423126
59.141,0.010555111576126314
59.141999999999996,0.005993423584590178
59.143,0.019084780417935387
59.144,0.027517981933923727
59.144999999999996,0.03130143723811904
59.146,0.031376363090820654
59.147,0.029125906688448652
59.147999999999996,0.02585476138669009
59.149,0.02241274190142076
59.15,0.01906634385506138
59.150999999999996,0.015623165408448755
59.152,0.01172251224969898
59.153,0.007153854935254815
59.153999999999996,0.002068904513370539
59.155,0.002992673811414825
59.156,0.007263354006741819
59.157,0.010018617037880775
59.158,0.010843359655010985
59.159,0.009786261673966843
59.16,0.007344415653031043
59.161,0.0042908047987681745
59.162,0.00141896099611375
59.163,0.0006920684898031386
59.164,0.0018038371378099162
59.165,0.0019974723407436153
59.166,0.001531611444069007
59.167,0.000656397443498611
59.168,0.0005232171049412105
59.169,0.002067195179164431
59.17,0.00409218634146251
59.171,0.006588086377888781
59.172,0.009255093934329888
59.173,0.011459010442749357
59.174,0.012359746522484378
59.175,0.011195143875749306
59.176,0.007627657571479298
59.177,0.0020164424262093987
59.178,0.004516244263470851
59.179,0.01029462591712068
59.18,0.013548266374727355
59.181,0.012994102088345701
59.182,0.008351388026515388
59.183,0.000597837093322461
59.184,0.00815713848858973
59.185,0.015187772340586233
59.186,0.017930204513898814
59.187,0.014798480915331518
59.188,0.005781728786481329
59.189,0.007382693562331114
59.19,0.021544093194444957
59.190999999999995,0.032911364163108206
59.192,0.03805608697636345
59.193,0.034861235716849494
59.193999999999996,0.023140910342752678
59.195,0.004750852761346744
59.196,0.016841403815251853
59.196999999999996,0.03740105788917207
59.198,0.05294375259486924
59.199,0.06064493223904533
59.199999999999996,0.05940454255132314
59.201,0.04994349818314874
59.202,0.034450116666787045
59.202999999999996,0.01591993713181592
59.204,0.00259655475715548
59.205,0.018624456731718933
59.205999999999996,0.030625059782832604
59.207,0.03804161556357125
59.208,0.041088800296794535
59.208999999999996,0.04041404289651867
59.21,0.036775284533611584
59.211,0.030843644239194896
59.211999999999996,0.023169857508816845
59.213,0.014279287995442874
59.214,0.004809759712008209
59.214999999999996,0.00440369598044946
59.216,0.012362378255428904
59.217,0.018064363634950495
59.217999999999996,0.02074191085454182
59.219,0.020088597446087215
59.22,0.016386996783379244
59.221,0.010480959379929702
59.222,0.0035915159737493576
59.223,0.002969232067692567
59.224,0.008096908027140338
59.225,0.01111492538273053
59.226,0.011855011389153758
59.227,0.010588332425902958
59.228,0.007849194305543667
59.229,0.004226869227835208
59.23,0.0002047658182450497
59.231,0.0039001897515672473
59.232,0.007890309119602519
59.233,0.011570546383717368
59.234,0.01463034073841924
59.235,0.016592946258188482
59.236,0.016874126514787757
59.237,0.014946759380853512
59.238,0.010561447630476587
59.239,0.003943197486197381
59.24,0.004117692677486632
59.241,0.012334455114105962
59.242,0.01915725513311259
59.243,0.02312196323683165
59.244,0.023223865633635536
59.245,0.019211186392855756
59.246,0.01171019459380425
59.247,0.0021372444338220104
59.248,0.007589670272709561
59.249,0.015473126284937185
59.25,0.019889721951619747
59.251,0.01996410135303015
59.252,0.01577352400728418
59.253,0.00833563847328988
59.254,0.0006151999963150495
59.254999999999995,0.009008672318867837
59.256,0.014887984165031674
59.257,0.01682778791712132
59.257999999999996,0.014231196457356793
59.259,0.007446327002396685
59.26,0.0023163462681223997
59.260999999999996,0.013241918001561702
59.262,0.02328473042871913
59.263,0.030576507743164283
59.263999999999996,0.033783532216196815
59.265,0.0323412993125316
59.266,0.02652370347517391
59.266999999999996,0.017340959018046824
59.268,0.0062979695099204
59.269,0.004925805184339946
59.269999999999996,0.01479969741250986
59.271,0.02219742714991329
59.272,0.02653563580966076
59.272999999999996,0.027779138429763702
59.274,0.026331953268456675
59.275,0.022860627177223522
59.275999999999996,0.01810826568666717
59.277,0.012751050124680415
59.278,0.00732685037917846
59.278999999999996,0.0022358881960327817
59.28,0.0022131869929086292
59.281,0.005752579855320892
59.282,0.008137537215477423
59.283,0.009179909979222821
59.284,0.008824122056103776
59.285,0.007231704018073442
59.286,0.004828571916908803
59.287,0.0022759800529297295
59.288,0.00035044167846713214
59.289,0.00024809011933188066
59.29,0.0008909184513845893
59.291,0.0037220716637923006
59.292,0.007685706354023222
59.293,0.01179178248760377
59.294,0.014838074494255983
59.295,0.015711932266012165
59.296,0.013695527003564814
59.297,0.008688777184776206
59.298,0.0012845712965770361
59.299,0.0073286262004036646
59.3,0.01561379400889211
59.301,0.02201847485092326
59.302,0.025309323378869084
59.303,0.024826964869932557
59.304,0.020605561543771966
59.305,0.013339578610384407
59.306,0.004218597410711052
59.307,0.005321228405139171
59.308,0.013869277504990873
59.309,0.02028138785946303
59.31,0.023850830460137376
59.311,0.0243899638800216
59.312,0.022219862374319773
59.313,0.01807648042043364
59.314,0.01294901709511877
59.315,0.007872430908808117
59.315999999999995,0.003704218734550628
59.317,0.0009251955750269458
59.318,0.0004891632791029086
59.318999999999996,0.0010827839856986515
59.32,0.0017918127619490235
59.321,0.00368253441201635
59.321999999999996,0.007603034159458489
59.323,0.013836093015343495
59.324,0.021860696953632703
59.324999999999996,0.030318080964858385
59.326,0.037231969677254347
59.327,0.040460451687438996
59.327999999999996,0.03827890962181147
59.329,0.02993558361295422
59.33,0.016006747770261245
59.330999999999996,0.0015815635085391873
59.332,0.019910018802688074
59.333,0.03573241602805009
59.333999999999996,0.04628116747590465
59.335,0.04998363109691256
59.336,0.0468721496769532
59.336999999999996,0.03855198217353073
59.338,0.027721206876252312
59.339,0.01737560100227541
59.339999999999996,0.009934372131939383
59.341,0.006553879873403979
59.342,0.00684278825387469
59.342999999999996,0.009067952201958863
59.344,0.01078447484543604
59.345,0.009686461148929355
59.346,0.004402850651775909
59.347,0.005019503145605033
59.348,0.017100286591361553
59.349,0.029377777209195814
59.35,0.039173818305060684
59.351,0.044414548328846726
59.352,0.04423438365362812
59.353,0.039167879647479115
59.354,0.030877205105481483
59.355,0.02152270531870405
59.356,0.013005153506710243
59.357,0.00634887955319753
59.358,0.001441136197740651
59.359,0.0027860591251371116
59.36,0.007804261275072845
59.361,0.014772453420613244
59.362,0.023921500766209577
59.363,0.03427005380607798
59.364,0.04378668155083898
59.365,0.0499560483696446
59.366,0.05056433721145644
59.367,0.04444084388538117
59.368,0.03190577525751846
59.369,0.014773480809611432
59.37,0.004089880280094335
59.371,0.021507723152647956
59.372,0.03479290801031992
59.373,0.042356313468528556
59.374,0.04395061265918764
59.375,0.04050782690786815
59.376,0.03366827894834068
59.377,0.02519471548188787
59.378,0.0164858643588369
59.379,0.008344540389078413
59.379999999999995,0.001042266059389818
59.381,0.005399585621844511
59.382,0.010875452836924666
59.382999999999996,0.014984384546442962
59.384,0.017056985106821996
59.385,0.016424997390047307
59.385999999999996,0.012822989317009944
59.387,0.006739138484301326
59.388,0.00046654873268170904
59.388999999999996,0.006780097912247601
59.39,0.010063204297871315
59.391,0.008740572925546104
59.391999999999996,0.002409840666556054
59.393,0.007858907827154133
59.394,0.019677106532181833
59.394999999999996,0.029938635027117078
59.396,0.03570344226803451
59.397,0.03509052304900726
59.397999999999996,0.0278879261057928
59.399,0.015669125653598338
59.4,0.0013622921358352968
59.400999999999996,0.011600841458832882
59.402,0.020288652780553817
59.403,0.02310526748655478
59.403999999999996,0.02019261398653815
59.405,0.013278043239557268
59.406,0.005031629427116331
59.407,0.0018410220237900427
59.408,0.0054615884718390035
59.409,0.005312072613274822
59.41,0.0022732900550871205
59.411,0.0018213781119133978
59.412,0.0049400444737616525
59.413,0.0056357251611478965
59.414,0.003578911720981915
59.415,0.0003441458989280142
59.416,0.0043916658935075105
59.417,0.00664495320804827
59.418,0.005754013192146374
59.419,0.0014788854708320345
59.42,0.005167775142366138
59.421,0.012226921094598421
59.422,0.01743857678500163
59.423,0.01899891624417783
59.424,0.016165602554514342
59.425,0.00950540010779976
59.426,0.0007060789159489673
59.427,0.007973544066008946
59.428,0.014419884983633587
59.429,0.01730178657338467
59.43,0.016420177898711294
59.431,0.012669340910435735
59.432,0.007646556975082707
59.433,0.003064958061390231
59.434,0.0001822797076143857
59.435,0.0005614801408947807
59.436,0.00040935808615727074
59.437,0.0020639519117374074
59.438,0.003209548906159861
59.439,0.0029486639598230815
59.44,0.0009847323362401073
59.440999999999995,0.002318938774780917
59.442,0.006123732790293243
59.443,0.009451322659416228
59.443999999999996,0.01153045659977254
59.445,0.01202465564363445
59.446,0.011069422093637187
59.446999999999996,0.009129426641109778
59.448,0.006757107216279575
59.449,0.004366314213353452
59.449999999999996,0.0021170819533672027
59.451,4.996754641911791e-05
59.452,0.00226269462690284
59.452999999999996,0.004537449575951248
59.454,0.0066709383414135705
59.455,0.008271224803072703
59.455999999999996,0.008928370550940295
59.457,0.008453923059368817
59.458,0.007074341710021013
59.458999999999996,0.005468101132919123
59.46,0.004591724830955303
59.461,0.005327108678700381
59.461999999999996,0.008067264758158393
59.463,0.012404359665871797
59.464,0.017069417432260675
59.464999999999996,0.020196602680806603
59.466,0.0198701879745518
59.467,0.014799506419310658
59.467999999999996,0.0048991978426638026
59.469,0.008441880030473688
59.47,0.02253558694121064
59.471,0.0340077360588895
59.472,0.03969696964269479
59.473,0.0375809037686642
59.474,0.027445175993782902
59.475,0.011076981615030344
59.476,0.008096274076690071
59.477,0.025834541894815842
59.478,0.038147745914144125
59.479,0.04229170711774439
59.48,0.03741938688799922
59.481,0.024718492325732082
59.482,0.007023689444440738
59.483,0.011954981116753052
59.484,0.028545332275992933
59.485,0.03990726640441312
59.486,0.04451134915457881
59.487,0.042224050737359305
59.488,0.03405165886117678
59.489,0.02169034185516005
59.49,0.007061656222733857
59.491,0.008023384255416334
59.492,0.022011798525680266
59.493,0.03360107982761898
59.494,0.04167497841038668
59.495,0.04529291744128498
59.496,0.04379998942724574
59.497,0.0370466345515376
59.498,0.025629743668150066
59.499,0.011025161018802836
59.5,0.004503536803488058
59.501,0.0182652063758617
59.502,0.027714911726036028
59.503,0.031092898788867417
59.504,0.02793229066754624
59.504999999999995,0.019258338683427204
59.506,0.007386880925054647
59.507,0.00464639080033382
59.507999999999996,0.013873113451942679
59.509,0.018167433322579227
59.51,0.016778315338541797
59.510999999999996,0.01046173061345903
59.512,0.00118134454804527
59.513,0.008517747700082384
59.513999999999996,0.01625757671683427
59.515,0.020462583873828526
59.516,0.020693656003145728
59.516999999999996,0.017601047472176917
59.518,0.01254642352357699
59.519,0.007051005758253618
59.519999999999996,0.00227417362690031
59.521,0.0012993171194847957
59.522,0.0038729050907630276
59.522999999999996,0.006077300956337685
59.524,0.008560304406685142
59.525,0.011602336297819066
59.525999999999996,0.01491505276451284
59.527,0.01770383912730055
59.528,0.018969272573642993
59.528999999999996,0.017927790227261625
59.53,0.014383213745897528
59.531,0.008896408409970274
59.532,0.0026743116933331695
59.533,0.0027954911339181147
59.534,0.006241224918202749
59.535,0.007057358502611786
59.536,0.0055420531952265015
59.537,0.0028256519334864416
59.538,0.0005013938131096679
59.539,7.516510814707456e-05
59.54,0.0024179275957739227
59.541,0.007408796797543473
59.542,0.013896639437585713
59.543,0.020003827318893525
59.544,0.023682714330434083
59.545,0.023351464907204807
59.546,0.018408743160060213
59.547,0.009464741077310022
59.548,0.001784354888880557
59.549,0.0130001187156646
59.55,0.021828794052801796
59.551,0.02652421120331147
59.552,0.026386706070869265
59.553,0.021899465100766312
59.554,0.014537679578436791
59.555,0.0063217931551516485
59.556,0.0007451342302340884
59.557,0.005192903396029872
59.558,0.00641524205448513
59.559,0.004741891076035994
59.56,0.0012549702833169138
59.561,0.002577995281167168
59.562,0.005340079870850818
59.563,0.00604923989388892
59.564,0.004396269010212502
59.565,0.0007890808914385653
59.565999999999995,0.0037909343713461215
59.567,0.00806990531272322
59.568,0.010821998681168689
59.568999999999996,0.011185187321899062
59.57,0.008880281662319462
59.571,0.00428695163075071
59.571999999999996,0.0016368476322446703
59.573,0.00757212309977294
59.574,0.01214388405088737
59.574999999999996,0.01424537086884479
59.576,0.013306349957181964
59.577,0.009439704010968537
59.577999999999996,0.003425921092584504
59.579,0.0034671326322891233
59.58,0.009789413693149562
59.580999999999996,0.014263155791592472
59.582,0.016092576399961023
59.583,0.015142127632943456
59.583999999999996,0.011930412292284438
59.585,0.007439624643385802
59.586,0.0027970339024693163
59.586999999999996,0.0010725780719269059
59.588,0.00371186262964631
59.589,0.005225225038797692
59.589999999999996,0.006169328681310185
59.591,0.007275945857394627
59.592,0.009104043915071814
59.592999999999996,0.011748104834870167
59.594,0.014716368852008305
59.595,0.01703771479707902
59.596,0.017576043262092427
59.597,0.015453241705098595
59.598,0.01043416108461861
59.599,0.0031287111978644086
59.6,0.005080021351199311
59.601,0.012382496293609888
59.602,0.017068184944039416
59.603,0.018063940916632402
59.604,0.015303264144016646
59.605,0.009790743453868751
59.606,0.0033221047692673835
59.607,0.002064545399593378
59.608,0.004735558583182577
59.609,0.003994770954642461
59.61,0.000320297442821334
59.611,0.004784336642798029
59.612,0.009287053384319783
59.613,0.011315467470398579
59.614,0.009810114920340342
59.615,0.004920994849122067
59.616,0.001994345308690091
59.617,0.008782925027512448
59.618,0.013193000812898328
59.619,0.013631125530890749
59.62,0.009729760535376011
59.621,0.0025327176125309516
59.622,0.005772234991406893
59.623,0.012497162669013084
59.624,0.01527420862104916
59.625,0.01279348670071588
59.626,0.00522516320276867
59.627,0.005806655224170188
59.628,0.017687394655091164
59.629,0.027563947995795268
59.629999999999995,0.0331482705509055
59.631,0.033325827338375406
59.632,0.028391404480528206
59.632999999999996,0.01985865528126598
59.634,0.009926013004975575
59.635,0.0007853552207857169
59.635999999999996,0.00600151572528383
59.637,0.009869609741681183
59.638,0.011267030445953079
59.638999999999996,0.011346998781427161
59.64,0.011465124426483422
59.641,0.012664764085269058
59.641999999999996,0.015321990654154289
59.643,0.0190538709289488
59.644,0.02289635822856097
59.644999999999996,0.025666555955576247
59.646,0.026369467159265896
59.647,0.0245077163200143
59.647999999999996,0.020200458959039862
59.649,0.014093862813351619
59.65,0.007120517505195835
59.650999999999996,0.00021181540384887238
59.652,0.0059290528113786975
59.653,0.010923079082966174
59.653999999999996,0.01467055049522354
59.655,0.01721398835612953
59.656,0.018590982140597154
59.657,0.018755100099899866
59.658,0.017605185116857318
59.659,0.015108398017054292
59.66,0.011453927403184381
59.661,0.007153119619602479
59.662,0.0030175846151950063
59.663,5.7114438832361665e-06
59.664,0.0011026276858620585
59.665,0.00012605136153048856
59.666,0.003475557858606289
59.667,0.008124567492343037
59.668,0.012824506909159162
59.669,0.016243845476117295
59.67,0.017360616841121813
59.671,0.015772160317159195
59.672,0.011813230912659622
59.673,0.006436196439322018
59.674,0.0008888835288492687
59.675,0.003702196709327197
59.676,0.006699399807444829
59.677,0.008142503851187135
59.678,0.008689185307514839
59.679,0.009325220893329648
59.68,0.010945014433498268
59.681,0.013952190251352782
59.682,0.01802724511184389
59.683,0.02215437416047465
59.684,0.024910748565426195
59.685,0.02492916841742168
59.686,0.021381333593908747
59.687,0.01431664130530424
59.688,0.004735564788531502
59.689,0.005637062400183298
59.69,0.014814142274139963
59.690999999999995,0.0211002638645671
59.692,0.023562545226384263
59.693,0.022270000606201688
59.693999999999996,0.018228630743063856
59.695,0.01303833625424072
59.696,0.00838669489625849
59.696999999999996,0.005544087764715332
59.698,0.005018861573832799
59.699,0.006473380757041365
59.699999999999996,0.008912689308101322
59.701,0.011067904607605561
59.702,0.011836572858098911
59.702999999999996,0.010631201432764411
59.704,0.007526910591790205
59.705,0.0031739857889738514
59.705999999999996,0.0014761667223766653
59.707,0.0055215865395317225
59.708,0.00840699303656069
59.708999999999996,0.010065080780355997
59.71,0.010861958831433106
59.711,0.011381079489407924
59.711999999999996,0.012138521056681706
59.713,0.013344368375643234
59.714,0.014803107912229645
59.714999999999996,0.01598950670325647
59.716,0.016267081354890862
59.717,0.015160243176828805
59.717999999999996,0.012569676710076584
59.719,0.008841736023223676
59.72,0.0046589283735659895
59.721,0.0007889719101877951
59.722,0.002212107943561138
59.723,0.004224328551989868
59.724,0.0056189366192250486
59.725,0.007108256903077391
59.726,0.009432020407344621
59.727,0.01298922755585866
59.728,0.017555492496683534
59.729,0.02220683757475012
59.73,0.025505937697881044
59.731,0.02591642493779649
59.732,0.022325695546602225
59.733,0.014507041102497412
59.734,0.003357252717264798
59.735,0.009192559976702272
59.736,0.02059523301347977
59.737,0.028330548511410144
59.738,0.030590468746370586
59.739,0.02680134274040915
59.74,0.017819848825557105
59.741,0.005734538977457732
59.742,0.0066763399507201
59.743,0.01667520583610594
59.744,0.02227085619658361
59.745,0.02269553921229816
59.746,0.018521524342951578
59.747,0.011397481133827218
59.748,0.003500985447120827
59.749,0.0031138212981576155
59.75,0.007070875960879827
59.751,0.007968410307504132
59.752,0.0063476969555682486
59.753,0.003375155559248625
59.754,0.0003696022440059629
59.754999999999995,0.0016515035496888395
59.756,0.00225249279173997
59.757,0.0016047372950814666
59.757999999999996,0.00027334336697938167
59.759,0.0011292217386469168
59.76,0.0022697832237675605
59.760999999999996,0.0032598600984576646
59.762,0.004584054921010099
59.763,0.00681213731280966
59.763999999999996,0.010207273755766529
59.765,0.014395299266216514
59.766,0.018251668704871903
59.766999999999996,0.020093570679432897
59.768,0.018156416904534248
59.769,0.011223397708426203
59.769999999999996,0.0007964057012765613
59.771,0.016553168424072975
59.772,0.03335076241788447
59.772999999999996,0.04767521427819458
59.774,0.056042429586895
59.775,0.055938124535850266
59.775999999999996,0.04657616713760262
59.777,0.029238824105162493
59.778,0.0070755174664625204
59.778999999999996,0.015607359406327114
59.78,0.03438186068722544
59.781,0.04577625663858384
59.782,0.04809663223143255
59.783,0.04176737073001697
59.784,0.02910612203319423
59.785,0.013613216248459199
59.786,0.001006701928701218
59.787,0.011803368419093442
59.788,0.017250724124560166
59.789,0.017456887322258006
59.79,0.013888831742233123
59.791,0.00873272158553754
59.792,0.004112892710763351
59.793,0.001420483930843442
59.794,0.0009514882662371258
59.795,0.0019434963940990065
59.796,0.0029684695497319345
59.797,0.002528325684964918
59.798,0.0003551857922918935
59.799,0.005750455558370925
59.8,0.012744519280948068
59.801,0.019700008287269418
59.802,0.024745155453715917
59.803,0.026333049455346355
59.804,0.023694186887983887
59.805,0.017050446971159296
59.806,0.0075407373705930906
59.807,0.0031003368094857544
59.808,0.012998982375260624
59.809,0.020592749279335867
59.81,0.024950925350109062
59.811,0.025893695756655687
59.812,0.023907114844881526
59.813,0.01991059090942181
59.814,0.014966777243182391
59.815,0.010023629501979273
59.815999999999995,0.005750228376821159
59.817,0.0024858991171664833
59.818,0.00028299150559078117
59.818999999999996,0.0009995277432484737
59.82,0.001596782134952988
59.821,0.0017632646808518565
59.821999999999996,0.0017309543730503359
59.823,0.001690513424695785
59.824,0.0017792750151119903
59.824999999999996,0.0020656546402729637
59.826,0.002532619389911468
59.827,0.003074202942423622
59.827999999999996,0.003521096496791684
59.829,0.003701317817599944
59.83,0.0035235755423180587
59.830999999999996,0.0030529593166325588
59.832,0.002540923467772367
59.833,0.002380602162717779
59.833999999999996,0.002983726918885244
59.835,0.004608623266047929
59.836,0.00719680180784996
59.836999999999996,0.010285530032692787
59.838,0.01304817584027214
59.839,0.01447520367050951
59.839999999999996,0.013658328393070003
59.841,0.010096386970510015
59.842,0.003921512156295843
59.842999999999996,0.004041478146994192
59.844,0.012422438522914187
59.845,0.019633883478314365
59.846,0.024290457450982524
59.847,0.025593402656068902
59.848,0.02355689878614552
59.849,0.018998602409545172
59.85,0.013290751271765981
59.851,0.00794648050700927
59.852,0.004171587603943482
59.853,0.002524891593765411
59.854,0.002794937599988205
59.855,0.004128348986127219
59.856,0.005360237025899271
59.857,0.0054292717490173475
59.858,0.003733279929489996
59.859,0.000305264890288009
59.86,0.004243830365750576
59.861,0.008984219412111803
59.862,0.013023897015934326
59.863,0.015824411245300853
59.864,0.01735507182964019
59.865,0.018028216275728984
59.866,0.018444036522041955
59.867,0.019049879473506715
59.868,0.0198565950046714
59.869,0.02033782652163987
59.87,0.019571439650047987
59.871,0.0165888454540598
59.872,0.010812071172558863
59.873,0.0024130400706358947
59.874,0.0075559339227665315
59.875,0.017338815444790052
59.876,0.02493076564846122
59.877,0.02867774999766756
59.878,0.027823595620095235
59.879,0.022810020416013498
59.879999999999995,0.015207276001447835
59.881,0.007272838633249387
59.882,0.0012634223346220962
59.882999999999996,0.0012828195475417207
59.884,5.5274542326841157e-05
59.885,0.003908815881546943
59.885999999999996,0.008549933101231894
59.887,0.01146776656259942
59.888,0.010745877348214665
59.888999999999996,0.005650805514733768
59.89,0.0030314303255044657
59.891,0.013147154536983029
59.891999999999996,0.021784824908628635
59.893,0.026162235337243395
59.894,0.024515789503573186
59.894999999999996,0.01670912072121349
59.896,0.004361941217743554
59.897,0.009551595747111872
59.897999999999996,0.02152001975752402
59.899,0.028482280249978016
59.9,0.02868861681599429
59.900999999999996,0.022177951670278494
59.902,0.01073549766025873
59.903,0.002645313008540207
59.903999999999996,0.014623383509701977
59.905,0.022428638993733305
59.906,0.024568096819785182
59.907,0.021125841790031283
59.908,0.0135965880920347
59.909,0.004337033601686201
59.91,0.004171097681952406
59.911,0.010010366639789246
59.912,0.012268203984163346
59.913,0.0111234208557764
