Czas,AbsSum,Sum
10.839,0.38837910173590784,-0.38837910173590784
10.84,0.40252631563133756,-0.40252631563133756
10.841,0.36549565772198567,-0.36549565772198567
10.842,0.28345583900434956,-0.28345583900434956
10.843,0.17129232807620154,-0.17129232807620154
10.844,0.04896418706004868,-0.04896418706004868
10.845,0.06323267892048245,0.06323267892048245
10.846,0.14919003746460024,0.14919003746460024
10.847,0.2000797007952837,0.2000797007952837
10.848,0.21524994769905192,0.21524994769905192
10.849,0.20084745670731197,0.20084745670731197
10.85,0.16678218948069268,0.16678218948069268
10.851,0.12313424308641774,0.12313424308641774
10.852,0.0772124501725211,0.0772124501725211
10.853,0.032180846390398754,0.032180846390398754
10.854,0.012426192658963164,-0.012426192658963164
10.855,0.05867016703515471,-0.05867016703515471
10.856,0.10757221424899277,-0.10757221424899277
10.857,0.15700058017115126,-0.15700058017115126
10.858,0.20100617594444448,-0.20100617594444448
10.859,0.2309857238044044,-0.2309857238044044
10.86,0.2383551830404994,-0.2383551830404994
10.861,0.217815837756414,-0.217815837756414
10.862,0.17001067933219838,-0.17001067933219838
10.863,0.10251113144800095,-0.10251113144800095
10.864,0.028606136102016677,-0.028606136102016677
10.865,0.035889608582748034,0.035889608582748034
10.866,0.07689039882207682,0.07689039882207682
10.867,0.08602956189234434,0.08602956189234434
10.868,0.06308970373996825,0.06308970373996825
10.869,0.016053127311167037,0.016053127311167037
10.87,0.041284283871916294,-0.041284283871916294
10.871,0.09339757817689442,-0.09339757817689442
10.872,0.12752241290003086,-0.12752241290003086
10.873,0.13713257654239908,-0.13713257654239908
10.874,0.12333868429584793,-0.12333868429584793
10.875,0.09384654450622543,-0.09384654450622543
10.876,0.05993025034809929,-0.05993025034809929
10.877,0.03252146783987242,-0.03252146783987242
10.878,0.018771303898971414,-0.018771303898971414
10.879,0.02022116125320006,-0.02022116125320006
10.88,0.033108091140190976,-0.033108091140190976
10.881,0.0505498679479931,-0.0505498679479931
10.882,0.06568567612187814,-0.06568567612187814
10.883,0.07452913172362119,-0.07452913172362119
10.884,0.07743380203905692,-0.07743380203905692
10.885,0.07862245841189985,-0.07862245841189985
10.886,0.08398678619102828,-0.08398678619102828
10.887,0.0980453292865,-0.0980453292865
10.888,0.12129999425787885,-0.12129999425787885
10.889,0.14911865216772247,-0.14911865216772247
10.89,0.1727249071190058,-0.1727249071190058
10.891,0.18208724488946393,-0.18208724488946393
10.892,0.16975301770112605,-0.16975301770112605
10.893,0.13424472615604643,-0.13424472615604643
10.894,0.0816957771039648,-0.0816957771039648
10.895,0.024948457950393244,-0.024948457950393244
10.896,0.019807738317139112,0.019807738317139112
10.897,0.03790574878376485,0.03790574878376485
10.898,0.021042017492651777,0.021042017492651777
10.899,0.029529047545796105,-0.029529047545796105
10.9,0.10259820153691135,-0.10259820153691135
10.901,0.1796801475266463,-0.1796801475266463
10.902,0.24005225080809134,-0.24005225080809134
10.903,0.2666538801755979,-0.2666538801755979
10.904,0.25103854216257493,-0.25103854216257493
10.905,0.19584543488490125,-0.19584543488490125
10.906,0.11402825714868947,-0.11402825714868947
10.907,0.025095369165978654,-0.025095369165978654
10.908,0.05045562527337988,0.05045562527337988
10.909,0.09678542335062978,0.09678542335062978
10.91,0.10673740807934817,0.10673740807934817
10.911,0.08309393605036575,0.08309393605036575
10.912,0.03682788997996589,0.03682788997996589
10.913,0.016934958877151907,-0.016934958877151907
10.914,0.06384154776493633,-0.06384154776493633
10.915,0.09451810240694591,-0.09451810240694591
10.916,0.1067733339859318,-0.1067733339859318
10.917,0.10523743072033709,-0.10523743072033709
10.918,0.09874572443663565,-0.09874572443663565
10.919,0.09649922284088197,-0.09649922284088197
10.92,0.10437978106529222,-0.10437978106529222
10.921,0.12267000651586679,-0.12267000651586679
10.922,0.14589315999393127,-0.14589315999393127
10.923,0.16474441211412527,-0.16474441211412527
10.924,0.16938912824802554,-0.16938912824802554
10.925,0.15298371666020805,-0.15298371666020805
10.926,0.11425286195004125,-0.11425286195004125
10.927,0.05831693231137047,-0.05831693231137047
10.928,0.0044373193728712845,0.0044373193728712845
10.929,0.06102306491571308,0.06102306491571308
10.93,0.09918919492601841,0.09918919492601841
10.931,0.11042003460486383,0.11042003460486383
10.932,0.09178284115129065,0.09178284115129065
10.933,0.046231313095475235,0.046231313095475235
10.934,0.018529201978025767,-0.018529201978025767
10.935,0.09210829218771655,-0.09210829218771655
10.936,0.16373672050188492,-0.16373672050188492
10.937,0.22418127105157948,-0.22418127105157948
10.938,0.266887656811288,-0.266887656811288
10.939,0.2882948477703645,-0.2882948477703645
10.94,0.2875352680127221,-0.2875352680127221
10.941,0.2658646551508539,-0.2658646551508539
10.942,0.2261302945007334,-0.2261302945007334
10.943,0.17243144585937853,-0.17243144585937853
10.944,0.10993796935428479,-0.10993796935428479
10.945,0.04470223071142876,-0.04470223071142876
10.946,0.016719223122033444,0.016719223122033444
10.947,0.06792335334319066,0.06792335334319066
10.948,0.10353016512434765,0.10353016512434765
10.949,0.12005485684042494,0.12005485684042494
10.95,0.11651547804399032,0.11651547804399032
10.951,0.09456547193764497,0.09456547193764497
10.952,0.058090560503543776,0.058090560503543776
10.953,0.012390508115116106,0.012390508115116106
10.954,0.03679868150324439,-0.03679868150324439
10.955,0.0841554230974495,-0.0841554230974495
10.956,0.12529495407023794,-0.12529495407023794
10.957,0.1569261687124185,-0.1569261687124185
10.958,0.1767732062965196,-0.1767732062965196
10.959,0.18348534491579327,-0.18348534491579327
10.96,0.17673030369822695,-0.17673030369822695
10.961,0.15752280569163934,-0.15752280569163934
10.962,0.12864407654466326,-0.12864407654466326
10.963,0.09485257939354441,-0.09485257939354441
10.964,0.06255835998437453,-0.06255835998437453
10.965,0.03877299241835719,-0.03877299241835719
10.966,0.029424332837071354,-0.029424332837071354
10.967,0.037443786065077034,-0.037443786065077034
10.968,0.061262666448274716,-0.061262666448274716
10.969,0.09437769025144938,-0.09437769025144938
10.97,0.12641234830405612,-0.12641234830405612
10.971,0.1456534796371527,-0.1456534796371527
10.972,0.14251339432728427,-0.14251339432728427
10.973,0.11294087751459914,-0.11294087751459914
10.974,0.06065103168839503,-0.06065103168839503
10.975,0.0027409546413799113,0.0027409546413799113
10.976,0.06003870993243221,0.06003870993243221
10.977,0.0928407912505731,0.0928407912505731
10.978,0.08686601976921815,0.08686601976921815
10.979,0.03669065246618408,0.03669065246618408
10.98,0.05161568645239989,-0.05161568645239989
10.981,0.16095716477048383,-0.16095716477048383
10.982,0.2669117021073719,-0.2669117021073719
10.983,0.3438145438782202,-0.3438145438782202
10.984,0.3715965538925362,-0.3715965538925362
10.985,0.3414273781656735,-0.3414273781656735
10.986,0.258476830313064,-0.258476830313064
10.987,0.14089902103234364,-0.14089902103234364
10.988,0.015235768547240625,-0.015235768547240625
10.989,0.09050211281290044,0.09050211281290044
10.99,0.15411585006667705,0.15411585006667705
10.991,0.16478634648751656,0.16478634648751656
10.992,0.125365384206666,0.125365384206666
10.993,0.05081388517344965,0.05081388517344965
10.994,0.0366348757107694,-0.0366348757107694
10.995,0.11404715189781311,-0.11404715189781311
10.996,0.16408503794924356,-0.16408503794924356
10.997,0.179178541846148,-0.179178541846148
10.998,0.16245762018009013,-0.16245762018009013
10.999,0.12538785401987151,-0.12538785401987151
11.0,0.08309314133678569,-0.08309314133678569
11.001,0.04903394271690431,-0.04903394271690431
11.002,0.030826605554714503,-0.030826605554714503
11.003,0.02851466868954078,-0.02851466868954078
11.004,0.03570932799851234,-0.03570932799851234
11.005,0.04301252279503509,-0.04301252279503509
11.006,0.04236349668118533,-0.04236349668118533
11.007,0.030666594029455818,-0.030666594029455818
11.008,0.01135373861543687,-0.01135373861543687
11.009,0.006699484712805237,0.006699484712805237
11.01,0.012519253564132526,0.012519253564132526
11.011,0.0025735425762051234,-0.0025735425762051234
11.012,0.04113890431088085,-0.04113890431088085
11.013,0.09780971100313007,-0.09780971100313007
11.014,0.16026256202572342,-0.16026256202572342
11.015,0.21276020467022982,-0.21276020467022982
11.016,0.24113807008090393,-0.24113807008090393
11.017,0.23755811481121913,-0.23755811481121913
11.018,0.20337312395832663,-0.20337312395832663
11.019,0.1490395825925187,-0.1490395825925187
11.02,0.09099536812045805,-0.09099536812045805
11.021,0.04645298323645741,-0.04645298323645741
11.022,0.027797187763255238,-0.027797187763255238
11.023,0.03845895961556001,-0.03845895961556001
11.024,0.07169053040288553,-0.07169053040288553
11.025,0.11272597179141108,-0.11272597179141108
11.026,0.14368536168298973,-0.14368536168298973
11.027,0.14964387421513026,-0.14964387421513026
11.028,0.12385954550549494,-0.12385954550549494
11.029,0.07038910310013147,-0.07038910310013147
11.03,0.0031543415432636612,-0.0031543415432636612
11.031,0.05831522892631491,0.05831522892631491
11.032,0.09512685711877,0.09512685711877
11.033,0.09523249221226959,0.09523249221226959
11.034,0.05754928096081269,0.05754928096081269
11.035,0.007406074197992996,-0.007406074197992996
11.036,0.08064233912530372,-0.08064233912530372
11.037,0.14061909369150927,-0.14061909369150927
11.038,0.17008069811871518,-0.17008069811871518
11.039,0.1615860449474288,-0.1615860449474288
11.04,0.11992411489955268,-0.11992411489955268
11.041,0.06060600274174721,-0.06060600274174721
11.042,0.004897485012815284,-0.004897485012815284
11.043,0.027015146242065358,0.027015146242065358
11.044,0.022521411864322216,0.022521411864322216
11.045,0.0193515677939341,-0.0193515677939341
11.046,0.08761521220186919,-0.08761521220186919
11.047,0.16281895470616925,-0.16281895470616925
11.048,0.22321702103222085,-0.22321702103222085
11.049,0.25159004297078347,-0.25159004297078347
11.05,0.24051761282442696,-0.24051761282442696
11.051,0.1944301462559871,-0.1944301462559871
11.052,0.12784281975967915,-0.12784281975967915
11.053,0.06043059187649602,-0.06043059187649602
11.054,0.010623536371314746,-0.010623536371314746
11.055,0.0101494998146745,0.0101494998146745
11.056,0.0007047901718311156,0.0007047901718311156
11.057,0.03015112210029114,-0.03015112210029114
11.058,0.06717290928362574,-0.06717290928362574
11.059,0.09422726645011237,-0.09422726645011237
11.06,0.09991051886384572,-0.09991051886384572
11.061,0.08133131459752418,-0.08133131459752418
11.062,0.044830681518402304,-0.044830681518402304
11.063,0.0034877037375332653,-0.0034877037375332653
11.064,0.027637590681976354,0.027637590681976354
11.065,0.03682004106058501,0.03682004106058501
11.066,0.01969006161342368,0.01969006161342368
11.067,0.01940094577749696,-0.01940094577749696
11.068,0.06907601263606233,-0.06907601263606233
11.069,0.1150180772292444,-0.1150180772292444
11.07,0.14495360739812713,-0.14495360739812713
11.071,0.15275936622376407,-0.15275936622376407
11.072,0.1402633393233924,-0.1402633393233924
11.073,0.11615547770394974,-0.11615547770394974
11.074,0.09246285358892314,-0.09246285358892314
11.075,0.07990742683603325,-0.07990742683603325
11.076,0.08384853489276634,-0.08384853489276634
11.077,0.1022842927225237,-0.1022842927225237
11.078,0.12663193522219018,-0.12663193522219018
11.079,0.14499862352000992,-0.14499862352000992
11.08,0.1467522825245845,-0.1467522825245845
11.081,0.12672825648947994,-0.12672825648947994
11.082,0.0875302964570075,-0.0875302964570075
11.083,0.039059373760285565,-0.039059373760285565
11.084,0.004609540398257783,0.004609540398257783
11.085,0.029935311389626795,0.029935311389626795
11.086,0.02856434768042493,0.02856434768042493
11.087,0.0002987021782088206,0.0002987021782088206
11.088,0.04666994994869056,-0.04666994994869056
11.089,0.09835722146959847,-0.09835722146959847
11.09,0.1395268232446668,-0.1395268232446668
11.091,0.15861923001254263,-0.15861923001254263
11.092,0.1513912962263475,-0.1513912962263475
11.093,0.12205525556133301,-0.12205525556133301
11.094,0.08158730583502116,-0.08158730583502116
11.095,0.04385848576271467,-0.04385848576271467
11.096,0.020975765422522996,-0.020975765422522996
11.097,0.01945327690380272,-0.01945327690380272
11.098,0.038489215046164316,-0.038489215046164316
11.099,0.07083710624838668,-0.07083710624838668
11.1,0.1058217350892735,-0.1058217350892735
11.101,0.1333012881191683,-0.1333012881191683
11.102,0.1470858484931047,-0.1470858484931047
11.103,0.14658568026510443,-0.14658568026510443
11.104,0.1361738417949223,-0.1361738417949223
11.105,0.12263580160428289,-0.12263580160428289
11.106,0.11180966437444295,-0.11180966437444295
11.107,0.10582015715583382,-0.10582015715583382
11.108,0.1020650180643734,-0.1020650180643734
11.109,0.09441497079201511,-0.09441497079201511
11.11,0.07620013582129481,-0.07620013582129481
11.111,0.04381342648811204,-0.04381342648811204
11.112,0.0005477047042445893,0.0005477047042445893
11.113,0.048226151052940924,0.048226151052940924
11.114,0.08602362375735106,0.08602362375735106
11.115,0.1002186830159959,0.1002186830159959
11.116,0.08137779115318744,0.08137779115318744
11.117,0.028262771370634043,0.028262771370634043
11.118,0.05064907840288291,-0.05064907840288291
11.119,0.13875507532593323,-0.13875507532593323
11.12,0.21569648708822198,-0.21569648708822198
11.121,0.2631966685806242,-0.2631966685806242
11.122,0.27050189141070813,-0.27050189141070813
11.123,0.23763318285645507,-0.23763318285645507
11.124,0.17534923720289664,-0.17534923720289664
11.125,0.1017992996301218,-0.1017992996301218
11.126,0.03694224491983078,-0.03694224491983078
11.127,0.0034541804049375013,0.0034541804049375013
11.128,0.012296279531373466,0.012296279531373466
11.129,0.007276755731607354,-0.007276755731607354
11.13,0.043664501500589314,-0.043664501500589314
11.131,0.08119404143346876,-0.08119404143346876
11.132,0.10555953817499852,-0.10555953817499852
11.133,0.10844985944700436,-0.10844985944700436
11.134,0.08985214343186332,-0.08985214343186332
11.135,0.05737978560616708,-0.05737978560616708
11.136,0.023030057546458038,-0.023030057546458038
11.137,0.0013471179683997025,0.0013471179683997025
11.138,0.008196256690815806,0.008196256690815806
11.139,0.003435344611801283,-0.003435344611801283
11.14,0.028150603094894255,-0.028150603094894255
11.141,0.05677277561489524,-0.05677277561489524
11.142,0.08014472158382091,-0.08014472158382091
11.143,0.0926541967819351,-0.0926541967819351
11.144,0.09413868717021523,-0.09413868717021523
11.145,0.08948205407710585,-0.08948205407710585
11.146,0.08612209942870275,-0.08612209942870275
11.147,0.09049993461162797,-0.09049993461162797
11.148,0.10489391864637754,-0.10489391864637754
11.149,0.12593889718198759,-0.12593889718198759
11.15,0.14548876348765727,-0.14548876348765727
11.151,0.1535773761827942,-0.1535773761827942
11.152,0.14240807581247883,-0.14240807581247883
11.153,0.10986673452708884,-0.10986673452708884
11.154,0.06117618731711216,-0.06117618731711216
11.155,0.007954095728302857,-0.007954095728302857
11.156,0.03512844363783607,0.03512844363783607
11.157,0.05500397406081636,0.05500397406081636
11.158,0.04458637915296926,0.04458637915296926
11.159,0.005329486349225476,0.005329486349225476
11.16,0.05296371851110904,-0.05296371851110904
11.161,0.11506211497639451,-0.11506211497639451
11.162,0.1649877129619166,-0.1649877129619166
11.163,0.19087563352783388,-0.19087563352783388
11.164,0.1883784081914709,-0.1883784081914709
11.165,0.1615042875639966,-0.1615042875639966
11.166,0.12069079129863325,-0.12069079129863325
11.167,0.07888503757790433,-0.07888503757790433
11.168,0.047082734025823414,-0.047082734025823414
11.169,0.03092570981981091,-0.03092570981981091
11.17,0.029525190472685203,-0.029525190472685203
11.171,0.03682754402754573,-0.03682754402754573
11.172,0.0448854208249293,-0.0448854208249293
11.173,0.047691338198212474,-0.047691338198212474
11.174,0.04403269437166335,-0.04403269437166335
11.175,0.03821034757976005,-0.03821034757976005
11.176,0.038286934876918144,-0.038286934876918144
11.177,0.05249245548216119,-0.05249245548216119
11.178,0.08515662937341029,-0.08515662937341029
11.179,0.13378035952909884,-0.13378035952909884
11.18,0.188502099344256,-0.188502099344256
11.181,0.23437674091315785,-0.23437674091315785
11.182,0.25585998061166604,-0.25585998061166604
11.183,0.24204794229904303,-0.24204794229904303
11.184,0.19086919494912835,-0.19086919494912835
11.185,0.1107028596164713,-0.1107028596164713
11.186,0.018719247537468897,-0.018719247537468897
11.187,0.06366894140048696,0.06366894140048696
11.188,0.11687167353351668,0.11687167353351668
11.189,0.12879283934817942,0.12879283934817942
11.19,0.09829777052367827,0.09829777052367827
11.191,0.03537364302381629,0.03537364302381629
11.192,0.04204645375419869,-0.04204645375419869
11.193,0.11354711230223435,-0.11354711230223435
11.194,0.1622140798923386,-0.1622140798923386
11.195,0.1792459700655944,-0.1792459700655944
11.196,0.16580486916101056,-0.16580486916101056
11.197,0.13166281803853763,-0.13166281803853763
11.198,0.09126267673285615,-0.09126267673285615
11.199,0.058628770916830164,-0.058628770916830164
11.2,0.04286809034464889,-0.04286809034464889
11.201,0.04571178612603377,-0.04571178612603377
11.202,0.061780445366421355,-0.061780445366421355
11.203,0.08129451107832342,-0.08129451107832342
11.204,0.09412981080751293,-0.09412981080751293
11.205,0.09371329770467995,-0.09371329770467995
11.206,0.0793877677001057,-0.0793877677001057
11.207,0.05647781769954119,-0.05647781769954119
11.208,0.03413394540156045,-0.03413394540156045
11.209,0.02181392245489877,-0.02181392245489877
11.21,0.02571028011122889,-0.02571028011122889
11.211,0.04640598062704815,-0.04640598062704815
11.212,0.07856473131615949,-0.07856473131615949
11.213,0.11272100930047169,-0.11272100930047169
11.214,0.1384964720334516,-0.1384964720334516
11.215,0.14809146500482961,-0.14809146500482961
11.216,0.13883958160027154,-0.13883958160027154
11.217,0.11397512954567501,-0.11397512954567501
11.218,0.08140620098759654,-0.08140620098759654
11.219,0.050976290412295455,-0.050976290412295455
11.22,0.031194732828534355,-0.031194732828534355
11.221,0.02655730281008084,-0.02655730281008084
11.222,0.03633004966881637,-0.03633004966881637
11.223,0.05513459802769316,-0.05513459802769316
11.224,0.07504837813174214,-0.07504837813174214
11.225,0.08843660718738056,-0.08843660718738056
11.226,0.0905273724934853,-0.0905273724934853
11.227,0.08088151977516178,-0.08088151977516178
11.228,0.06332843462178606,-0.06332843462178606
11.229,0.04447869648852465,-0.04447869648852465
11.23,0.031394495626647756,-0.031394495626647756
11.231,0.029243529680884617,-0.029243529680884617
11.232,0.03971320250921395,-0.03971320250921395
11.233,0.06065524060057137,-0.06065524060057137
11.234,0.08698764216865618,-0.08698764216865618
11.235,0.1124606207893617,-0.1124606207893617
11.236,0.1316362777466903,-0.1316362777466903
11.237,0.1414128552055406,-0.1414128552055406
11.238,0.1416319861727151,-0.1416319861727151
11.239,0.13465392703510615,-0.13465392703510615
11.24,0.12414366440365399,-0.12414366440365399
11.241,0.1135586101005378,-0.1135586101005378
11.242,0.1048916589100728,-0.1048916589100728
11.243,0.0980949138250442,-0.0980949138250442
11.244,0.09134689258978246,-0.09134689258978246
11.245,0.08202646902027344,-0.08202646902027344
11.246,0.06802103269481474,-0.06802103269481474
11.247,0.0488959684694138,-0.0488959684694138
11.248,0.02650987509743863,-0.02650987509743863
11.249,0.004846138388412857,-0.004846138388412857
11.25,0.010918838947613585,0.010918838947613585
11.251,0.015855253048894458,0.015855253048894458
11.252,0.006817415012910111,0.006817415012910111
11.253,0.01636698620162902,-0.01636698620162902
11.254,0.05041725050326784,-0.05041725050326784
11.255,0.0890128160304654,-0.0890128160304654
11.256,0.12405742864035108,-0.12405742864035108
11.257,0.14753407360072068,-0.14753407360072068
11.258,0.15352687173812585,-0.15352687173812585
11.259,0.13991398078635564,-0.13991398078635564
11.26,0.1092744055997924,-0.1092744055997924
11.261,0.06870130593638168,-0.06870130593638168
11.262,0.02845280211620871,-0.02845280211620871
11.263,0.00034561999688720313,0.00034561999688720313
11.264,0.00846707867023011,0.00846707867023011
11.265,0.008841674526070098,-0.008841674526070098
11.266,0.05016744766791181,-0.05016744766791181
11.267,0.10766341433566051,-0.10766341433566051
11.268,0.1684351953184121,-0.1684351953184121
11.269,0.21738725330937858,-0.21738725330937858
11.27,0.24091603638076298,-0.24091603638076298
11.271,0.2305377099468825,-0.2305377099468825
11.272,0.18546514423357496,-0.18546514423357496
11.273,0.113350069816602,-0.113350069816602
11.274,0.028852987920098272,-0.028852987920098272
11.275,0.04971252534268067,0.04971252534268067
11.276,0.10485511733854658,0.10485511733854658
11.277,0.12432998856420685,0.12432998856420685
11.278,0.10429640124155459,0.10429640124155459
11.279,0.05030149158039343,0.05030149158039343
11.28,0.024226125708476265,-0.024226125708476265
11.281,0.10158276888118267,-0.10158276888118267
11.282,0.1644930681654999,-0.1644930681654999
11.283,0.20057876276178077,-0.20057876276178077
11.284,0.20532605877306198,-0.20532605877306198
11.285,0.18273145092182286,-0.18273145092182286
11.286,0.14350299585074633,-0.14350299585074633
11.287,0.10142789032711041,-0.10142789032711041
11.288,0.06905931879580673,-0.06905931879580673
11.289,0.05405581688809091,-0.05405581688809091
11.29,0.057269057014446956,-0.057269057014446956
11.291,0.0730987115710311,-0.0730987115710311
11.292,0.09190269473508073,-0.09190269473508073
11.293,0.1036030131803356,-0.1036030131803356
11.294,0.10126883147363153,-0.10126883147363153
11.295,0.0835005046403633,-0.0835005046403633
11.296,0.05486088295746827,-0.05486088295746827
11.297,0.02425894039142984,-0.02425894039142984
11.298,0.001866430160648358,-0.001866430160648358
11.299,0.004380377635579524,0.004380377635579524
11.3,0.00847500319843042,-0.00847500319843042
11.301,0.037319166745969135,-0.037319166745969135
11.302,0.07387526855000037,-0.07387526855000037
11.303,0.10729038760360554,-0.10729038760360554
11.304,0.12754735976137666,-0.12754735976137666
11.305,0.128594531241085,-0.128594531241085
11.306,0.11020101859133569,-0.11020101859133569
11.307,0.07797592727648395,-0.07797592727648395
11.308,0.041588364076141415,-0.041588364076141415
11.309,0.011792415410877055,-0.011792415410877055
11.31,0.0027836461434029847,0.0027836461434029847
11.311,0.0019127595223683569,-0.0019127595223683569
11.312,0.024387467357889547,-0.024387467357889547
11.313,0.058333314811729764,-0.058333314811729764
11.314,0.09475590884682772,-0.09475590884682772
11.315,0.12476573759061294,-0.12476573759061294
11.316,0.14214701660153584,-0.14214701660153584
11.317,0.14493561198894012,-0.14493561198894012
11.318,0.13559053756126394,-0.13559053756126394
11.319,0.11980141881731066,-0.11980141881731066
11.32,0.10438897235217359,-0.10438897235217359
11.321,0.09500226940787548,-0.09500226940787548
11.322,0.09433212797049839,-0.09433212797049839
11.323,0.10135727363012736,-0.10135727363012736
11.324,0.11179718429691843,-0.11179718429691843
11.325,0.11957633091772524,-0.11957633091772524
11.326,0.11881969168986117,-0.11881969168986117
11.327,0.10577410357713013,-0.10577410357713013
11.328,0.08010541870283872,-0.08010541870283872
11.329,0.04522505670716859,-0.04522505670716859
11.33,0.007581335678032541,-0.007581335678032541
11.331,0.02487196573788597,0.02487196573788597
11.332,0.044616279838830986,0.044616279838830986
11.333,0.04642214036232306,0.04642214036232306
11.334,0.028664225731428683,0.028664225731428683
11.335,0.006207027971336099,-0.006207027971336099
11.336,0.0521337612995576,-0.0521337612995576
11.337,0.10073720017844756,-0.10073720017844756
11.338,0.14311883906004574,-0.14311883906004574
11.339,0.17176325752632227,-0.17176325752632227
11.34,0.18211231081816703,-0.18211231081816703
11.341,0.17345812429143215,-0.17345812429143215
11.342,0.148959433423687,-0.148959433423687
11.343,0.11479006281215098,-0.11479006281215098
11.344,0.07863478878769825,-0.07863478878769825
11.345,0.04790682934419144,-0.04790682934419144
11.346,0.028129826239591926,-0.028129826239591926
11.347,0.021881856476152484,-0.021881856476152484
11.348,0.028545354491124608,-0.028545354491124608
11.349,0.044882351728253056,-0.044882351728253056
11.35,0.06622131110448692,-0.06622131110448692
11.351,0.08787013892700146,-0.08787013892700146
11.352,0.1063157332772785,-0.1063157332772785
11.353,0.1198555439669915,-0.1198555439669915
11.354,0.12850811852287514,-0.12850811852287514
11.355,0.13330367377029728,-0.13330367377029728
11.356,0.13527659117625612,-0.13527659117625612
11.357,0.13459023289545913,-0.13459023289545913
11.358,0.130176808683639,-0.130176808683639
11.359,0.12008105093156363,-0.12008105093156363
11.36,0.10241991971494502,-0.10241991971494502
11.361,0.07660960225095692,-0.07660960225095692
11.362,0.04436465873283768,-0.04436465873283768
11.363,0.01000577932694291,-0.01000577932694291
11.364,0.02017558131566677,0.02017558131566677
11.365,0.039419645040006834,0.039419645040006834
11.366,0.04245960389432213,0.04245960389432213
11.367,0.027318299048427086,0.027318299048427086
11.368,0.0036940306983068716,-0.0036940306983068716
11.369,0.044202032889748555,-0.044202032889748555
11.37,0.08525082061384903,-0.08525082061384903
11.371,0.11767746787506705,-0.11767746787506705
11.372,0.13467168865999246,-0.13467168865999246
11.373,0.1337271184940868,-0.1337271184940868
11.374,0.11734610489596498,-0.11734610489596498
11.375,0.09224195128692769,-0.09224195128692769
11.376,0.06726162781095912,-0.06726162781095912
11.377,0.05066968647160153,-0.05066968647160153
11.378,0.0476478074739346,-0.0476478074739346
11.379,0.058798232913778614,-0.058798232913778614
11.38,0.08011216969893142,-0.08011216969893142
11.381,0.10438464889009358,-0.10438464889009358
11.382,0.12358700606145423,-0.12358700606145423
11.383,0.13140611173432082,-0.13140611173432082
11.384,0.12512668398328652,-0.12512668398328652
11.385,0.1062770621811503,-0.1062770621811503
11.386,0.07989150746433071,-0.07989150746433071
11.387,0.05271081870815886,-0.05271081870815886
11.388,0.030984984570793128,-0.030984984570793128
11.389,0.01864126554501755,-0.01864126554501755
11.39,0.01641076611339576,-0.01641076611339576
11.391,0.02213486069450732,-0.02213486069450732
11.392,0.03203881185955382,-0.03203881185955382
11.393,0.042421873591218295,-0.042421873591218295
11.394,0.05109112894891077,-0.05109112894891077
11.395,0.05799895536811117,-0.05799895536811117
11.396,0.06487573136718938,-0.06487573136718938
11.397,0.07405195339586335,-0.07405195339586335
11.398,0.086984564529894,-0.086984564529894
11.399,0.1031204750087602,-0.1031204750087602
11.4,0.11960210925126402,-0.11960210925126402
11.401,0.1319939836398505,-0.1319939836398505
11.402,0.13580850548180456,-0.13580850548180456
11.403,0.12828438772412476,-0.12828438772412476
11.404,0.1097455306471884,-0.1097455306471884
11.405,0.08399176014466869,-0.08399176014466869
11.406,0.05750343187366791,-0.05750343187366791
11.407,0.037661228782202794,-0.037661228782202794
11.408,0.030539182956862088,-0.030539182956862088
11.409,0.03899410681584248,-0.03899410681584248
11.41,0.06168844431138265,-0.06168844431138265
11.411,0.09337659875752824,-0.09337659875752824
11.412,0.12636602348064707,-0.12636602348064707
11.413,0.15268092501311303,-0.15268092501311303
11.414,0.16624024002531346,-0.16624024002531346
11.415,0.16438240929470183,-0.16438240929470183
11.416,0.14831175037144284,-0.14831175037144284
11.417,0.12241208525470659,-0.12241208525470659
11.418,0.09273865562629935,-0.09273865562629935
11.419,0.06523376614910037,-0.06523376614910037
11.42,0.04424294245428284,-0.04424294245428284
11.421,0.031741454417347326,-0.031741454417347326
11.422,0.027391629981045273,-0.027391629981045273
11.423,0.02925432439628206,-0.02925432439628206
11.424,0.03478206738571199,-0.03478206738571199
11.425,0.041689021218241806,-0.041689021218241806
11.426,0.04841872048448859,-0.04841872048448859
11.427,0.05414815490967839,-0.05414815490967839
11.428,0.058478245402004636,-0.058478245402004636
11.429,0.06107791797645867,-0.06107791797645867
11.43,0.06152873171635764,-0.06152873171635764
11.431,0.059477468462498906,-0.059477468462498906
11.432,0.05501494877729707,-0.05501494877729707
11.433,0.04905106695869221,-0.04905106695869221
11.434,0.04342060493296951,-0.04342060493296951
11.435,0.04055380975738854,-0.04055380975738854
11.436,0.04274150897923268,-0.04274150897923268
11.437,0.05123264590964005,-0.05123264590964005
11.438,0.06552767060394848,-0.06552767060394848
11.439,0.0832090587579053,-0.0832090587579053
11.44,0.10047457972371576,-0.10047457972371576
11.441,0.11326957367406698,-0.11326957367406698
11.442,0.11865589830002166,-0.11865589830002166
11.443,0.115916056285997,-0.115916056285997
11.444,0.10693972812343477,-0.10693972812343477
11.445,0.09567398014168471,-0.09567398014168471
11.446,0.08676051919578143,-0.08676051919578143
11.447,0.08380742250047124,-0.08380742250047124
11.448,0.08792067635936518,-0.08792067635936518
11.449,0.09707274411498068,-0.09707274411498068
11.45,0.10661372294127314,-0.10661372294127314
11.451,0.1108240988382796,-0.1108240988382796
11.452,0.10501219500359338,-0.10501219500359338
11.453,0.08742386267279123,-0.08742386267279123
11.454,0.060253955361676326,-0.060253955361676326
11.455,0.029333964254601774,-0.029333964254601774
11.456,0.002525192674685539,-0.002525192674685539
11.457,0.012687991905688811,0.012687991905688811
11.458,0.011605091488479102,0.011605091488479102
11.459,0.006111192802814025,-0.006111192802814025
11.46,0.036243034363443005,-0.036243034363443005
11.461,0.07129813825908715,-0.07129813825908715
11.462,0.10283453185082436,-0.10283453185082436
11.463,0.1240341352077845,-0.1240341352077845
11.464,0.13164508502731376,-0.13164508502731376
11.465,0.12664436298158,-0.12664436298158
11.466,0.1134380696634022,-0.1134380696634022
11.467,0.09794699566329479,-0.09794699566329479
11.468,0.08532430647646227,-0.08532430647646227
11.469,0.07817112449041774,-0.07817112449041774
11.47,0.07590863812798665,-0.07590863812798665
11.471,0.07550823985884159,-0.07550823985884159
11.472,0.07324576163177965,-0.07324576163177965
11.473,0.06673632761329551,-0.06673632761329551
11.474,0.05638280014287156,-0.05638280014287156
11.475,0.04558762380008363,-0.04558762380008363
11.476,0.03956044573339346,-0.03956044573339346
11.477,0.043123431048145755,-0.043123431048145755
11.478,0.058354575444998336,-0.058354575444998336
11.479,0.08304052909850823,-0.08304052909850823
11.48,0.11066860979215376,-0.11066860979215376
11.481,0.1321458445099215,-0.1321458445099215
11.482,0.13878070833972067,-0.13878070833972067
11.483,0.12554051660343757,-0.12554051660343757
11.484,0.09340678887069565,-0.09340678887069565
11.485,0.049881421976531226,-0.049881421976531226
11.486,0.007286719600744562,-0.007286719600744562
11.487,0.020742783862010672,0.020742783862010672
11.488,0.023521584573569454,0.023521584573569454
11.489,0.0030497352791929444,-0.0030497352791929444
11.49,0.05470968963445455,-0.05470968963445455
11.491,0.11959313696652696,-0.11959313696652696
11.492,0.18137688728235657,-0.18137688728235657
11.493,0.2238841143513367,-0.2238841143513367
11.494,0.23572794390932938,-0.23572794390932938
11.495,0.213549664638769,-0.213549664638769
11.496,0.16285811305061337,-0.16285811305061337
11.497,0.09625185569763173,-0.09625185569763173
11.498,0.029642553480288103,-0.029642553480288103
11.499,0.02228488371079984,0.02228488371079984
11.5,0.04994473588082671,0.04994473588082671
11.501,0.05090697470881622,0.05090697470881622
11.502,0.02963882040007415,0.02963882040007415
11.503,0.004783680422890346,-0.004783680422890346
11.504,0.042063102162062216,-0.042063102162062216
11.505,0.07394381252187177,-0.07394381252187177
11.506,0.09627352493897812,-0.09627352493897812
11.507,0.10929767507116495,-0.10929767507116495
11.508,0.11629947073279245,-0.11629947073279245
11.509,0.12129246900239887,-0.12129246900239887
11.51,0.12677101656151113,-0.12677101656151113
11.511,0.1324307018926063,-0.1324307018926063
11.512,0.13533658763989098,-0.13533658763989098
11.513,0.13141613733309288,-0.13141613733309288
11.514,0.1176181578377481,-0.1176181578377481
11.515,0.09381077847419161,-0.09381077847419161
11.516,0.06358863238392709,-0.06358863238392709
11.517,0.03358158791218524,-0.03358158791218524
11.518,0.01144253786688032,-0.01144253786688032
11.519,0.0032177197682023984,-0.0032177197682023984
11.52,0.011070495385703816,-0.011070495385703816
11.521,0.03223567750891976,-0.03223567750891976
11.522,0.059657556909557985,-0.059657556909557985
11.523,0.08416386713507806,-0.08416386713507806
11.524,0.09746842404439027,-0.09746842404439027
11.525,0.09498075716642729,-0.09498075716642729
11.526,0.07744669624556577,-0.07744669624556577
11.527,0.050834822469546515,-0.050834822469546515
11.528,0.0244817146651366,-0.0244817146651366
11.529,0.008103048441029048,-0.008103048441029048
11.53,0.00866027369958322,-0.00866027369958322
11.531,0.02811334060684967,-0.02811334060684967
11.532,0.0627802215308847,-0.0627802215308847
11.533,0.10447760915171034,-0.10447760915171034
11.534,0.14302730324008273,-0.14302730324008273
11.535,0.16928187240610693,-0.16928187240610693
11.536,0.17769171522794425,-0.17769171522794425
11.537,0.16763531528337638,-0.16763531528337638
11.538,0.1431813895891959,-0.1431813895891959
11.539,0.11148075767147769,-0.11148075767147769
11.54,0.0804126619740787,-0.0804126619740787
11.541,0.05629675373247989,-0.05629675373247989
11.542,0.04238202950159309,-0.04238202950159309
11.543,0.03849450543733002,-0.03849450543733002
11.544,0.04179927253941951,-0.04179927253941951
11.545,0.04826629758662537,-0.04826629758662537
11.546,0.05424529085914409,-0.05424529085914409
11.547,0.057599811874319395,-0.057599811874319395
11.548,0.05808440214200694,-0.05808440214200694
11.549,0.05696569093965065,-0.05696569093965065
11.55,0.05616313878083623,-0.05616313878083623
11.551,0.057319599283193634,-0.057319599283193634
11.552,0.06117138384163345,-0.06117138384163345
11.553,0.06740827139956507,-0.06740827139956507
11.554,0.07498324461817585,-0.07498324461817585
11.555,0.08264934679341351,-0.08264934679341351
11.556,0.08943791404490209,-0.08943791404490209
11.557,0.09486378872923551,-0.09486378872923551
11.558,0.09880570678200173,-0.09880570678200173
11.559,0.10118363845062683,-0.10118363845062683
11.56,0.1016582963276077,-0.1016582963276077
11.561,0.09956447598030882,-0.09956447598030882
11.562,0.09416662013877675,-0.09416662013877675
11.563,0.08514963040366508,-0.08514963040366508
11.564,0.07311310538776483,-0.07311310538776483
11.565,0.059794154396917265,-0.059794154396917265
11.566,0.04783077876533781,-0.04783077876533781
11.567,0.04006537575392677,-0.04006537575392677
11.568,0.038600040987717854,-0.038600040987717854
11.569,0.043959531626390325,-0.043959531626390325
11.57,0.05472407101787813,-0.05472407101787813
11.571,0.06784640853059509,-0.06784640853059509
11.572,0.07961339330350092,-0.07961339330350092
11.573,0.08694759346358316,-0.08694759346358316
11.574,0.08857671022547386,-0.08857671022547386
11.575,0.08560380548272306,-0.08560380548272306
11.576,0.08120169016875178,-0.08120169016875178
11.577,0.07946942897933018,-0.07946942897933018
11.578,0.08381405490846217,-0.08381405490846217
11.579,0.09543123849479473,-0.09543123849479473
11.58,0.11246664311586141,-0.11246664311586141
11.581,0.13022963239974283,-0.13022963239974283
11.582,0.14246964162804154,-0.14246964162804154
11.583,0.14333995394525179,-0.14333995394525179
11.584,0.1294054924655783,-0.1294054924655783
11.585,0.10100392325540508,-0.10100392325540508
11.586,0.06246788430734107,-0.06246788430734107
11.587,0.021095526553161936,-0.021095526553161936
11.588,0.014816314988562729,0.014816314988562729
11.589,0.03824032764513863,0.03824032764513863
11.59,0.04525295284147246,0.04525295284147246
11.591,0.03585886609495925,0.03585886609495925
11.592,0.01359031954733636,0.01359031954733636
11.593,0.015904905213013354,-0.015904905213013354
11.594,0.04673260316182937,-0.04673260316182937
11.595,0.07439579255124074,-0.07439579255124074
11.596,0.09665843228617188,-0.09665843228617188
11.597,0.11340614738128585,-0.11340614738128585
11.598,0.12568587247797836,-0.12568587247797836
11.599,0.13442733846343702,-0.13442733846343702
11.6,0.1394613398967145,-0.1394613398967145
11.601,0.13930857080645387,-0.13930857080645387
11.602,0.1318731910609251,-0.1318731910609251
11.603,0.1157709220315224,-0.1157709220315224
11.604,0.09171456185662563,-0.09171456185662563
11.605,0.06329845081670826,-0.06329845081670826
11.606,0.03671081661403264,-0.03671081661403264
11.607,0.019298101075706953,-0.019298101075706953
11.608,0.017363387031808952,-0.017363387031808952
11.609,0.03392607787658797,-0.03392607787658797
11.61,0.06726172601947977,-0.06726172601947977
11.611,0.11082947882919825,-0.11082947882919825
11.612,0.1547428225464299,-0.1547428225464299
11.613,0.18840301467305343,-0.18840301467305343
11.614,0.20348745907866417,-0.20348745907866417
11.615,0.1963277231253705,-0.1963277231253705
11.616,0.16889052108833635,-0.16889052108833635
11.617,0.1280352647296209,-0.1280352647296209
11.618,0.083305004820175,-0.083305004820175
11.619,0.04400676651372315,-0.04400676651372315
11.62,0.016572085855624086,-0.016572085855624086
11.621,0.0030719582269639334,-0.0030719582269639334
11.622,0.0013322409915084155,-0.0013322409915084155
11.623,0.00650994194141763,-0.00650994194141763
11.624,0.013461340635290253,-0.013461340635290253
11.625,0.01895484545694681,-0.01895484545694681
11.626,0.022859655092075992,-0.022859655092075992
11.627,0.027849730830092123,-0.027849730830092123
11.628,0.0377519652071967,-0.0377519652071967
11.629,0.05521798848250892,-0.05521798848250892
11.63,0.07970056301849704,-0.07970056301849704
11.631,0.10664543210583544,-0.10664543210583544
11.632,0.12838056916553542,-0.12838056916553542
11.633,0.13654412729661847,-0.13654412729661847
11.634,0.12527131044104867,-0.12527131044104867
11.635,0.09399215286782447,-0.09399215286782447
11.636,0.0487269696343271,-0.0487269696343271
11.637,0.0012137759061808806,-0.0012137759061808806
11.638,0.034076701863071435,0.034076701863071435
11.639,0.044230655550964615,0.044230655550964615
11.64,0.022158821784123983,0.022158821784123983
11.641,0.030577360757347738,-0.030577360757347738
11.642,0.1034153484564374,-0.1034153484564374
11.643,0.1791987418826908,-0.1791987418826908
11.644,0.2387439582435118,-0.2387439582435118
11.645,0.2662494330944223,-0.2662494330944223
11.646,0.253915114253373,-0.253915114253373
11.647,0.20434044669629992,-0.20434044669629992
11.648,0.1299292937941544,-0.1299292937941544
11.649,0.049443247936906576,-0.049443247936906576
11.65,0.01727978551528886,0.01727978551528886
11.651,0.05486534596557968,0.05486534596557968
11.652,0.056556209846993166,0.056556209846993166
11.653,0.02577646168301384,0.02577646168301384
11.654,0.02529407401931294,-0.02529407401931294
11.655,0.07962556099270057,-0.07962556099270057
11.656,0.12048487164180333,-0.12048487164180333
11.657,0.13625520608282848,-0.13625520608282848
11.658,0.12352080136307453,-0.12352080136307453
11.659,0.08759069267228914,-0.08759069267228914
11.66,0.04044213194276314,-0.04044213194276314
11.661,0.0031623862172298622,0.0031623862172298622
11.662,0.03012625915599254,0.03012625915599254
11.663,0.032685084454665336,0.032685084454665336
11.664,0.01025605901813198,0.01025605901813198
11.665,0.03094778057736136,-0.03094778057736136
11.666,0.08025583394094504,-0.08025583394094504
11.667,0.1259800825381151,-0.1259800825381151
11.668,0.1588362560129768,-0.1588362560129768
11.669,0.17431525182326224,-0.17431525182326224
11.67,0.173372142212586,-0.173372142212586
11.671,0.16136328085216822,-0.16136328085216822
11.672,0.14570690859465174,-0.14570690859465174
11.673,0.13310433019546708,-0.13310433019546708
11.674,0.12723943355430634,-0.12723943355430634
11.675,0.12766801863903143,-0.12766801863903143
11.676,0.13019582339456104,-0.13019582339456104
11.677,0.12856233683036233,-0.12856233683036233
11.678,0.11684525592626882,-0.11684525592626882
11.679,0.0917938407630361,-0.0917938407630361
11.68,0.05434037007975523,-0.05434037007975523
11.681,0.009804494382776863,-0.009804494382776863
11.682,0.033291001161963596,0.033291001161963596
11.683,0.06545478416852801,0.06545478416852801
11.684,0.07885974525491779,0.07885974525491779
11.685,0.06960159450915016,0.06960159450915016
11.686,0.03891581118134546,0.03891581118134546
11.687,0.007016623009698408,-0.007016623009698408
11.688,0.05863875656438078,-0.05863875656438078
11.689,0.10552841987227923,-0.10552841987227923
11.69,0.13913893690858758,-0.13913893690858758
11.691,0.15498316962230962,-0.15498316962230962
11.692,0.15362634286690013,-0.15362634286690013
11.693,0.14019416756549907,-0.14019416756549907
11.694,0.12253877066947771,-0.12253877066947771
11.695,0.10861048449626753,-0.10861048449626753
11.696,0.10383666775866907,-0.10383666775866907
11.697,0.10932689148820562,-0.10932689148820562
11.698,0.1214909871035249,-0.1214909871035249
11.699,0.13323224586635773,-0.13323224586635773
11.7,0.13638456358679996,-0.13638456358679996
11.701,0.12465046842105532,-0.12465046842105532
11.702,0.09610113103526308,-0.09610113103526308
11.703,0.05439368587060234,-0.05439368587060234
11.704,0.008231334924749256,-0.008231334924749256
11.705,0.03086605854764035,0.03086605854764035
11.706,0.05186461068216719,0.05186461068216719
11.707,0.04759866913990862,0.04759866913990862
11.708,0.01716464115781502,0.01716464115781502
11.709,0.03347358970314673,-0.03347358970314673
11.71,0.09292838495996159,-0.09292838495996159
11.711,0.14749605860133674,-0.14749605860133674
11.712,0.18499889550986937,-0.18499889550986937
11.713,0.198172444212245,-0.198172444212245
11.714,0.1865313716168574,-0.1865313716168574
11.715,0.15612366992357285,-0.15612366992357285
11.716,0.11726587107266362,-0.11726587107266362
11.717,0.08101811801000935,-0.08101811801000935
11.718,0.05558220586874918,-0.05558220586874918
11.719,0.04383755434930614,-0.04383755434930614
11.72,0.042848285492016025,-0.042848285492016025
11.721,0.04549925955503897,-0.04549925955503897
11.722,0.043675088310412225,-0.043675088310412225
11.723,0.031839567573696104,-0.031839567573696104
11.724,0.009702567278993546,-0.009702567278993546
11.725,0.017051710348471305,0.017051710348471305
11.726,0.038342715537965866,0.038342715537965866
11.727,0.043133093935567635,0.043133093935567635
11.728,0.023597427699733053,0.023597427699733053
11.729,0.02143101413927828,-0.02143101413927828
11.73,0.0850125424106003,-0.0850125424106003
11.731,0.15330480146112957,-0.15330480146112957
11.732,0.20919495017385648,-0.20919495017385648
11.733,0.23730240348298248,-0.23730240348298248
11.734,0.22878605568734922,-0.22878605568734922
11.735,0.18438999466043393,-0.18438999466043393
11.736,0.11468314143104164,-0.11468314143104164
11.737,0.037327718542379595,-0.037327718542379595
11.738,0.027837890279219124,0.027837890279219124
11.739,0.0644090299073441,0.0644090299073441
11.74,0.06399647374140227,0.06399647374140227
11.741,0.028386920267606586,0.028386920267606586
11.742,0.03133554669018057,-0.03133554669018057
11.743,0.09835995302975442,-0.09835995302975442
11.744,0.15522796500472835,-0.15522796500472835
11.745,0.1888048091566339,-0.1888048091566339
11.746,0.19362421209268266,-0.19362421209268266
11.747,0.1726777009472058,-0.1726777009472058
11.748,0.13558400003980575,-0.13558400003980575
11.749,0.09491997154844511,-0.09491997154844511
11.75,0.06203894436671753,-0.06203894436671753
11.751,0.04377535448449377,-0.04377535448449377
11.752,0.04103327200976303,-0.04103327200976303
11.753,0.04954050757928041,-0.04954050757928041
11.754,0.062281955628181396,-0.062281955628181396
11.755,0.07257574983399862,-0.07257574983399862
11.756,0.07660655023419105,-0.07660655023419105
11.757,0.07451583415928142,-0.07451583415928142
11.758,0.06974721622088409,-0.06974721622088409
11.759,0.06702558333828235,-0.06702558333828235
11.76,0.0698600200935604,-0.0698600200935604
11.761,0.07861913275304477,-0.07861913275304477
11.762,0.08998398178043521,-0.08998398178043521
11.763,0.09803719615918838,-0.09803719615918838
11.764,0.09660497915514898,-0.09660497915514898
11.765,0.08197116030277596,-0.08197116030277596
11.766,0.054912705734663114,-0.054912705734663114
11.767,0.021225975144118725,-0.021225975144118725
11.768,0.009557909103489859,0.009557909103489859
11.769,0.026923459410689965,0.026923459410689965
11.77,0.02270952546277316,0.02270952546277316
11.771,0.006070185921756899,-0.006070185921756899
11.772,0.05587789532873144,-0.05587789532873144
11.773,0.11724790801884821,-0.11724790801884821
11.774,0.1771669392942632,-0.1771669392942632
11.775,0.2225056471515271,-0.2225056471515271
11.776,0.2434516626882316,-0.2434516626882316
11.777,0.23592992187468853,-0.23592992187468853
11.778,0.20235659168137976,-0.20235659168137976
11.779,0.15062145671201,-0.15062145671201
11.78,0.09173686008375725,-0.09173686008375725
11.781,0.036949792434720186,-0.036949792434720186
11.782,0.004815904002356763,0.004815904002356763
11.783,0.028534079777837507,0.028534079777837507
11.784,0.03341030699180769,0.03341030699180769
11.785,0.022139715442134777,0.022139715442134777
11.786,0.0004492769144421871,-0.0004492769144421871
11.787,0.02881775792047525,-0.02881775792047525
11.788,0.057784491755268674,-0.057784491755268674
11.789,0.08307545160373164,-0.08307545160373164
11.79,0.1014549675058859,-0.1014549675058859
11.791,0.11069692805427123,-0.11069692805427123
11.792,0.10964921777395098,-0.10964921777395098
11.793,0.09849494754302868,-0.09849494754302868
11.794,0.07910384774562229,-0.07910384774562229
11.795,0.05520663694848149,-0.05520663694848149
11.796,0.032102039487266754,-0.032102039487266754
11.797,0.01574667813042141,-0.01574667813042141
11.798,0.011333751541929282,-0.011333751541929282
11.799,0.02173194153776059,-0.02173194153776059
11.8,0.046311943470661365,-0.046311943470661365
11.801,0.0806508506912813,-0.0806508506912813
11.802,0.11736413669945145,-0.11736413669945145
11.803,0.14794346921497026,-0.14794346921497026
11.804,0.16510726250825336,-0.16510726250825336
11.805,0.16494161742501312,-0.16494161742501312
11.806,0.1481199680480837,-0.1481199680480837
11.807,0.11975404502370435,-0.11975404502370435
11.808,0.08786667384270508,-0.08786667384270508
11.809,0.06094042857661974,-0.06094042857661974
11.81,0.045321408162734333,-0.045321408162734333
11.811,0.04332446042306082,-0.04332446042306082
11.812,0.05266413751775867,-0.05266413751775867
11.813,0.06739601598435097,-0.06739601598435097
11.814,0.08004580065250044,-0.08004580065250044
11.815,0.08420465159904023,-0.08420465159904023
11.816,0.07671728483236095,-0.07671728483236095
11.817,0.058736793169501755,-0.058736793169501755
11.818,0.035313751396842896,-0.035313751396842896
11.819,0.013688001889454182,-0.013688001889454182
11.82,0.0008846858846043304,-0.0008846858846043304
11.821,0.0014333248983185998,-0.0014333248983185998
11.822,0.015960538430369597,-0.015960538430369597
11.823,0.041085546191934164,-0.041085546191934164
11.824,0.07059299939712083,-0.07059299939712083
11.825,0.09743261797727087,-0.09743261797727087
11.826,0.11584562273175991,-0.11584562273175991
11.827,0.122921900664688,-0.122921900664688
11.828,0.11913371919133364,-0.11913371919133364
11.829,0.10777233012257226,-0.10777233012257226
11.83,0.09358966881090125,-0.09358966881090125
11.831,0.0811854578074942,-0.0811854578074942
11.832,0.07370562699549832,-0.07370562699549832
11.833,0.07223906353374943,-0.07223906353374943
11.834,0.07599944185854379,-0.07599944185854379
11.835,0.083080032392158,-0.083080032392158
11.836,0.09138549761694281,-0.09138549761694281
11.837,0.09933700334447537,-0.09933700334447537
11.838,0.10610349997591417,-0.10610349997591417
11.839,0.11135601883820057,-0.11135601883820057
11.84,0.11476544441263448,-0.11476544441263448
11.841,0.11557332250260866,-0.11557332250260866
11.842,0.11251729053577464,-0.11251729053577464
11.843,0.10421275339398572,-0.10421275339398572
11.844,0.08986141817930193,-0.08986141817930193
11.845,0.06997759764786293,-0.06997759764786293
11.846,0.046775634097757646,-0.046775634097757646
11.847,0.023971781774053236,-0.023971781774053236
11.848,0.00598023421208993,-0.00598023421208993
11.849,0.00326582843981571,0.00326582843981571
11.85,0.0014659588850354233,0.0014659588850354233
11.851,0.011342059815958594,-0.011342059815958594
11.852,0.032791017120251564,-0.032791017120251564
11.853,0.058912335446533626,-0.058912335446533626
11.854,0.08531617881460174,-0.08531617881460174
11.855,0.10838513077442136,-0.10838513077442136
11.856,0.1260445395205354,-0.1260445395205354
11.857,0.13785045001463025,-0.13785045001463025
11.858,0.14442139448853708,-0.14442139448853708
11.859,0.14651804196092844,-0.14651804196092844
11.86,0.14422869110500058,-0.14422869110500058
11.861,0.1366792875017928,-0.1366792875017928
11.862,0.12246161806697853,-0.12246161806697853
11.863,0.1006477746833736,-0.1006477746833736
11.864,0.07196479393494792,-0.07196479393494792
11.865,0.03956788008092216,-0.03956788008092216
11.866,0.00894440938120411,-0.00894440938120411
11.867,0.013214254734577935,0.013214254734577935
11.868,0.02092577976292076,0.02092577976292076
11.869,0.011008018788991603,0.011008018788991603
11.87,0.015417971866307667,-0.015417971866307667
11.871,0.052657169877802446,-0.052657169877802446
11.872,0.09166371911305327,-0.09166371911305327
11.873,0.12250026478104792,-0.12250026478104792
11.874,0.13730446221831583,-0.13730446221831583
11.875,0.13279005668394872,-0.13279005668394872
11.876,0.11140059443416006,-0.11140059443416006
11.877,0.08064769374316483,-0.08064769374316483
11.878,0.050771952288714894,-0.050771952288714894
11.879,0.031454399855732174,-0.031454399855732174
11.88,0.028666694637076495,-0.028666694637076495
11.881,0.04273913018918396,-0.04273913018918396
11.882,0.06833470116501439,-0.06833470116501439
11.883,0.09636993496865986,-0.09636993496865986
11.884,0.11724097574070313,-0.11724097574070313
11.885,0.124238708230487,-0.124238708230487
11.886,0.11594512811384317,-0.11594512811384317
11.887,0.09673838226958931,-0.09673838226958931
11.888,0.07518815706835158,-0.07518815706835158
11.889,0.06087173327239637,-0.06087173327239637
11.89,0.06071998208220475,-0.06071998208220475
11.891,0.076201800912162,-0.076201800912162
11.892,0.1023950840617055,-0.1023950840617055
11.893,0.12935369140958408,-0.12935369140958408
11.894,0.14537990953365287,-0.14537990953365287
11.895,0.14112854349983528,-0.14112854349983528
11.896,0.11314382903401221,-0.11314382903401221
11.897,0.0655837862138049,-0.0655837862138049
11.898,0.009473018588216364,-0.009473018588216364
11.899,0.04035222161940877,0.04035222161940877
11.9,0.0696637298197127,0.0696637298197127
11.901,0.069213935223851,0.069213935223851
11.902,0.03765140949963208,0.03765140949963208
11.903,0.017958863527415492,-0.017958863527415492
11.904,0.08416822417743908,-0.08416822417743908
11.905,0.14506376642781926,-0.14506376642781926
11.906,0.18681663454291697,-0.18681663454291697
11.907,0.20143502430357596,-0.20143502430357596
11.908,0.18860106284270928,-0.18860106284270928
11.909,0.15512823056015057,-0.15512823056015057
11.91,0.11235592485308654,-0.11235592485308654
11.911,0.07243525972612308,-0.07243525972612308
11.912,0.044749307501439795,-0.044749307501439795
11.913,0.033573404766829684,-0.033573404766829684
11.914,0.037587946155139496,-0.037587946155139496
11.915,0.05119644568926052,-0.05119644568926052
11.916,0.06701131687332551,-0.06701131687332551
11.917,0.07854630645410965,-0.07854630645410965
11.918,0.0821895690871638,-0.0821895690871638
11.919,0.07788436123739695,-0.07788436123739695
11.92,0.06846433982252309,-0.06846433982252309
11.921,0.05807705826759457,-0.05807705826759457
11.922,0.05040830113533101,-0.05040830113533101
11.923,0.04740583377193652,-0.04740583377193652
11.924,0.04892356280556587,-0.04892356280556587
11.925,0.05329314797451534,-0.05329314797451534
11.926,0.05845104399584178,-0.05845104399584178
11.927,0.0630524021008495,-0.0630524021008495
11.928,0.06705721483323646,-0.06705721483323646
11.929,0.07154364162753069,-0.07154364162753069
11.93,0.0778681855323079,-0.0778681855323079
11.931,0.08659661709377353,-0.08659661709377353
11.932,0.09674526444911047,-0.09674526444911047
11.933,0.10575019044225253,-0.10575019044225253
11.934,0.11027055091835136,-0.11027055091835136
11.935,0.1075592281706802,-0.1075592281706802
11.936,0.09685369000887256,-0.09685369000887256
11.937,0.08017400996584845,-0.08017400996584845
11.938,0.06210120698618593,-0.06210120698618593
11.939,0.04848561946034147,-0.04848561946034147
11.94,0.044461771084399415,-0.044461771084399415
11.941,0.052457304799198856,-0.052457304799198856
11.942,0.07095112825256822,-0.07095112825256822
11.943,0.09452022526757875,-0.09452022526757875
11.944,0.11528196211145447,-0.11528196211145447
11.945,0.1253395767986878,-0.1253395767986878
11.946,0.11945348490153895,-0.11945348490153895
11.947,0.09703469446216884,-0.09703469446216884
11.948,0.06274373744086092,-0.06274373744086092
11.949,0.025422322991011437,-0.025422322991011437
11.95,0.004364051355576493,0.004364051355576493
11.951,0.017425564646793124,0.017425564646793124
11.952,0.00871857733715986,0.00871857733715986
11.953,0.021085611431641782,-0.021085611431641782
11.954,0.06572007442821659,-0.06572007442821659
11.955,0.11507423514507564,-0.11507423514507564
11.956,0.15801020466740534,-0.15801020466740534
11.957,0.18536121514466997,-0.18536121514466997
11.958,0.192212439060365,-0.192212439060365
11.959,0.1788369010074603,-0.1788369010074603
11.96,0.15011675508244415,-0.15011675508244415
11.961,0.1137605495511902,-0.1137605495511902
11.962,0.07796935565426821,-0.07796935565426821
11.963,0.04930536395739504,-0.04930536395739504
11.964,0.03136254088133461,-0.03136254088133461
11.965,0.02450604363285125,-0.02450604363285125
11.966,0.02656716140856763,-0.02656716140856763
11.967,0.034090124708127445,-0.034090124708127445
11.968,0.043617699110629515,-0.043617699110629515
11.969,0.05259065536417795,-0.05259065536417795
11.97,0.05966376067585666,-0.05966376067585666
11.971,0.06450311383246154,-0.06450311383246154
11.972,0.0673193407979038,-0.0673193407979038
11.973,0.06844109481908212,-0.06844109481908212
11.974,0.06813986566627328,-0.06813986566627328
11.975,0.06673738872700274,-0.06673738872700274
11.976,0.0648512589412159,-0.0648512589412159
11.977,0.0635462323303766,-0.0635462323303766
11.978,0.06419908990341427,-0.06419908990341427
11.979,0.0680351581904951,-0.0680351581904951
11.98,0.07548477229583339,-0.07548477229583339
11.981,0.08564739935554289,-0.08564739935554289
11.982,0.09616772676923091,-0.09616772676923091
11.983,0.10370068495735951,-0.10370068495735951
11.984,0.10491267499883361,-0.10491267499883361
11.985,0.0977239897733756,-0.0977239897733756
11.986,0.08234535895039397,-0.08234535895039397
11.987,0.06167333248053497,-0.06167333248053497
11.988,0.04079702577027433,-0.04079702577027433
11.989,0.025674458892909202,-0.025674458892909202
11.99,0.021350879098238296,-0.021350879098238296
11.991,0.030293616217434205,-0.030293616217434205
11.992,0.05142331781681719,-0.05142331781681719
11.993,0.08021530679039435,-0.08021530679039435
11.994,0.10989203889756927,-0.10989203889756927
11.995,0.13335101787380477,-0.13335101787380477
11.996,0.1452087305784564,-0.1452087305784564
11.997,0.14328980612296804,-0.14328980612296804
11.998,0.12907577980227058,-0.12907577980227058
11.999,0.10698712773622754,-0.10698712773622754
12.0,0.08277792823900898,-0.08277792823900898
12.001,0.06162781251814964,-0.06162781251814964
12.002,0.046609130737397475,-0.046609130737397475
12.003,0.03805392848955402,-0.03805392848955402
12.004,0.03400172679392055,-0.03400172679392055
12.005,0.031502391826242704,-0.031502391826242704
12.006,0.028229814204289605,-0.028229814204289605
12.007,0.02375074729432025,-0.02375074729432025
12.008,0.019931080989591954,-0.019931080989591954
12.009,0.020297864047969072,-0.020297864047969072
12.01,0.028583566194931076,-0.028583566194931076
12.011,0.04700537078560052,-0.04700537078560052
12.012,0.07495228825707945,-0.07495228825707945
12.013,0.10861876336882648,-0.10861876336882648
12.014,0.1417826119227733,-0.1417826119227733
12.015,0.1675031549647571,-0.1675031549647571
12.016,0.18016956331172806,-0.18016956331172806
12.017,0.17718977968969063,-0.17718977968969063
12.018,0.1597308539207719,-0.1597308539207719
12.019,0.13225904317043446,-0.13225904317043446
12.02,0.10105808325556653,-0.10105808325556653
12.021,0.0722669294560101,-0.0722669294560101
12.022,0.05013892343462434,-0.05013892343462434
12.023,0.03612327153597128,-0.03612327153597128
12.024,0.029045823392008674,-0.029045823392008674
12.025,0.02624258235158805,-0.02624258235158805
12.026,0.025137498438962402,-0.025137498438962402
12.027,0.02459447589317143,-0.02459447589317143
12.028,0.025475107382289197,-0.025475107382289197
12.029,0.03016092649195301,-0.03016092649195301
12.03,0.04122704332025584,-0.04122704332025584
12.031,0.05981699197721768,-0.05981699197721768
12.032,0.08442228869762791,-0.08442228869762791
12.033,0.11064768160491067,-0.11064768160491067
12.034,0.13218209658993307,-0.13218209658993307
12.035,0.14272648262105814,-0.14272648262105814
12.036,0.138229587794793,-0.138229587794793
12.037,0.11860796121752881,-0.11860796121752881
12.038,0.08825463765160069,-0.08825463765160069
12.039,0.05503862600507825,-0.05503862600507825
12.04,0.028029225495010857,-0.028029225495010857
12.041,0.014655206301043333,-0.014655206301043333
12.042,0.0182524481269708,-0.0182524481269708
12.043,0.0368668139585715,-0.0368668139585715
12.044,0.06378040588742251,-0.06378040588742251
12.045,0.08965019980826383,-0.08965019980826383
12.046,0.10558778762777732,-0.10558778762777732
12.047,0.10616511196156608,-0.10616511196156608
12.048,0.0913289517755409,-0.0913289517755409
12.049,0.06655403279105232,-0.06655403279105232
12.05,0.041146634397127846,-0.041146634397127846
12.051,0.025230235974813664,-0.025230235974813664
12.052,0.026390510497582675,-0.026390510497582675
12.053,0.04707656180458186,-0.04707656180458186
12.054,0.0836085531616485,-0.0836085531616485
12.055,0.12711409369952908,-0.12711409369952908
12.056,0.16608717248631832,-0.16608717248631832
12.057,0.18974595643148717,-0.18974595643148717
12.058,0.1911295922049342,-0.1911295922049342
12.059,0.16899020680404842,-0.16899020680404842
12.06,0.12795441455882128,-0.12795441455882128
12.061,0.07699829894172028,-0.07699829894172028
12.062,0.026805231837377486,-0.026805231837377486
12.063,0.013115072764152913,0.013115072764152913
12.064,0.036665289557324954,0.036665289557324954
12.065,0.04216063298778461,0.04216063298778461
12.066,0.03194947126162839,0.03194947126162839
12.067,0.010971927609051635,0.010971927609051635
12.068,0.015121642732874196,-0.015121642732874196
12.069,0.04161186289297225,-0.04161186289297225
12.07,0.0656156516437073,-0.0656156516437073
12.071,0.0860987332426123,-0.0860987332426123
12.072,0.10319243420827906,-0.10319243420827906
12.073,0.11724805915462677,-0.11724805915462677
12.074,0.1281019655766863,-0.1281019655766863
12.075,0.13487017018055825,-0.13487017018055825
12.076,0.13632029072736263,-0.13632029072736263
12.077,0.13159922149450043,-0.13159922149450043
12.078,0.12093808840864229,-0.12093808840864229
12.079,0.10597165668912711,-0.10597165668912711
12.08,0.08948440109389588,-0.08948440109389588
12.081,0.07465141214175053,-0.07465141214175053
12.082,0.06406877540378175,-0.06406877540378175
12.083,0.058968332057615536,-0.058968332057615536
12.084,0.05894243292444967,-0.05894243292444967
12.085,0.062293157346552164,-0.062293157346552164
12.086,0.06685522616855544,-0.06685522616855544
12.087,0.07093468869627084,-0.07093468869627084
12.088,0.07394705109446364,-0.07394705109446364
12.089,0.07645982197569356,-0.07645982197569356
12.09,0.07960201435794723,-0.07960201435794723
12.091,0.08409405378708024,-0.08409405378708024
12.092,0.08935309523252877,-0.08935309523252877
12.093,0.09314773130618681,-0.09314773130618681
12.094,0.09208846932189563,-0.09208846932189563
12.095,0.08290541262414886,-0.08290541262414886
12.096,0.06410656767727563,-0.06410656767727563
12.097,0.037373484155061365,-0.037373484155061365
12.098,0.008044552373921654,-0.008044552373921654
12.099,0.01571123252699369,0.01571123252699369
12.1,0.02498492057485091,0.02498492057485091
12.101,0.012953132840847426,0.012953132840847426
12.102,0.0224408708276308,-0.0224408708276308
12.103,0.07690281540831367,-0.07690281540831367
12.104,0.13999471267022878,-0.13999471267022878
12.105,0.1973024760617219,-0.1973024760617219
12.106,0.23409779621218874,-0.23409779621218874
12.107,0.23949481542739648,-0.23949481542739648
12.108,0.20985786513548577,-0.20985786513548577
12.109,0.15036139506462753,-0.15036139506462753
12.11,0.074111114157005,-0.074111114157005
12.111,0.0010421807813820738,0.0010421807813820738
12.112,0.05715272798496862,0.05715272798496862
12.113,0.080978098451844,0.080978098451844
12.114,0.06753377645291425,0.06753377645291425
12.115,0.02136402004721294,0.02136402004721294
12.116,0.044836641199708316,-0.044836641199708316
12.117,0.11382960187993874,-0.11382960187993874
12.118,0.16858994909660885,-0.16858994909660885
12.119,0.19682061514174942,-0.19682061514174942
12.12,0.1939382642341907,-0.1939382642341907
12.121,0.16374330800019177,-0.16374330800019177
12.122,0.11670571818528475,-0.11670571818528475
12.123,0.06650964588204755,-0.06650964588204755
12.124,0.02598272533299517,-0.02598272533299517
12.125,0.0036498574553047725,-0.0036498574553047725
12.126,0.0018781650496257907,-0.0018781650496257907
12.127,0.01702520263719276,-0.01702520263719276
12.128,0.04135642132833761,-0.04135642132833761
12.129,0.06596983708226711,-0.06596983708226711
12.13,0.08371615970046409,-0.08371615970046409
12.131,0.09119297135926763,-0.09119297135926763
12.132,0.08927003958329238,-0.08927003958329238
12.133,0.08212726724620267,-0.08212726724620267
12.134,0.07527616934623049,-0.07527616934623049
12.135,0.07333216084980732,-0.07333216084980732
12.136,0.07832410381577626,-0.07832410381577626
12.137,0.08908244642234797,-0.08908244642234797
12.138,0.10183785911886167,-0.10183785911886167
12.139,0.11173692957526304,-0.11173692957526304
12.14,0.11468451154477743,-0.11468451154477743
12.141,0.10884583061315589,-0.10884583061315589
12.142,0.09529756464333394,-0.09529756464333394
12.143,0.07763873191156567,-0.07763873191156567
12.144,0.06074032775056626,-0.06074032775056626
12.145,0.04909954849836884,-0.04909954849836884
12.146,0.04537732745392986,-0.04537732745392986
12.147,0.04960814740390551,-0.04960814740390551
12.148,0.05932014072287972,-0.05932014072287972
12.149,0.0704848350109728,-0.0704848350109728
12.15,0.0789405816166342,-0.0789405816166342
12.151,0.08179192783049927,-0.08179192783049927
12.152,0.07831927686640361,-0.07831927686640361
12.153,0.07011895703469562,-0.07011895703469562
12.154,0.06046296590134892,-0.06046296590134892
12.155,0.05312614832813911,-0.05312614832813911
12.156,0.05109144262675036,-0.05109144262675036
12.157,0.05556284813148382,-0.05556284813148382
12.158,0.06559312218509916,-0.06559312218509916
12.159,0.0784176065322012,-0.0784176065322012
12.16,0.09035315321621584,-0.09035315321621584
12.161,0.09794857613088093,-0.09794857613088093
12.162,0.09901243257156656,-0.09901243257156656
12.163,0.0932072311463712,-0.0932072311463712
12.164,0.0820571894386194,-0.0820571894386194
12.165,0.06841155403415189,-0.06841155403415189
12.166,0.05557167116911643,-0.05557167116911643
12.167,0.04637616458478533,-0.04637616458478533
12.168,0.042523413715728764,-0.042523413715728764
12.169,0.04430738387982014,-0.04430738387982014
12.17,0.05079277329490506,-0.05079277329490506
12.171,0.06031157167969503,-0.06031157167969503
12.172,0.07107238346935196,-0.07107238346935196
12.173,0.08166192482166434,-0.08166192482166434
12.174,0.09128244138758834,-0.09128244138758834
12.175,0.09968151869376762,-0.09968151869376762
12.176,0.10684956929639289,-0.10684956929639289
12.177,0.1126434911843538,-0.1126434911843538
12.178,0.11651542206515675,-0.11651542206515675
12.179,0.11747882008456323,-0.11747882008456323
12.18,0.11434912677474507,-0.11434912677474507
12.181,0.10618773942190762,-0.10618773942190762
12.182,0.09279433635152634,-0.09279433635152634
12.183,0.07506289255424625,-0.07506289255424625
12.184,0.055051410882732243,-0.055051410882732243
12.185,0.03570313327924013,-0.03570313327924013
12.186,0.02026882000279162,-0.02026882000279162
12.187,0.011578773320616298,-0.011578773320616298
12.188,0.01136709479407283,-0.01136709479407283
12.189,0.019841485500992184,-0.019841485500992184
12.19,0.03562244063487341,-0.03562244063487341
12.191,0.056068041569961924,-0.056068041569961924
12.192,0.07788886860343802,-0.07788886860343802
12.193,0.0978769394948007,-0.0978769394948007
12.194,0.11354770179680274,-0.11354770179680274
12.195,0.12353135558038997,-0.12353135558038997
12.196,0.1276353924860516,-0.1276353924860516
12.197,0.12660506251685277,-0.12660506251685277
12.198,0.12169782331894086,-0.12169782331894086
12.199,0.11423306326623683,-0.11423306326623683
12.2,0.10526650945080851,-0.10526650945080851
12.201,0.09547655760185236,-0.09547655760185236
12.202,0.08526136550180274,-0.08526136550180274
12.203,0.074963694282139,-0.074963694282139
12.204,0.06509497154863642,-0.06509497154863642
12.205,0.05643706778224722,-0.05643706778224722
12.206,0.049956460913817335,-0.049956460913817335
12.207,0.046548966045719786,-0.046548966045719786
12.208,0.04671151457031375,-0.04671151457031375
12.209,0.05027932894301468,-0.05027932894301468
12.21,0.05635407473951004,-0.05635407473951004
12.211,0.06348340496988292,-0.06348340496988292
12.212,0.07005735806250635,-0.07005735806250635
12.213,0.07479766870390825,-0.07479766870390825
12.214,0.07716745586399154,-0.07716745586399154
12.215,0.07754273177328141,-0.07754273177328141
12.216,0.07706298012075352,-0.07706298012075352
12.217,0.07719137171674473,-0.07719137171674473
12.218,0.07912590516760276,-0.07912590516760276
12.219,0.08326908538231226,-0.08326908538231226
12.22,0.0889577874440669,-0.0889577874440669
12.221,0.09457397911364562,-0.09457397911364562
12.222,0.09802599045763016,-0.09802599045763016
12.223,0.09745410095940166,-0.09745410095940166
12.224,0.09192298155933543,-0.09192298155933543
12.225,0.08185304650365366,-0.08185304650365366
12.226,0.06902147627952537,-0.06902147627952537
12.227,0.05610776400230333,-0.05610776400230333
12.228,0.04591911540121307,-0.04591911540121307
12.229,0.04055041558611794,-0.04055041558611794
12.23,0.040766482918040414,-0.040766482918040414
12.231,0.04582509381147071,-0.04582509381147071
12.232,0.05380854521105183,-0.05380854521105183
12.233,0.0623507969973256,-0.0623507969973256
12.234,0.06950119576669322,-0.06950119576669322
12.235,0.07440918476210023,-0.07440918476210023
12.236,0.07757155189835596,-0.07757155189835596
12.237,0.08053826499526673,-0.08053826499526673
12.238,0.08517198527546033,-0.08517198527546033
12.239,0.09272856400482798,-0.09272856400482798
12.24,0.10310668483496022,-0.10310668483496022
12.241,0.11457058329987635,-0.11457058329987635
12.242,0.12409114456598858,-0.12409114456598858
12.243,0.12823064827500597,-0.12823064827500597
12.244,0.12429260392057007,-0.12429260392057007
12.245,0.11134533655298584,-0.11134533655298584
12.246,0.09075090189898294,-0.09075090189898294
12.247,0.065986641328594,-0.065986641328594
12.248,0.0417841502671481,-0.0417841502671481
12.249,0.022847278294502726,-0.022847278294502726
12.25,0.012562267307000052,-0.012562267307000052
12.251,0.012122820763182274,-0.012122820763182274
12.252,0.020353952784156193,-0.020353952784156193
12.253,0.03427755657430365,-0.03427755657430365
12.254,0.05020440645379409,-0.05020440645379409
12.255,0.06495458968538537,-0.06495458968538537
12.256,0.07676852658446165,-0.07676852658446165
12.257,0.08559045856798364,-0.08559045856798364
12.258,0.09264416001372344,-0.09264416001372344
12.259,0.09949085898700949,-0.09949085898700949
12.26,0.10696207638342448,-0.10696207638342448
12.261,0.11441775999896198,-0.11441775999896198
12.262,0.11966668002562231,-0.11966668002562231
12.263,0.11963826018444967,-0.11963826018444967
12.264,0.11160075932798308,-0.11160075932798308
12.265,0.09448848807329269,-0.09448848807329269
12.266,0.06982045647166957,-0.06982045647166957
12.267,0.041802173822129474,-0.041802173822129474
12.268,0.01647096788429514,-0.01647096788429514
12.269,8.336677607068133e-05,-8.336677607068133e-05
12.27,0.0027681858419326133,0.0027681858419326133
12.271,0.009310942117064402,-0.009310942117064402
12.272,0.03387575629362993,-0.03387575629362993
12.273,0.06516305296701452,-0.06516305296701452
12.274,0.09566967146024452,-0.09566967146024452
12.275,0.11832364598761047,-0.11832364598761047
12.276,0.1285707276527851,-0.1285707276527851
12.277,0.1257063938107642,-0.1257063938107642
12.278,0.1130152096361422,-0.1130152096361422
12.279,0.09666127970073957,-0.09666127970073957
12.28,0.08367909202691015,-0.08367909202691015
12.281,0.0797073656307219,-0.0797073656307219
12.282,0.08719075823637312,-0.08719075823637312
12.283,0.1046178912724367,-0.1046178912724367
12.284,0.12702229702871692,-0.12702229702871692
12.285,0.14756118621040415,-0.14756118621040415
12.286,0.1596434987514591,-0.1596434987514591
12.287,0.1589167584649317,-0.1589167584649317
12.288,0.14449170368633268,-0.14449170368633268
12.289,0.11905500832270688,-0.11905500832270688
12.29,0.0878963661672496,-0.0878963661672496
12.291,0.05722667692093508,-0.05722667692093508
12.292,0.03237177534493452,-0.03237177534493452
12.293,0.0164268718944538,-0.0164268718944538
12.294,0.009760190039045269,-0.009760190039045269
12.295,0.01043784986801466,-0.01043784986801466
12.296,0.015322081694006728,-0.015322081694006728
12.297,0.021383786805797333,-0.021383786805797333
12.298,0.026737129069029697,-0.026737129069029697
12.299,0.03105040582679819,-0.03105040582679819
12.3,0.03525095690948654,-0.03525095690948654
12.301,0.040719298757707856,-0.040719298757707856
12.302,0.04835484403077239,-0.04835484403077239
12.303,0.05792552386820826,-0.05792552386820826
12.304,0.06798040659379467,-0.06798040659379467
12.305,0.07636381638905121,-0.07636381638905121
12.306,0.08111697201135881,-0.08111697201135881
12.307,0.0813874210180151,-0.0813874210180151
12.308,0.07795212675338392,-0.07795212675338392
12.309,0.07310339593011272,-0.07310339593011272
12.31,0.06989395316249247,-0.06989395316249247
12.311,0.07099438206227016,-0.07099438206227016
12.312,0.07758409078731232,-0.07758409078731232
12.313,0.08870942471053656,-0.08870942471053656
12.314,0.10139044344558357,-0.10139044344558357
12.315,0.11149345517396148,-0.11149345517396148
12.316,0.11510456731663676,-0.11510456731663676
12.317,0.10994336444198571,-0.10994336444198571
12.318,0.09631900227872991,-0.09631900227872991
12.319,0.07727062110508942,-0.07727062110508942
12.32,0.057803949429749424,-0.057803949429749424
12.321,0.04344315737026494,-0.04344315737026494
12.322,0.038554321433443506,-0.038554321433443506
12.323,0.044981238668272416,-0.044981238668272416
12.324,0.0614361412141069,-0.0614361412141069
12.325,0.08384107421462694,-0.08384107421462694
12.326,0.10650546530224281,-0.10650546530224281
12.327,0.12375773718518945,-0.12375773718518945
12.328,0.13151329359364938,-0.13151329359364938
12.329,0.12830018062255721,-0.12830018062255721
12.33,0.11545863303713821,-0.11545863303713821
12.331,0.0965101583018676,-0.0965101583018676
12.332,0.07595793803745965,-0.07595793803745965
12.333,0.05794375706321897,-0.05794375706321897
12.334,0.04519734491400573,-0.04519734491400573
12.335,0.03857714752911823,-0.03857714752911823
12.336,0.0372734759685337,-0.0372734759685337
12.337,0.039511054075844765,-0.039511054075844765
12.338,0.04343099654340399,-0.04343099654340399
12.339,0.04780302219086785,-0.04780302219086785
12.34,0.052319367116065885,-0.052319367116065885
12.341,0.05740730170170871,-0.05740730170170871
12.342,0.06369354444553976,-0.06369354444553976
12.343,0.07138686784861159,-0.07138686784861159
12.344,0.07986728992444769,-0.07986728992444769
12.345,0.08767725080559685,-0.08767725080559685
12.346,0.09294125961371746,-0.09294125961371746
12.347,0.09406228033672004,-0.09406228033672004
12.348,0.09042414598850179,-0.09042414598850179
12.349,0.08281452167923764,-0.08281452167923764
12.35,0.07337767712997922,-0.07337767712997922
12.351,0.0650750882990837,-0.0650750882990837
12.352,0.06081225425217707,-0.06081225425217707
12.353,0.06251610688149989,-0.06251610688149989
12.354,0.07047351849390415,-0.07047351849390415
12.355,0.0831586946081736,-0.0831586946081736
12.356,0.09761561316500067,-0.09761561316500067
12.357,0.11027835462048174,-0.11027835462048174
12.358,0.1179706311376374,-0.1179706311376374
12.359,0.11877324697955827,-0.11877324697955827
12.36,0.11249955271724987,-0.11249955271724987
12.361,0.10065298317395299,-0.10065298317395299
12.362,0.08590909116531387,-0.08590909116531387
12.363,0.0713095732017538,-0.0713095732017538
12.364,0.05943126259091436,-0.05943126259091436
12.365,0.05177896852127051,-0.05177896852127051
12.366,0.04855886840617318,-0.04855886840617318
12.367,0.048855663783790026,-0.048855663783790026
12.368,0.05110932255396794,-0.05110932255396794
12.369,0.05370693742903987,-0.05370693742903987
12.37,0.05549313213420959,-0.05549313213420959
12.371,0.05605449662633488,-0.05605449662633488
12.372,0.055724611815651914,-0.055724611815651914
12.373,0.055351223345818434,-0.055351223345818434
12.374,0.05593434302050859,-0.05593434302050859
12.375,0.05826581464396219,-0.05826581464396219
12.376,0.06267775037741274,-0.06267775037741274
12.377,0.06895507303067172,-0.06895507303067172
12.378,0.07640911890036617,-0.07640911890036617
12.379,0.08406524867104803,-0.08406524867104803
12.38,0.09089839613368078,-0.09089839613368078
12.381,0.09605538904969046,-0.09605538904969046
12.382,0.09902193120171132,-0.09902193120171132
12.383,0.09971312229533913,-0.09971312229533913
12.384,0.09848091752988486,-0.09848091752988486
12.385,0.09603880248121732,-0.09603880248121732
12.386,0.09330835234785273,-0.09330835234785273
12.387,0.09120142918017493,-0.09120142918017493
12.388,0.09036923562153076,-0.09036923562153076
12.389,0.09097181278043087,-0.09097181278043087
12.39,0.09253841217951808,-0.09253841217951808
12.391,0.09398746643141309,-0.09398746643141309
12.392,0.09384577151896467,-0.09384577151896467
12.393,0.09065133264615832,-0.09065133264615832
12.394,0.0834569741406922,-0.0834569741406922
12.395,0.07229548369044392,-0.07229548369044392
12.396,0.058446339300374905,-0.058446339300374905
12.397,0.04437490869348093,-0.04437490869348093
12.398,0.033296689315248096,-0.033296689315248096
12.399,0.028431768229182364,-0.028431768229182364
12.4,0.03212387401215422,-0.03212387401215422
12.401,0.045066253945513446,-0.045066253945513446
12.402,0.06587509442201533,-0.06587509442201533
12.403,0.09117322254857918,-0.09117322254857918
12.404,0.11621064988368168,-0.11621064988368168
12.405,0.1358933762066168,-0.1358933762066168
12.406,0.14596584005674806,-0.14596584005674806
12.407,0.14403654179426684,-0.14403654179426684
12.408,0.13017061211767977,-0.13017061211767977
12.409,0.10688899725835421,-0.10688899725835421
12.41,0.07857690913198168,-0.07857690913198168
12.411,0.05046474169979154,-0.05046474169979154
12.412,0.0274546028045054,-0.0274546028045054
12.413,0.013093762374721818,-0.013093762374721818
12.414,0.008938133148997163,-0.008938133148997163
12.415,0.014426920504620688,-0.014426920504620688
12.416,0.02724473538223826,-0.02724473538223826
12.417,0.04402461715054784,-0.04402461715054784
12.418,0.061178407010646474,-0.061178407010646474
12.419,0.07564242083678985,-0.07564242083678985
12.42,0.08538581079945162,-0.08538581079945162
12.421,0.08961872134048265,-0.08961872134048265
12.422,0.08872420506199874,-0.08872420506199874
12.423,0.08399559081563002,-0.08399559081563002
12.424,0.07727857496101165,-0.07727857496101165
12.425,0.07060062407810264,-0.07060062407810264
12.426,0.06583697064685079,-0.06583697064685079
12.427,0.06443266702447947,-0.06443266702447947
12.428,0.06718719583478527,-0.06718719583478527
12.429,0.07411332561561523,-0.07411332561561523
12.43,0.08439519998945333,-0.08439519998945333
12.431,0.0964767173366341,-0.0964767173366341
12.432,0.10829797521769446,-0.10829797521769446
12.433,0.11766299525111035,-0.11766299525111035
12.434,0.12267654467054834,-0.12267654467054834
12.435,0.12215060997342442,-0.12215060997342442
12.436,0.11587118771521399,-0.11587118771521399
12.437,0.10464381982918392,-0.10464381982918392
12.438,0.09009708139400652,-0.09009708139400652
12.439,0.07429767523450181,-0.07429767523450181
12.44,0.05929158204785734,-0.05929158204785734
12.441,0.046708423460728454,-0.046708423460728454
12.442,0.037539823185674615,-0.037539823185674615
12.443,0.03213523315099931,-0.03213523315099931
12.444,0.030375726172640727,-0.030375726172640727
12.445,0.03192075080544299,-0.03192075080544299
12.446,0.036402378743115804,-0.036402378743115804
12.447,0.04347623054499106,-0.04347623054499106
12.448,0.052715142588464325,-0.052715142588464325
12.449,0.06341867212505792,-0.06341867212505792
12.45,0.0744697179840752,-0.0744697179840752
12.451,0.08436908032391677,-0.08436908032391677
12.452,0.09151282525045668,-0.09151282525045668
12.453,0.09466717166525374,-0.09466717166525374
12.454,0.09348468665207466,-0.09348468665207466
12.455,0.08884340879440455,-0.08884340879440455
12.456,0.08281261893043868,-0.08281261893043868
12.457,0.07816025458023768,-0.07816025458023768
12.458,0.07748590037332292,-0.07748590037332292
12.459,0.08223022966947413,-0.08223022966947413
12.46,0.09190942934304014,-0.09190942934304014
12.461,0.10390234983215618,-0.10390234983215618
12.462,0.11396929351979346,-0.11396929351979346
12.463,0.1174427962231912,-0.1174427962231912
12.464,0.11077946617043088,-0.11077946617043088
12.465,0.09298875949855034,-0.09298875949855034
12.466,0.06643172266029107,-0.06643172266029107
12.467,0.03663535095562065,-0.03663535095562065
12.468,0.011060735966058388,-0.011060735966058388
12.469,0.0028931412330024386,0.0028931412330024386
12.47,8.77603087872103e-05,8.77603087872103e-05
12.471,0.02063219845665898,-0.02063219845665898
12.472,0.05576851905181013,-0.05576851905181013
12.473,0.0978303658056433,-0.0978303658056433
12.474,0.13719855455356988,-0.13719855455356988
12.475,0.16467975480037989,-0.16467975480037989
12.476,0.17400183558112636,-0.17400183558112636
12.477,0.1634998278489257,-0.1634998278489257
12.478,0.136481457286319,-0.136481457286319
12.479,0.10016856236466931,-0.10016856236466931
12.48,0.06355452959656638,-0.06355452959656638
12.481,0.03485225477851961,-0.03485225477851961
12.482,0.01932132732661551,-0.01932132732661551
12.483,0.018119910554018737,-0.018119910554018737
12.484,0.028475907343850082,-0.028475907343850082
12.485,0.045033580642176774,-0.045033580642176774
12.486,0.061855075757176414,-0.061855075757176414
12.487,0.07436793740593062,-0.07436793740593062
12.488,0.08060986240727663,-0.08060986240727663
12.489,0.08140349605075325,-0.08140349605075325
12.49,0.07949284038863258,-0.07949284038863258
12.491,0.078044807822085,-0.078044807822085
12.492,0.07913233419032428,-0.07913233419032428
12.493,0.08279585686054636,-0.08279585686054636
12.494,0.08703932550091664,-0.08703932550091664
12.495,0.0887469624044166,-0.0887469624044166
12.496,0.08514608968124093,-0.08514608968124093
12.497,0.0752239796269486,-0.0752239796269486
12.498,0.06051429484198467,-0.06051429484198467
12.499,0.04489968603231509,-0.04489968603231509
12.5,0.03344716373756107,-0.03344716373756107
12.501,0.030665368752652578,-0.030665368752652578
12.502,0.038808841342380496,-0.038808841342380496
12.503,0.05686351376543297,-0.05686351376543297
12.504,0.08062196251110243,-0.08062196251110243
12.505,0.10387469349223177,-0.10387469349223177
12.506,0.12034169341386203,-0.12034169341386203
12.507,0.1256927296748448,-0.1256927296748448
12.508,0.1189576051689718,-0.1189576051689718
12.509,0.10282941505277743,-0.10282941505277743
12.51,0.08274557027086094,-0.08274557027086094
12.511,0.0650580744048842,-0.0650580744048842
12.512,0.05492401331565344,-0.05492401331565344
12.513,0.054644695597155124,-0.054644695597155124
12.514,0.06302176098165146,-0.06302176098165146
12.515,0.07593758868403577,-0.07593758868403577
12.516,0.08793441128620971,-0.08793441128620971
12.517,0.09421645805873313,-0.09421645805873313
12.518,0.09235708238120055,-0.09235708238120055
12.519,0.08310808930220037,-0.08310808930220037
12.52,0.07003840931051897,-0.07003840931051897
12.521,0.05815372540824004,-0.05815372540824004
12.522,0.052013992111060725,-0.052013992111060725
12.523,0.05404054571552197,-0.05404054571552197
12.524,0.0636270345588249,-0.0636270345588249
12.525,0.07736890297238852,-0.07736890297238852
12.526,0.09031532040955736,-0.09031532040955736
12.527,0.0977757317736705,-0.0977757317736705
12.528,0.0970158297483047,-0.0970158297483047
12.529,0.08822536541967496,-0.08822536541967496
12.53,0.0744133786191884,-0.0744133786191884
12.531,0.060283159648860885,-0.060283159648860885
12.532,0.050512821312739487,-0.050512821312739487
12.533,0.04808042360919007,-0.04808042360919007
12.534,0.0532477460983094,-0.0532477460983094
12.535,0.06356493609098268,-0.06356493609098268
12.536,0.07487430209298596,-0.07487430209298596
12.537,0.0829191128868102,-0.0829191128868102
12.538,0.08494139534024325,-0.08494139534024325
12.539,0.08066404265922378,-0.08066404265922378
12.54,0.07229245725296829,-0.07229245725296829
12.541,0.06354907399302201,-0.06354907399302201
12.542,0.05812765398981423,-0.05812765398981423
12.543,0.058181148366167834,-0.058181148366167834
12.544,0.06344915795127526,-0.06344915795127526
12.545,0.07138816547376836,-0.07138816547376836
12.546,0.07827838038134205,-0.07827838038134205
12.547,0.08089094482817727,-0.08089094482817727
12.548,0.07805767727279089,-0.07805767727279089
12.549,0.07148949382709657,-0.07148949382709657
12.55,0.06544650681628039,-0.06544650681628039
12.551,0.06528534783488082,-0.06528534783488082
12.552,0.07534563400131866,-0.07534563400131866
12.553,0.09692549656415184,-0.09692549656415184
12.554,0.12712247413067002,-0.12712247413067002
12.555,0.15905923205593286,-0.15905923205593286
12.556,0.1835538544050792,-0.1835538544050792
12.557,0.19178785626640293,-0.19178785626640293
12.558,0.17814919779807104,-0.17814919779807104
12.559,0.14231897304026608,-0.14231897304026608
12.56,0.08987543312330626,-0.08987543312330626
12.561,0.031145882467208397,-0.031145882467208397
12.562,0.021403977144730968,0.021403977144730968
12.563,0.05647920788835403,0.05647920788835403
12.564,0.06696881960641332,0.06696881960641332
12.565,0.05175941603158973,0.05175941603158973
12.566,0.015826857339935385,0.015826857339935385
12.567,0.03137357051621881,-0.03137357051621881
12.568,0.07867406266984223,-0.07867406266984223
12.569,0.11623997973892097,-0.11623997973892097
12.57,0.13797550644700018,-0.13797550644700018
12.571,0.1426255063914491,-0.1426255063914491
12.572,0.1333634611669181,-0.1333634611669181
12.573,0.11614799176809443,-0.11614799176809443
12.574,0.0974963683761304,-0.0974963683761304
12.575,0.08244809360817151,-0.08244809360817151
12.576,0.07334895282663734,-0.07334895282663734
12.577,0.06974310269485973,-0.06974310269485973
12.578,0.0692504624009812,-0.0692504624009812
12.579,0.0689770431985699,-0.0689770431985699
12.58,0.066867310951223,-0.066867310951223
12.581,0.062495413821683776,-0.062495413821683776
12.582,0.05705732198827196,-0.05705732198827196
12.583,0.05265786387531235,-0.05265786387531235
12.584,0.05125630950717852,-0.05125630950717852
12.585,0.053742938774512305,-0.053742938774512305
12.586,0.05953419879075772,-0.05953419879075772
12.587,0.06683835199006871,-0.06683835199006871
12.588,0.07345617082126543,-0.07345617082126543
12.589,0.07775818942983403,-0.07775818942983403
12.59,0.07940890373455456,-0.07940890373455456
12.591,0.07951521393349481,-0.07951521393349481
12.592,0.08011683974328254,-0.08011683974328254
12.593,0.08321349024688163,-0.08321349024688163
12.594,0.08972598788683606,-0.08972598788683606
12.595,0.0988340886637733,-0.0988340886637733
12.596,0.1080012002172065,-0.1080012002172065
12.597,0.11373395603350456,-0.11373395603350456
12.598,0.11283248894301745,-0.11283248894301745
12.599,0.10367860339638368,-0.10367860339638368
12.6,0.08706735171908508,-0.08706735171908508
12.601,0.0662340050830027,-0.0662340050830027
12.602,0.04601299108539847,-0.04601299108539847
12.603,0.031384479675119814,-0.031384479675119814
12.604,0.025899108388145797,-0.025899108388145797
12.605,0.030532170597497466,-0.030532170597497466
12.606,0.043378942728587666,-0.043378942728587666
12.607,0.060310177949939536,-0.060310177949939536
12.608,0.07636597845322035,-0.07636597845322035
12.609,0.08740134350589235,-0.08740134350589235
12.61,0.09140534103504327,-0.09140534103504327
12.611,0.0890330288822887,-0.0890330288822887
12.612,0.08317375348481981,-0.08317375348481981
12.613,0.07772841932647634,-0.07772841932647634
12.614,0.07605456831818236,-0.07605456831818236
12.615,0.07965667283262245,-0.07965667283262245
12.616,0.08760588206968212,-0.08760588206968212
12.617,0.09690199823750822,-0.09690199823750822
12.618,0.10363981923606369,-0.10363981923606369
12.619,0.10454101050502174,-0.10454101050502174
12.62,0.09827281023373247,-0.09827281023373247
12.621,0.0860491333000234,-0.0860491333000234
12.622,0.07127265356881951,-0.07127265356881951
12.623,0.05833309938665776,-0.05833309938665776
12.624,0.050996644286491866,-0.050996644286491866
12.625,0.050985208185322706,-0.050985208185322706
12.626,0.05728948112638521,-0.05728948112638521
12.627,0.06650153520656721,-0.06650153520656721
12.628,0.0740823763554812,-0.0740823763554812
12.629,0.07612961319728961,-0.07612961319728961
12.63,0.07100848279794125,-0.07100848279794125
12.631,0.06023246820691319,-0.06023246820691319
12.632,0.04822494179480241,-0.04822494179480241
12.633,0.04097849058559899,-0.04097849058559899
12.634,0.04402050810637592,-0.04402050810637592
12.635,0.06035450237352036,-0.06035450237352036
12.636,0.08908267088074362,-0.08908267088074362
12.637,0.12521018132684736,-0.12521018132684736
12.638,0.160752207670808,-0.160752207670808
12.639,0.18683840563202803,-0.18683840563202803
12.64,0.19617983987897147,-0.19617983987897147
12.641,0.18514097251084105,-0.18514097251084105
12.642,0.15478402886235088,-0.15478402886235088
12.643,0.11058112154798427,-0.11058112154798427
12.644,0.06090966179837132,-0.06090966179837132
12.645,0.014818982303637318,-0.014818982303637318
12.646,0.02023969753126731,0.02023969753126731
12.647,0.04005264916585216,0.04005264916585216
12.648,0.04422136318408154,0.04422136318408154
12.649,0.03560819249446223,0.03560819249446223
12.65,0.018939397889994325,0.018939397889994325
12.651,0.0009042285802066674,-0.0009042285802066674
12.652,0.020329886206998604,-0.020329886206998604
12.653,0.03777533873932826,-0.03777533873932826
12.654,0.053597186920276485,-0.053597186920276485
12.655,0.06925775327309591,-0.06925775327309591
12.656,0.08619208206544915,-0.08619208206544915
12.657,0.10481344519734659,-0.10481344519734659
12.658,0.12402546373438483,-0.12402546373438483
12.659,0.14139551795801053,-0.14139551795801053
12.66,0.1538918566205495,-0.1538918566205495
12.661,0.1588880203242442,-0.1588880203242442
12.662,0.15505979643789658,-0.15505979643789658
12.663,0.14286119921399798,-0.14286119921399798
12.664,0.12443470168185711,-0.12443470168185711
12.665,0.10301843957528423,-0.10301843957528423
12.666,0.08208156608367456,-0.08208156608367456
12.667,0.06449052123519816,-0.06449052123519816
12.668,0.05196576586134838,-0.05196576586134838
12.669,0.044956460832195955,-0.044956460832195955
12.67,0.04289679054857054,-0.04289679054857054
12.671,0.044676798851537414,-0.044676798851537414
12.672,0.04910972138949177,-0.04910972138949177
12.673,0.05521915347398698,-0.05521915347398698
12.674,0.06227785347122994,-0.06227785347122994
12.675,0.06965502646254274,-0.06965502646254274
12.676,0.07661618741040421,-0.07661618741040421
12.677,0.08223320966916647,-0.08223320966916647
12.678,0.08549856646787002,-0.08549856646787002
12.679,0.08562697262509278,-0.08562697262509278
12.68,0.08241990139258892,-0.08241990139258892
12.681,0.07651330013794788,-0.07651330013794788
12.682,0.06935418173393482,-0.06935418173393482
12.683,0.06285179080728387,-0.06285179080728387
12.684,0.05878558633298281,-0.05878558633298281
12.685,0.05816952771756356,-0.05816952771756356
12.686,0.06081883618127171,-0.06081883618127171
12.687,0.06531592569611167,-0.06531592569611167
12.688,0.06943823348610734,-0.06943823348610734
12.689,0.07093846473191168,-0.07093846473191168
12.69,0.06842168833930495,-0.06842168833930495
12.691,0.06200217745868575,-0.06200217745868575
12.692,0.05347547305634648,-0.05347547305634648
12.693,0.04589594940294195,-0.04589594940294195
12.694,0.04265631254184821,-0.04265631254184821
12.695,0.04635044973511682,-0.04635044973511682
12.696,0.05779668104679769,-0.05779668104679769
12.697,0.07556609744820886,-0.07556609744820886
12.698,0.09620628841689394,-0.09620628841689394
12.699,0.11512416044304563,-0.11512416044304563
12.7,0.12786957502537621,-0.12786957502537621
12.701,0.1314212325768218,-0.1314212325768218
12.702,0.12506746132515068,-0.12506746132515068
12.703,0.11060203028130522,-0.11060203028130522
12.704,0.0917762622111733,-0.0917762622111733
12.705,0.07318854660713592,-0.07318854660713592
12.706,0.05896958861551582,-0.05896958861551582
12.707,0.05167732408732173,-0.05167732408732173
12.708,0.05173295289139257,-0.05173295289139257
12.709,0.05754036007332941,-0.05754036007332941
12.71,0.06620268953861586,-0.06620268953861586
12.711,0.07456106494935133,-0.07456106494935133
12.712,0.08019413193183667,-0.08019413193183667
12.713,0.08205799239359612,-0.08205799239359612
12.714,0.0805934807447618,-0.0805934807447618
12.715,0.07732427703382938,-0.07732427703382938
12.716,0.0741429784460822,-0.0741429784460822
12.717,0.07257259525063098,-0.07257259525063098
12.718,0.07327076608228367,-0.07327076608228367
12.719,0.07592781019826345,-0.07592781019826345
12.72,0.07954677812854982,-0.07954677812854982
12.721,0.0829481900832294,-0.0829481900832294
12.722,0.0852687547228177,-0.0852687547228177
12.723,0.0862465886818673,-0.0862465886818673
12.724,0.08619136833156027,-0.08619136833156027
12.725,0.08568046229111004,-0.08568046229111004
12.726,0.08514206747996411,-0.08514206747996411
12.727,0.08453455741899762,-0.08453455741899762
12.728,0.08328807440847064,-0.08328807440847064
12.729,0.08055755224753203,-0.08055755224753203
12.73,0.07569386422447966,-0.07569386422447966
12.731,0.06873106442132548,-0.06873106442132548
12.732,0.06065989055359966,-0.06065989055359966
12.733,0.05332654205851861,-0.05332654205851861
12.734,0.04893831372052837,-0.04893831372052837
12.735,0.04932020635729939,-0.04932020635729939
12.736,0.05518471639471434,-0.05518471639471434
12.737,0.06570044973554756,-0.06570044973554756
12.738,0.07855835176275794,-0.07855835176275794
12.739,0.09056367388203401,-0.09056367388203401
12.74,0.09858760454184723,-0.09858760454184723
12.741,0.10056729454516455,-0.10056729454516455
12.742,0.0962044455326091,-0.0962044455326091
12.743,0.08710098103520525,-0.08710098103520525
12.744,0.07625923536976398,-0.07625923536976398
12.745,0.06709852936146765,-0.06709852936146765
12.746,0.062318902970973755,-0.062318902970973755
12.747,0.06300858416403632,-0.06300858416403632
12.748,0.06831595983133765,-0.06831595983133765
12.749,0.07581185312613914,-0.07581185312613914
12.75,0.08242083716382731,-0.08242083716382731
12.751,0.08558965088747672,-0.08558965088747672
12.752,0.0842648153290011,-0.0842648153290011
12.753,0.07930932551224146,-0.07930932551224146
12.754,0.07318404572435933,-0.07318404572435933
12.755,0.06898650821807295,-0.06898650821807295
12.756,0.06918324367148698,-0.06918324367148698
12.757,0.07450183965740287,-0.07450183965740287
12.758,0.08341384006686847,-0.08341384006686847
12.759,0.09244545364103451,-0.09244545364103451
12.76,0.09726348903133586,-0.09726348903133586
12.761,0.09419918430115126,-0.09419918430115126
12.762,0.08169469767071091,-0.08169469767071091
12.763,0.061153528888663544,-0.061153528888663544
12.764,0.03685508702397833,-0.03685508702397833
12.765,0.014898993979245878,-0.014898993979245878
12.766,0.0014744512277343746,-0.0014744512277343746
12.767,0.0009906583845761263,-0.0009906583845761263
12.768,0.014670447720133595,-0.014670447720133595
12.769,0.040073978766978935,-0.040073978766978935
12.77,0.07172440471927688,-0.07172440471927688
12.771,0.10265028848436808,-0.10265028848436808
12.772,0.12636027142140283,-0.12636027142140283
12.773,0.13862564359712426,-0.13862564359712426
12.774,0.13851394012559004,-0.13851394012559004
12.775,0.1283688926561216,-0.1283688926561216
12.776,0.11278332863454987,-0.11278332863454987
12.777,0.09694249622231055,-0.09694249622231055
12.778,0.08491367015772822,-0.08491367015772822
12.779,0.07845755554788181,-0.07845755554788181
12.78,0.07674039410880329,-0.07674039410880329
12.781,0.07700280660009184,-0.07700280660009184
12.782,0.07590536031930717,-0.07590536031930717
12.783,0.07103838828898656,-0.07103838828898656
12.784,0.06203458260631434,-0.06203458260631434
12.785,0.05087274393152186,-0.05087274393152186
12.786,0.04125568542769098,-0.04125568542769098
12.787,0.03728024209340908,-0.03728024209340908
12.788,0.041874562849210206,-0.041874562849210206
12.789,0.05556695415570789,-0.05556695415570789
12.79,0.07604023987049058,-0.07604023987049058
12.791,0.09865452691339371,-0.09865452691339371
12.792,0.11778423521521941,-0.11778423521521941
12.793,0.12853001210160464,-0.12853001210160464
12.794,0.12823224396833455,-0.12823224396833455
12.795,0.11727697800515013,-0.11727697800515013
12.796,0.09892488183078108,-0.09892488183078108
12.797,0.07822611156080195,-0.07822611156080195
12.798,0.06039351306435159,-0.06039351306435159
12.799,0.04918661393117629,-0.04918661393117629
12.8,0.04584787392120038,-0.04584787392120038
12.801,0.04893560418172738,-0.04893560418172738
12.802,0.05508419797395758,-0.05508419797395758
12.803,0.0604012140769391,-0.0604012140769391
12.804,0.061993689691467346,-0.061993689691467346
12.805,0.05907743982441627,-0.05907743982441627
12.806,0.05327533461881595,-0.05327533461881595
12.807,0.047999728674393505,-0.047999728674393505
12.808,0.047139230570146906,-0.047139230570146906
12.809,0.0535177251185841,-0.0535177251185841
12.81,0.0676780082793007,-0.0676780082793007
12.811,0.08743426377050711,-0.08743426377050711
12.812,0.10837414445335591,-0.10837414445335591
12.813,0.12516313252438516,-0.12516313252438516
12.814,0.1332239743801369,-0.1332239743801369
12.815,0.13022853987251604,-0.13022853987251604
12.816,0.11689523054912143,-0.11689523054912143
12.817,0.09681365512027595,-0.09681365512027595
12.818,0.07534262044810003,-0.07534262044810003
12.819,0.05793815077933373,-0.05793815077933373
12.82,0.04846061252666034,-0.04846061252666034
12.821,0.04801940262094706,-0.04801940262094706
12.822,0.054736782816776075,-0.054736782816776075
12.823,0.06450816019248451,-0.06450816019248451
12.824,0.07250539277300061,-0.07250539277300061
12.825,0.07492185598688139,-0.07492185598688139
12.826,0.0703745854240857,-0.0703745854240857
12.827,0.060487077360922625,-0.060487077360922625
12.828,0.04944091125939898,-0.04944091125939898
12.829,0.042619446016668006,-0.042619446016668006
12.83,0.04476451401846848,-0.04476451401846848
12.831,0.058232200679738444,-0.058232200679738444
12.832,0.08191430514211606,-0.08191430514211606
12.833,0.111194514345474,-0.111194514345474
12.834,0.13899484008357876,-0.13899484008357876
12.835,0.15763566594418954,-0.15763566594418954
12.836,0.160983225487918,-0.160983225487918
12.837,0.14626590227214642,-0.14626590227214642
12.838,0.11503100242759257,-0.11503100242759257
12.839,0.07295718321676681,-0.07295718321676681
12.84,0.028560722943517303,-0.028560722943517303
12.841,0.008858483570199693,0.008858483570199693
12.842,0.03148014161773327,0.03148014161773327
12.843,0.03483704028974555,0.03483704028974555
12.844,0.01881743673147973,0.01881743673147973
12.845,0.012440436884224693,-0.012440436884224693
12.846,0.05169878783214088,-0.05169878783214088
12.847,0.09048130234559715,-0.09048130234559715
12.848,0.121139217972692,-0.121139217972692
12.849,0.13858661979046338,-0.13858661979046338
12.85,0.14128124694471011,-0.14128124694471011
12.851,0.13124499132169842,-0.13124499132169842
12.852,0.11317954172146383,-0.11317954172146383
12.853,0.09296668923616114,-0.09296668923616114
12.854,0.0759895885858537,-0.0759895885858537
12.855,0.06573606080257144,-0.06573606080257144
12.856,0.06304615457327134,-0.06304615457327134
12.857,0.06617410703575533,-0.06617410703575533
12.858,0.07160332838356398,-0.07160332838356398
12.859,0.07534489969038294,-0.07534489969038294
12.86,0.07432099084166988,-0.07432099084166988
12.861,0.0674188123533197,-0.0674188123533197
12.862,0.055902061477040355,-0.055902061477040355
12.863,0.04305741315949485,-0.04305741315949485
12.864,0.033180612260206854,-0.033180612260206854
12.865,0.03020601974115744,-0.03020601974115744
12.866,0.03639692170727782,-0.03639692170727782
12.867,0.05150595414732173,-0.05150595414732173
12.868,0.07268384386223758,-0.07268384386223758
12.869,0.09519462833490477,-0.09519462833490477
12.87,0.11374897742192513,-0.11374897742192513
12.871,0.12406777333803354,-0.12406777333803354
12.872,0.12419902194218302,-0.12419902194218302
12.873,0.1151655885353684,-0.1151655885353684
12.874,0.10070997595737707,-0.10070997595737707
12.875,0.08617396163107116,-0.08617396163107116
12.876,0.07682501530919839,-0.07682501530919839
12.877,0.07613208159056373,-0.07613208159056373
12.878,0.08453577176555138,-0.08453577176555138
12.879,0.09913056827780109,-0.09913056827780109
12.88,0.11441022990133654,-0.11441022990133654
12.881,0.12389905847840998,-0.12389905847840998
12.882,0.12220195119688426,-0.12220195119688426
12.883,0.10684918801804877,-0.10684918801804877
12.884,0.07934420224713767,-0.07934420224713767
12.885,0.045043091729434215,-0.045043091729434215
12.886,0.01184218205253107,-0.01184218205253107
12.887,0.011979905428209037,0.011979905428209037
12.888,0.020142599629404012,0.020142599629404012
12.889,0.010250854017628042,0.010250854017628042
12.89,0.015397799207633622,-0.015397799207633622
12.891,0.050359764832191845,-0.050359764832191845
12.892,0.0858112163203848,-0.0858112163203848
12.893,0.11302432988652045,-0.11302432988652045
12.894,0.12582140523848717,-0.12582140523848717
12.895,0.12227452130124838,-0.12227452130124838
12.896,0.10514513681988735,-0.10514513681988735
12.897,0.08094226776311697,-0.08094226776311697
12.898,0.0578996904068636,-0.0578996904068636
12.899,0.043499467023384364,-0.043499467023384364
12.9,0.042298305447357354,-0.042298305447357354
12.901,0.054705310394156936,-0.054705310394156936
12.902,0.07705100695659517,-0.07705100695659517
12.903,0.10287862023395189,-0.10287862023395189
12.904,0.12501117425973107,-0.12501117425973107
12.905,0.1377218874927767,-0.1377218874927767
12.906,0.13832966509874467,-0.13832966509874467
12.907,0.12775253435585265,-0.12775253435585265
12.908,0.10990542339467724,-0.10990542339467724
12.909,0.090205548562997,-0.090205548562997
12.91,0.07372483671061969,-0.07372483671061969
12.911,0.06361663664684059,-0.06361663664684059
12.912,0.06032064227234568,-0.06032064227234568
12.913,0.06176365966337749,-0.06176365966337749
12.914,0.06442606295079689,-0.06442606295079689
12.915,0.06485381496556797,-0.06485381496556797
12.916,0.06106018576128447,-0.06106018576128447
12.917,0.05332111673837203,-0.05332111673837203
12.918,0.04409706088382204,-0.04409706088382204
12.919,0.037128467788276165,-0.037128467788276165
12.92,0.036041185666973785,-0.036041185666973785
12.921,0.04296285720660231,-0.04296285720660231
12.922,0.05763830128501091,-0.05763830128501091
12.923,0.07735016760121016,-0.07735016760121016
12.924,0.09766817606451705,-0.09766817606451705
12.925,0.11376660175008624,-0.11376660175008624
12.926,0.12186334727204373,-0.12186334727204373
12.927,0.12030630147467103,-0.12030630147467103
12.928,0.10996797533506564,-0.10996797533506564
12.929,0.09385492966884346,-0.09385492966884346
12.93,0.0761047839698431,-0.0761047839698431
12.931,0.06073704039670147,-0.06073704039670147
12.932,0.05058019047195084,-0.05058019047195084
12.933,0.046703452404962986,-0.046703452404962986
12.934,0.04847822732087259,-0.04847822732087259
12.935,0.054160974315478394,-0.054160974315478394
12.936,0.06171261053189414,-0.06171261053189414
12.937,0.06951244258427713,-0.06951244258427713
12.938,0.07670288183370466,-0.07670288183370466
12.939,0.08307886526917108,-0.08307886526917108
12.94,0.0886397122603324,-0.0886397122603324
12.941,0.09306874862296133,-0.09306874862296133
12.942,0.09543763774374048,-0.09543763774374048
12.943,0.09433390443020073,-0.09433390443020073
12.944,0.08841924157433079,-0.08841924157433079
12.945,0.07721854370778758,-0.07721854370778758
12.946,0.06180058289768331,-0.06180058289768331
12.947,0.045003073749171674,-0.045003073749171674
12.948,0.030991650209695965,-0.030991650209695965
12.949,0.024182216948371305,-0.024182216948371305
12.95,0.02781460578080397,-0.02781460578080397
12.951,0.042644560913931207,-0.042644560913931207
12.952,0.06624548203635072,-0.06624548203635072
12.953,0.0932575613422102,-0.0932575613422102
12.954,0.11662994310368979,-0.11662994310368979
12.955,0.12956405164704454,-0.12956405164704454
12.956,0.12759859104265425,-0.12759859104265425
12.957,0.11017720286331734,-0.11017720286331734
12.958,0.08115426430608907,-0.08115426430608907
12.959,0.047997760022346125,-0.047997760022346125
12.96,0.01984989059782094,-0.01984989059782094
12.961,0.004977921982763589,-0.004977921982763589
12.962,0.008366007005367049,-0.008366007005367049
12.963,0.030185794800002497,-0.030185794800002497
12.964,0.06563561722719269,-0.06563561722719269
12.965,0.10622785437587634,-0.10622785437587634
12.966,0.14215935125449297,-0.14215935125449297
12.967,0.16506191574415152,-0.16506191574415152
12.968,0.17030814470890498,-0.17030814470890498
12.969,0.15818298984243284,-0.15818298984243284
12.97,0.133582264903359,-0.133582264903359
12.971,0.10435508852955322,-0.10435508852955322
12.972,0.0788237251384889,-0.0788237251384889
12.973,0.06326000402123466,-0.06326000402123466
12.974,0.06009624585920226,-0.06009624585920226
12.975,0.06740358021570414,-0.06740358021570414
12.976,0.07976253710937498,-0.07976253710937498
12.977,0.09021150734298944,-0.09021150734298944
12.978,0.09262765007476748,-0.09262765007476748
12.979,0.08377468397549981,-0.08377468397549981
12.98,0.06437619413860995,-0.06437619413860995
12.981,0.038896645422905496,-0.038896645422905496
12.982,0.014127928313963922,-0.014127928313963922
12.983,0.002946843562521728,0.002946843562521728
12.984,0.007325377298970981,0.007325377298970981
12.985,0.0024859982476292952,-0.0024859982476292952
12.986,0.024048916044067337,-0.024048916044067337
12.987,0.05177697400885062,-0.05177697400885062
12.988,0.07865255932346948,-0.07865255932346948
12.989,0.09832263890525894,-0.09832263890525894
12.99,0.10692225744983563,-0.10692225744983563
12.991,0.10408206138579323,-0.10408206138579323
12.992,0.09284678724609752,-0.09284678724609752
12.993,0.07857442240815549,-0.07857442240815549
12.994,0.06719164184804605,-0.06719164184804605
12.995,0.06335800507136213,-0.06335800507136213
12.996,0.0690918525376305,-0.0690918525376305
12.997,0.08324443503306467,-0.08324443503306467
12.998,0.10193574070452549,-0.10193574070452549
12.999,0.11977479699713234,-0.11977479699713234
13.0,0.1314674453153638,-0.1314674453153638
13.001,0.1333265540724463,-0.1333265540724463
13.002,0.12425991835937367,-0.12425991835937367
13.003,0.10599039967781387,-0.10599039967781387
13.004,0.08249874615631303,-0.08249874615631303
13.005,0.05889823716239295,-0.05889823716239295
13.006,0.0400900302310957,-0.0400900302310957
13.007,0.029576415763717945,-0.029576415763717945
13.008,0.028729633463364768,-0.028729633463364768
13.009,0.03666090747826223,-0.03666090747826223
13.01,0.0506594071003742,-0.0506594071003742
13.011,0.06702520045982452,-0.06702520045982452
13.012,0.08204004359481565,-0.08204004359481565
13.013,0.09281770379966581,-0.09281770379966581
13.014,0.0978406495484635,-0.0978406495484635
13.015,0.09709499267243082,-0.09709499267243082
13.016,0.091827191452726,-0.091827191452726
13.017,0.08403514467055673,-0.08403514467055673
13.018,0.07585501805213402,-0.07585501805213402
13.019,0.06900883701657845,-0.06900883701657845
13.02,0.06444316562876751,-0.06444316562876751
13.021,0.0622294544917249,-0.0622294544917249
13.022,0.061727380774711516,-0.061727380774711516
13.023,0.06194804226890116,-0.06194804226890116
13.024,0.062005836946723125,-0.062005836946723125
13.025,0.061524875405872925,-0.061524875405872925
13.026,0.060873197293468295,-0.060873197293468295
13.027,0.06113705042113371,-0.06113705042113371
13.028,0.06381335657499665,-0.06381335657499665
13.029,0.07027932999152109,-0.07027932999152109
13.03,0.08117523283906858,-0.08117523283906858
13.031,0.09588686162461002,-0.09588686162461002
13.032,0.11231813751404018,-0.11231813751404018
13.033,0.12709024617927123,-0.12709024617927123
13.034,0.1361970636678449,-0.1361970636678449
13.035,0.1360101210299003,-0.1360101210299003
13.036,0.12439755015476306,-0.12439755015476306
13.037,0.10164260285165316,-0.10164260285165316
13.038,0.07085227804351935,-0.07085227804351935
13.039,0.037647842368035644,-0.037647842368035644
13.04,0.009110025785595166,-0.009110025785595166
13.041,0.00783229224904125,0.00783229224904125
13.042,0.008192272420581848,0.008192272420581848
13.043,0.009583212573337496,-0.009583212573337496
13.044,0.042867201809497546,-0.042867201809497546
13.045,0.0851322617307183,-0.0851322617307183
13.046,0.1272718937344256,-0.1272718937344256
13.047,0.15968665853932118,-0.15968665853932118
13.048,0.1746227410369804,-0.1746227410369804
13.049,0.16814781738417328,-0.16814781738417328
13.05,0.14121794355192996,-0.14121794355192996
13.051,0.09951912939700824,-0.09951912939700824
13.052,0.0520979348101448,-0.0520979348101448
13.053,0.009132870571960883,-0.009132870571960883
13.054,0.020557290067280576,0.020557290067280576
13.055,0.0315959932479426,0.0315959932479426
13.056,0.023167741674331443,0.023167741674331443
13.057,0.0011019588618443876,-0.0011019588618443876
13.058,0.03442285338364004,-0.03442285338364004
13.059,0.06886069124495464,-0.06886069124495464
13.06,0.09749012885067665,-0.09749012885067665
13.061,0.11605503945760076,-0.11605503945760076
13.062,0.12368855412215818,-0.12368855412215818
13.063,0.12255357330914685,-0.12255357330914685
13.064,0.11660523983229165,-0.11660523983229165
13.065,0.10994171054230384,-0.10994171054230384
13.066,0.10531582081699475,-0.10531582081699475
13.067,0.1032973384069541,-0.1032973384069541
13.068,0.1023346266417835,-0.1023346266417835
13.069,0.09964803262678856,-0.09964803262678856
13.07,0.09260137448232841,-0.09260137448232841
13.071,0.0800374193920792,-0.0800374193920792
13.072,0.06308050115739305,-0.06308050115739305
13.073,0.04509696464411583,-0.04509696464411583
13.074,0.030797528843467314,-0.030797528843467314
13.075,0.02476530911913133,-0.02476530911913133
13.076,0.029897766945226056,-0.029897766945226056
13.077,0.046291120523619944,-0.046291120523619944
13.078,0.07095793007865125,-0.07095793007865125
13.079,0.09849865043801265,-0.09849865043801265
13.08,0.12253610558831363,-0.12253610558831363
13.081,0.137472065895343,-0.137472065895343
13.082,0.1400202388414109,-0.1400202388414109
13.083,0.130044039240777,-0.130044039240777
13.084,0.11045457587852092,-0.11045457587852092
13.085,0.08622767884995441,-0.08622767884995441
13.086,0.06287720343730574,-0.06287720343730574
13.087,0.04488368707979995,-0.04488368707979995
13.088,0.03457151258215296,-0.03457151258215296
13.089,0.03175997257747065,-0.03175997257747065
13.09,0.03424425151754018,-0.03424425151754018
13.091,0.03888458108069137,-0.03888458108069137
13.092,0.04288969736764958,-0.04288969736764958
13.093,0.04483693358628549,-0.04483693358628549
13.094,0.045086289080069175,-0.045086289080069175
13.095,0.04547520471301769,-0.04547520471301769
13.096,0.048441567126896845,-0.048441567126896845
13.097,0.055922592269639915,-0.055922592269639915
13.098,0.06844778825294107,-0.06844778825294107
13.099,0.08476316852711152,-0.08476316852711152
13.1,0.10212323843526105,-0.10212323843526105
13.101,0.11714093392567715,-0.11714093392567715
13.102,0.1268828488879684,-0.1268828488879684
13.103,0.12981034490483923,-0.12981034490483923
13.104,0.12622671892445325,-0.12622671892445325
13.105,0.1180738038084973,-0.1180738038084973
13.106,0.10816092406664846,-0.10816092406664846
13.107,0.09911748813149701,-0.09911748813149701
13.108,0.09246143456850964,-0.09246143456850964
13.109,0.08813190633893775,-0.08813190633893775
13.11,0.08466113287882948,-0.08466113287882948
13.111,0.07992022112361419,-0.07992022112361419
13.112,0.0721542157202173,-0.0721542157202173
13.113,0.06090478774570662,-0.06090478774570662
13.114,0.04744959771157642,-0.04744959771157642
13.115,0.03455800018164468,-0.03455800018164468
13.116,0.025614280166005088,-0.025614280166005088
13.117,0.02340202032448424,-0.02340202032448424
13.118,0.028987303151205013,-0.028987303151205013
13.119,0.041128033282864185,-0.041128033282864185
13.12,0.0564694977704453,-0.0564694977704453
13.121,0.0705163669688581,-0.0705163669688581
13.122,0.07909118872701537,-0.07909118872701537
