Czas,AbsSum,Sum
136.06900000000002,0.15358903616984265,0.15358903616984265
136.07000000000002,0.12561971059623933,0.12561971059623933
136.071,0.08226146036769832,0.08226146036769832
136.072,0.031157381653131422,0.031157381653131422
136.073,0.020040283656841518,-0.020040283656841518
136.074,0.06557886767407461,-0.06557886767407461
136.07500000000002,0.10271904982687041,-0.10271904982687041
136.076,0.1317466371692717,-0.1317466371692717
136.077,0.15494896833541572,-0.15494896833541572
136.078,0.17497232530793771,-0.17497232530793771
136.079,0.19318556344834426,-0.19318556344834426
136.08,0.2086706624338236,-0.2086706624338236
136.08100000000002,0.21824045380576107,-0.21824045380576107
136.082,0.2175174805090111,-0.2175174805090111
136.083,0.2027175002994266,-0.2027175002994266
136.084,0.17250088442591505,-0.17250088442591505
136.085,0.1291872488634409,-0.1291872488634409
136.086,0.0788071582318669,-0.0788071582318669
136.08700000000002,0.029840939136714817,-0.029840939136714817
136.088,0.00905052471126866,0.00905052471126866
136.089,0.03161724732366,0.03161724732366
136.09,0.03607717901651308,0.03607717901651308
136.091,0.025893662490873215,0.025893662490873215
136.092,0.00890259562755591,0.00890259562755591
136.09300000000002,0.00505396297139471,-0.00505396297139471
136.094,0.0073190521605535075,-0.0073190521605535075
136.095,0.006554803690450806,0.006554803690450806
136.096,0.034953770495126824,0.034953770495126824
136.097,0.07021054994120313,0.07021054994120313
136.098,0.10059427282977862,0.10059427282977862
136.09900000000002,0.11376711815131779,0.11376711815131779
136.1,0.10068812039486952,0.10068812039486952
136.101,0.05874635764434277,0.05874635764434277
136.102,0.006907220091563415,-0.006907220091563415
136.103,0.08433189874054048,-0.08433189874054048
136.104,0.15786492239866323,-0.15786492239866323
136.10500000000002,0.2124073028307527,-0.2124073028307527
136.106,0.23764120268735045,-0.23764120268735045
136.107,0.23088369157129807,-0.23088369157129807
136.108,0.19768618788655024,-0.19768618788655024
136.109,0.14998458771853262,-0.14998458771853262
136.11,0.102372057190525,-0.102372057190525
136.11100000000002,0.06765761472420051,-0.06765761472420051
136.112,0.0530958724588092,-0.0530958724588092
136.113,0.058452324335255934,-0.058452324335255934
136.114,0.076474873639374,-0.076474873639374
136.115,0.09556916249829228,-0.09556916249829228
136.116,0.10377530188274364,-0.10377530188274364
136.11700000000002,0.09274486733874099,-0.09274486733874099
136.118,0.06044697743818761,-0.06044697743818761
136.119,0.011775345080157762,-0.011775345080157762
136.12,0.04306834659702119,0.04306834659702119
136.121,0.0918131831410316,0.0918131831410316
136.122,0.12387103313220837,0.12387103313220837
136.12300000000002,0.1333685886898972,0.1333685886898972
136.124,0.1205162356120475,0.1205162356120475
136.125,0.09096554931810696,0.09096554931810696
136.126,0.05349632036676755,0.05349632036676755
136.127,0.01691935521265675,0.01691935521265675
136.128,0.0126994750201882,-0.0126994750201882
136.12900000000002,0.033560105737662216,-0.033560105737662216
136.13,0.047949836894295106,-0.047949836894295106
136.131,0.06054680138603363,-0.06054680138603363
136.132,0.07592296772025464,-0.07592296772025464
136.133,0.0962242472711643,-0.0962242472711643
136.134,0.11990450240025663,-0.11990450240025663
136.13500000000002,0.1419753804346343,-0.1419753804346343
136.136,0.15566296801878232,-0.15566296801878232
136.137,0.15484565908522296,-0.15484565908522296
136.138,0.13637122839695404,-0.13637122839695404
136.139,0.1014095496956845,-0.1014095496956845
136.14,0.05536156913059276,-0.05536156913059276
136.14100000000002,0.006375104846182311,-0.006375104846182311
136.142,0.03698379541164054,0.03698379541164054
136.143,0.06807063934927204,0.06807063934927204
136.144,0.08370856002865246,0.08370856002865246
136.145,0.08445896348746684,0.08445896348746684
136.14600000000002,0.07362550512900534,0.07362550512900534
136.14700000000002,0.055470378187114866,0.055470378187114866
136.148,0.03339508184721618,0.03339508184721618
136.149,0.008814092586577171,0.008814092586577171
136.15,0.018856791555129315,-0.018856791555129315
136.151,0.05114332236404817,-0.05114332236404817
136.15200000000002,0.0888782855792487,-0.0888782855792487
136.15300000000002,0.13072970567211772,-0.13072970567211772
136.154,0.17258435038460962,-0.17258435038460962
136.155,0.20814964997044272,-0.20814964997044272
136.156,0.2306495095400387,-0.2306495095400387
136.157,0.23503107562382253,-0.23503107562382253
136.15800000000002,0.2198508204390991,-0.2198508204390991
136.15900000000002,0.1880739705175979,-0.1880739705175979
136.16,0.1463886209126356,-0.1463886209126356
136.161,0.10317672017045953,-0.10317672017045953
136.162,0.06580027082739781,-0.06580027082739781
136.163,0.038156773499388286,-0.038156773499388286
136.16400000000002,0.01941298321668483,-0.01941298321668483
136.16500000000002,0.004442671382558272,-0.004442671382558272
136.166,0.014100496418742559,0.014100496418742559
136.167,0.04274077970978207,0.04274077970978207
136.168,0.08421756679790304,0.08421756679790304
136.169,0.13567396507380947,0.13567396507380947
136.17000000000002,0.18871212615714228,0.18871212615714228
136.17100000000002,0.2314087885231948,0.2314087885231948
136.172,0.2517090693730002,0.2517090693730002
136.173,0.24112252935578526,0.24112252935578526
136.174,0.19750869039306096,0.19750869039306096
136.175,0.1260133644316137,0.1260133644316137
136.17600000000002,0.03781424432392555,0.03781424432392555
136.17700000000002,0.052946216920674916,-0.052946216920674916
136.178,0.1330643202255456,-0.1330643202255456
136.179,0.19376467787260987,-0.19376467787260987
136.18,0.2326681092471743,-0.2326681092471743
136.181,0.25364014428020887,-0.25364014428020887
136.18200000000002,0.2646264649435557,-0.2646264649435557
136.18300000000002,0.27424281284484364,-0.27424281284484364
136.184,0.2882856998084531,-0.2882856998084531
136.185,0.30733838238537314,-0.30733838238537314
136.186,0.32626826089247174,-0.32626826089247174
136.187,0.3357794548198667,-0.3357794548198667
136.18800000000002,0.3255106167872801,-0.3255106167872801
136.18900000000002,0.2876733047242477,-0.2876733047242477
136.19,0.2200650257430774,-0.2200650257430774
136.191,0.12750402592831134,-0.12750402592831134
136.192,0.021238298943397016,-0.021238298943397016
136.193,0.08349251733630703,0.08349251733630703
136.19400000000002,0.1710179186768228,0.1710179186768228
136.19500000000002,0.22889451340903433,0.22889451340903433
136.196,0.2506566071794989,0.2506566071794989
136.197,0.23696927813058588,0.23696927813058588
136.198,0.19498527102002727,0.19498527102002727
136.199,0.13621467233382067,0.13621467233382067
136.20000000000002,0.073589562366839,0.073589562366839
136.201,0.01854995959233574,0.01854995959233574
136.202,0.02112345200335075,-0.02112345200335075
136.203,0.04229166400677242,-0.04229166400677242
136.204,0.046185179701725754,-0.046185179701725754
136.205,0.0371436953214902,-0.0371436953214902
136.20600000000002,0.02084991959685678,-0.02084991959685678
136.207,0.002596201240433471,-0.002596201240433471
136.208,0.013969592553831456,0.013969592553831456
136.209,0.027364777444720323,0.027364777444720323
136.21,0.038032351404185594,0.038032351404185594
136.211,0.04751641566927867,0.04751641566927867
136.21200000000002,0.05736155838803869,0.05736155838803869
136.213,0.06809137729852077,0.06809137729852077
136.214,0.0785800421042746,0.0785800421042746
136.215,0.08601712819046559,0.08601712819046559
136.216,0.08650482296104456,0.08650482296104456
136.217,0.07615031142727968,0.07615031142727968
136.21800000000002,0.05236259687109657,0.05236259687109657
136.219,0.014971892153681887,0.014971892153681887
136.22,0.033205534951597726,-0.033205534951597726
136.221,0.08661797955193773,-0.08661797955193773
136.222,0.13809116699918933,-0.13809116699918933
136.223,0.1805856805429249,-0.1805856805429249
136.22400000000002,0.20914159790157905,-0.20914159790157905
136.225,0.2224215371896291,-0.2224215371896291
136.226,0.22330373567104633,-0.22330373567104633
136.227,0.21820556797613122,-0.21820556797613122
136.228,0.21518875018454864,-0.21518875018454864
136.229,0.22130623319222653,-0.22130623319222653
136.23000000000002,0.23996312312874102,-0.23996312312874102
136.231,0.2691590051199927,-0.2691590051199927
136.232,0.30129497244493975,-0.30129497244493975
136.233,0.3247931950956172,-0.3247931950956172
136.234,0.3272090169472106,-0.3272090169472106
136.235,0.2989943105877835,-0.2989943105877835
136.23600000000002,0.23677822647962066,-0.23677822647962066
136.237,0.14508859046657852,-0.14508859046657852
136.238,0.03585534213810537,-0.03585534213810537
136.239,0.07429574654075921,0.07429574654075921
136.24,0.16824208867379276,0.16824208867379276
136.241,0.2328245067432646,0.2328245067432646
136.24200000000002,0.2622016224619348,0.2622016224619348
136.243,0.2590405268905609,0.2590405268905609
136.244,0.23315608674542854,0.23315608674542854
136.245,0.19803084698214835,0.19803084698214835
136.246,0.1663441917310884,0.1663441917310884
136.247,0.1459728211404545,0.1459728211404545
136.24800000000002,0.13777150818890926,0.13777150818890926
136.249,0.13584499438795983,0.13584499438795983
136.25,0.1301758230454364,0.1301758230454364
136.251,0.11066695725283049,0.11066695725283049
136.252,0.07117230506849914,0.07117230506849914
136.253,0.012095921170073076,0.012095921170073076
136.25400000000002,0.05935574936785293,-0.05935574936785293
136.255,0.1313569869672836,-0.1313569869672836
136.256,0.1913079585482702,-0.1913079585482702
136.257,0.22997734308157658,-0.22997734308157658
136.258,0.2444691173309227,-0.2444691173309227
136.259,0.23895609390402128,-0.23895609390402128
136.26000000000002,0.22291813873732558,-0.22291813873732558
136.261,0.20751530613864366,-0.20751530613864366
136.262,0.20139588393830465,-0.20139588393830465
136.263,0.20744480515547348,-0.20744480515547348
136.264,0.22164314081237013,-0.22164314081237013
136.265,0.23445315512789278,-0.23445315512789278
136.26600000000002,0.23423740610113952,-0.23423740610113952
136.267,0.21149168274943486,-0.21149168274943486
136.268,0.1623839538717441,-0.1623839538717441
136.269,0.09034898869285435,-0.09034898869285435
136.27,0.005196480279014315,-0.005196480279014315
136.27100000000002,0.07990975769183772,0.07990975769183772
136.27200000000002,0.15248205627943157,0.15248205627943157
136.273,0.2042840110422579,0.2042840110422579
136.274,0.2331829483010157,0.2331829483010157
136.275,0.2426767728637993,0.2426767728637993
136.276,0.23937602627061105,0.23937602627061105
136.27700000000002,0.22949473631399586,0.22949473631399586
136.27800000000002,0.21577530165917613,0.21577530165917613
136.279,0.1961016893789016,0.1961016893789016
136.28,0.1644024334116414,0.1644024334116414
136.281,0.11355240099965358,0.11355240099965358
136.282,0.039184638192911514,0.039184638192911514
136.28300000000002,0.05707616908928825,-0.05707616908928825
136.28400000000002,0.16629105978924874,-0.16629105978924874
136.285,0.27346339574119216,-0.27346339574119216
136.286,0.3611091576687342,-0.3611091576687342
136.287,0.4140136095905269,-0.4140136095905269
136.288,0.4235774852215597,-0.4235774852215597
136.28900000000002,0.3902578451445765,-0.3902578451445765
136.29000000000002,0.3232528166645595,-0.3232528166645595
136.291,0.23753642296302757,-0.23753642296302757
136.292,0.1492738095691014,-0.1492738095691014
136.293,0.07120260733669947,-0.07120260733669947
136.294,0.009550936352910155,-0.009550936352910155
136.29500000000002,0.036516726139064204,0.036516726139064204
136.29600000000002,0.07286471397546102,0.07286471397546102
136.297,0.10664086613705503,0.10664086613705503
136.298,0.14230466116863272,0.14230466116863272
136.299,0.17896485169806375,0.17896485169806375
136.3,0.21004746850417666,0.21004746850417666
136.30100000000002,0.22542790354351316,0.22542790354351316
136.30200000000002,0.21523303301196717,0.21523303301196717
136.303,0.1738946664909249,0.1738946664909249
136.304,0.1029421405919364,0.1029421405919364
136.305,0.011488119987879575,0.011488119987879575
136.306,0.08579251852061853,-0.08579251852061853
136.30700000000002,0.17248502595675752,-0.17248502595675752
136.30800000000002,0.2347246121998815,-0.2347246121998815
136.309,0.2644984482021442,-0.2644984482021442
136.31,0.26092365217408675,-0.26092365217408675
136.311,0.22925372730574178,-0.22925372730574178
136.312,0.17821468375236882,-0.17821468375236882
136.31300000000002,0.11685314640228617,-0.11685314640228617
136.31400000000002,0.052172464996591006,-0.052172464996591006
136.315,0.011587597209687495,0.011587597209687495
136.316,0.07193044012798033,0.07193044012798033
136.317,0.12603031277468246,0.12603031277468246
136.318,0.16878749838299,0.16878749838299
136.31900000000002,0.19217757735624685,0.19217757735624685
136.32000000000002,0.1865367679982053,0.1865367679982053
136.321,0.14358757616891982,0.14358757616891982
136.322,0.060189968608016065,0.060189968608016065
136.323,0.05865936203517741,-0.05865936203517741
136.324,0.19895334954113064,-0.19895334954113064
136.32500000000002,0.33963502851700733,-0.33963502851700733
136.326,0.45709997627233,-0.45709997627233
136.327,0.5309802573946734,-0.5309802573946734
136.328,0.5493862770472284,-0.5493862770472284
136.329,0.5118596753826975,-0.5118596753826975
136.33,0.4290085814960508,-0.4290085814960508
136.33100000000002,0.318915746275921,-0.318915746275921
136.332,0.20153061589760568,-0.20153061589760568
136.333,0.09296509515706153,-0.09296509515706153
136.334,0.0016379302165103748,-0.0016379302165103748
136.335,0.07246978277102967,0.07246978277102967
136.336,0.13533637719698177,0.13533637719698177
136.33700000000002,0.19428712024926975,0.19428712024926975
136.338,0.25313802626559023,0.25313802626559023
136.339,0.30908306767570437,0.30908306767570437
136.34,0.3526527499150012,0.3526527499150012
136.341,0.37088984219184273,0.37088984219184273
136.342,0.3526174877478172,0.3526174877478172
136.34300000000002,0.2937947269570129,0.2937947269570129
136.344,0.2008094030490135,0.2008094030490135
136.345,0.09022699552034363,0.09022699552034363
136.346,0.015227555606255327,-0.015227555606255327
136.347,0.09327967645429847,-0.09327967645429847
136.348,0.1291082101509996,-0.1291082101509996
136.34900000000002,0.12028599520548089,-0.12028599520548089
136.35,0.07782966060297325,-0.07782966060297325
136.351,0.022839542054368445,-0.022839542054368445
136.352,0.020255226894926537,0.020255226894926537
136.353,0.03162095184225766,0.03162095184225766
136.354,0.0024422790799993876,0.0024422790799993876
136.35500000000002,0.06233502753557585,-0.06233502753557585
136.356,0.14585571127506658,-0.14585571127506658
136.357,0.22512310205192254,-0.22512310205192254
136.358,0.27865251827778326,-0.27865251827778326
136.359,0.293348562437192,-0.293348562437192
136.36,0.2682622363230115,-0.2682622363230115
136.36100000000002,0.21403158073328243,-0.21403158073328243
136.362,0.1483699949319104,-0.1483699949319104
136.363,0.08937268285243138,-0.08937268285243138
136.364,0.04915445871360635,-0.04915445871360635
136.365,0.03014575703224731,-0.03014575703224731
136.366,0.025333540411324074,-0.025333540411324074
136.36700000000002,0.02222881665383103,-0.02222881665383103
136.368,0.008932258842453744,-0.008932258842453744
136.369,0.020121822025924052,0.020121822025924052
136.37,0.061039935418183866,0.061039935418183866
136.371,0.10126539192179695,0.10126539192179695
136.372,0.1241018043448594,0.1241018043448594
136.37300000000002,0.11532624040460049,0.11532624040460049
136.374,0.0694043769803685,0.0694043769803685
136.375,0.007110857391187442,-0.007110857391187442
136.376,0.0964403703264014,-0.0964403703264014
136.377,0.17460952503365423,-0.17460952503365423
136.378,0.21902395945268882,-0.21902395945268882
136.37900000000002,0.21599453390404033,-0.21599453390404033
136.38,0.16556800872208344,-0.16556800872208344
136.381,0.081924178256643,-0.081924178256643
136.382,0.010863703192460106,0.010863703192460106
136.383,0.08629084708907109,0.08629084708907109
136.384,0.12357332700211998,0.12357332700211998
136.38500000000002,0.11374196570299855,0.11374196570299855
136.386,0.06168579701131072,0.06168579701131072
136.387,0.016394742579975863,-0.016394742579975863
136.388,0.09904686328013967,-0.09904686328013967
136.389,0.16686023245503157,-0.16686023245503157
136.39,0.20836939568328394,-0.20836939568328394
136.39100000000002,0.22254501209881228,-0.22254501209881228
136.392,0.21718685900612578,-0.21718685900612578
136.393,0.20408419828791802,-0.20408419828791802
136.394,0.19300448231391298,-0.19300448231391298
136.395,0.18696844031455107,-0.18696844031455107
136.39600000000002,0.18072669540781028,-0.18072669540781028
136.39700000000002,0.16307936951527202,-0.16307936951527202
136.398,0.12215721916247546,-0.12215721916247546
136.399,0.05158579148108844,-0.05158579148108844
136.4,0.04496190836460423,0.04496190836460423
136.401,0.15278753999028716,0.15278753999028716
136.40200000000002,0.24943476586101498,0.24943476586101498
136.40300000000002,0.3112880003379146,0.3112880003379146
136.404,0.3212964356210082,0.3212964356210082
136.405,0.2750992498262741,0.2750992498262741
136.406,0.18328869970411255,0.18328869970411255
136.407,0.06883756510906225,0.06883756510906225
136.40800000000002,0.03961510244570887,-0.03961510244570887
136.40900000000002,0.11647137872351088,-0.11647137872351088
136.41,0.14700243487921838,-0.14700243487921838
136.411,0.1316903419940616,-0.1316903419940616
136.412,0.08564184868761315,-0.08564184868761315
136.413,0.0332893233400694,-0.0332893233400694
136.41400000000002,0.00016709828208105737,-0.00016709828208105737
136.41500000000002,0.004500117483426047,-0.004500117483426047
136.416,0.05135099676333299,-0.05135099676333299
136.417,0.1311579293912526,-0.1311579293912526
136.418,0.22299441843108603,-0.22299441843108603
136.419,0.3013209496284026,-0.3013209496284026
136.42000000000002,0.34390997215625063,-0.34390997215625063
136.42100000000002,0.33835822522043935,-0.33835822522043935
136.422,0.2852066911564639,-0.2852066911564639
136.423,0.1969174692743757,-0.1969174692743757
136.424,0.0933562709183613,-0.0933562709183613
136.425,0.004486756122213942,0.004486756122213942
136.42600000000002,0.08038378017894998,0.08038378017894998
136.42700000000002,0.12654545183287258,0.12654545183287258
136.428,0.14418597628253527,0.14418597628253527
136.429,0.14121005797765962,0.14121005797765962
136.43,0.12819121386895627,0.12819121386895627
136.431,0.11424208833916127,0.11424208833916127
136.43200000000002,0.10420207123595904,0.10420207123595904
136.43300000000002,0.09791196386632106,0.09791196386632106
136.434,0.09149788848799845,0.09149788848799845
136.435,0.07987667653594599,0.07987667653594599
136.436,0.05936674763732874,0.05936674763732874
136.437,0.029416469109361465,0.029416469109361465
136.43800000000002,0.007061273925352607,-0.007061273925352607
136.43900000000002,0.04466377494413065,-0.04466377494413065
136.44,0.07723200999325408,-0.07723200999325408
136.441,0.09962211739366356,-0.09962211739366356
136.442,0.10894154475539486,-0.10894154475539486
136.443,0.10502532805880527,-0.10502532805880527
136.44400000000002,0.09028600804046827,-0.09028600804046827
136.44500000000002,0.06926361771022005,-0.06926361771022005
136.446,0.04815390908312145,-0.04815390908312145
136.447,0.03435871461771811,-0.03435871461771811
136.448,0.03583936433339707,-0.03583936433339707
136.449,0.059943389925600665,-0.059943389925600665
136.45000000000002,0.11152814620923512,-0.11152814620923512
136.451,0.19060005781691292,-0.19060005781691292
136.452,0.29016275020919413,-0.29016275020919413
136.453,0.39528010334976715,-0.39528010334976715
136.454,0.4842960916971494,-0.4842960916971494
136.455,0.5326294689964399,-0.5326294689964399
136.45600000000002,0.5186885523744461,-0.5186885523744461
136.457,0.43051732879549265,-0.43051732879549265
136.458,0.2711591813085208,-0.2711591813085208
136.459,0.06071986086430703,-0.06071986086430703
136.46,0.16615652143129966,0.16615652143129966
136.461,0.3673670906022626,0.3673670906022626
136.46200000000002,0.503445845740347,0.503445845740347
136.463,0.547953702987882,0.547953702987882
136.464,0.49504256819280323,0.49504256819280323
136.465,0.3616799597524287,0.3616799597524287
136.466,0.1835173654552511,0.1835173654552511
136.467,0.005331670206780714,0.005331670206780714
136.46800000000002,0.13126624090117023,-0.13126624090117023
136.469,0.19918742831521108,-0.19918742831521108
136.47,0.19280363542854062,-0.19280363542854062
136.471,0.1283217592325947,-0.1283217592325947
136.472,0.037521130111507706,-0.037521130111507706
136.473,0.04308362324566439,0.04308362324566439
136.47400000000002,0.0841132717730293,0.0841132717730293
136.475,0.07237717453908465,0.07237717453908465
136.476,0.014233154654583968,0.014233154654583968
136.477,0.06768518057053552,-0.06768518057053552
136.478,0.1430748623410225,-0.1430748623410225
136.479,0.18483364305071204,-0.18483364305071204
136.48000000000002,0.17842698581948702,-0.17842698581948702
136.481,0.12659538575371954,-0.12659538575371954
136.482,0.04793581993415885,-0.04793581993415885
136.483,0.029943999364959506,0.029943999364959506
136.484,0.08012937478561355,0.08012937478561355
136.485,0.0854720222805847,0.0854720222805847
136.48600000000002,0.043886935617010625,0.043886935617010625
136.487,0.031816846085869877,-0.031816846085869877
136.488,0.11923792213669948,-0.11923792213669948
136.489,0.19464022636369638,-0.19464022636369638
136.49,0.24099968996264165,-0.24099968996264165
136.491,0.25288444113730413,-0.25288444113730413
136.49200000000002,0.23652743189203496,-0.23652743189203496
136.493,0.20535683114155157,-0.20535683114155157
136.494,0.17301775431152422,-0.17301775431152422
136.495,0.14687267159540895,-0.14687267159540895
136.496,0.12474004174694431,-0.12474004174694431
136.497,0.09630421320284044,-0.09630421320284044
136.49800000000002,0.04871009425891348,-0.04871009425891348
136.499,0.025914867873266356,0.025914867873266356
136.5,0.12419231737387704,0.12419231737387704
136.501,0.22934603885303972,0.22934603885303972
136.502,0.3145706033520319,0.3145706033520319
136.503,0.3511998028780827,0.3511998028780827
136.50400000000002,0.318998756319526,0.318998756319526
136.505,0.21485148575242818,0.21485148575242818
136.506,0.05641638293844897,0.05641638293844897
136.507,0.12107112715476498,-0.12107112715476498
136.508,0.27429235200338153,-0.27429235200338153
136.509,0.36477446975853933,-0.36477446975853933
136.51000000000002,0.37100909863293874,-0.37100909863293874
136.511,0.29558995121860476,-0.29558995121860476
136.512,0.16476214767332187,-0.16476214767332187
136.513,0.02031476086052908,-0.02031476086052908
136.514,0.09361459601759958,0.09361459601759958
136.515,0.1444545062857674,0.1444545062857674
136.51600000000002,0.12115983722478307,0.12115983722478307
136.517,0.03686849197180875,0.03686849197180875
136.518,0.07658143685630203,-0.07658143685630203
136.519,0.18028471906792154,-0.18028471906792154
136.52,0.2419217385739948,-0.2419217385739948
136.52100000000002,0.24660994439488537,-0.24660994439488537
136.52200000000002,0.20115033158849804,-0.20115033158849804
136.523,0.13024073502340316,-0.13024073502340316
136.524,0.06612309846227382,-0.06612309846227382
136.525,0.03551522174730504,-0.03551522174730504
136.526,0.04869012340544565,-0.04869012340544565
136.52700000000002,0.09483129021477776,-0.09483129021477776
136.52800000000002,0.14555392620435137,-0.14555392620435137
136.529,0.16552469480162268,-0.16552469480162268
136.53,0.12648444356878819,-0.12648444356878819
136.531,0.019623535574246342,-0.019623535574246342
136.532,0.1383200795746291,0.1383200795746291
136.53300000000002,0.30779432419850683,0.30779432419850683
136.53400000000002,0.43752628286416306,0.43752628286416306
136.535,0.48057202013450073,0.48057202013450073
136.536,0.4101024905867072,0.4101024905867072
136.537,0.22964171993207194,0.22964171993207194
136.538,0.025800354390791647,-0.025800354390791647
136.53900000000002,0.29832108774609856,-0.29832108774609856
136.54000000000002,0.5229085253816832,-0.5229085253816832
136.541,0.6455621841539286,-0.6455621841539286
136.542,0.6381847444567984,-0.6381847444567984
136.543,0.5057793376600213,-0.5057793376600213
136.544,0.284000698893363,-0.284000698893363
136.54500000000002,0.028169016626792942,-0.028169016626792942
136.54600000000002,0.20255904533990798,0.20255904533990798
136.547,0.3608833180559339,0.3608833180559339
136.548,0.4223122992397299,0.4223122992397299
136.549,0.3885875385632491,0.3885875385632491
136.55,0.28336719576754676,0.28336719576754676
136.55100000000002,0.14238366693195137,0.14238366693195137
136.55200000000002,0.001776735132551721,0.001776735132551721
136.553,0.11157105540092394,-0.11157105540092394
136.554,0.18502746115495683,-0.18502746115495683
136.555,0.21978470017885599,-0.21978470017885599
136.556,0.22620922311932756,-0.22620922311932756
136.55700000000002,0.2174334109679117,-0.2174334109679117
136.55800000000002,0.20386806113729217,-0.20386806113729217
136.559,0.1905010812998239,-0.1905010812998239
136.56,0.1774230988259946,-0.1774230988259946
136.561,0.16259970912073385,-0.16259970912073385
136.562,0.14506076763321174,-0.14506076763321174
136.56300000000002,0.12670287288936544,-0.12670287288936544
136.56400000000002,0.11173473088373409,-0.11173473088373409
136.565,0.10404059162066714,-0.10404059162066714
136.566,0.10383959758643224,-0.10383959758643224
136.567,0.10549312101289687,-0.10549312101289687
136.568,0.09793844477318014,-0.09793844477318014
136.56900000000002,0.06814080056489036,-0.06814080056489036
136.57000000000002,0.006594218637512417,-0.006594218637512417
136.571,0.0871689143245975,0.0871689143245975
136.572,0.20141011119804797,0.20141011119804797
136.573,0.3130781678342818,0.3130781678342818
136.574,0.393097080591144,0.393097080591144
136.57500000000002,0.4147351567404052,0.4147351567404052
136.57600000000002,0.36245340202347376,0.36245340202347376
136.577,0.23821113275836403,0.23821113275836403
136.578,0.06285908582620148,0.06285908582620148
136.579,0.12821273128878807,-0.12821273128878807
136.58,0.29410320704795223,-0.29410320704795223
136.58100000000002,0.399434542025656,-0.399434542025656
136.582,0.42399559357524186,-0.42399559357524186
136.583,0.36800929801684334,-0.36800929801684334
136.584,0.2514553050126185,-0.2514553050126185
136.585,0.10780654598738793,-0.10780654598738793
136.586,0.025691854081409504,0.025691854081409504
136.58700000000002,0.11806638936389802,0.11806638936389802
136.588,0.1519277973870896,0.1519277973870896
136.589,0.12609863265574428,0.12609863265574428
136.59,0.05329253078852014,0.05329253078852014
136.591,0.04576128052469486,-0.04576128052469486
136.592,0.14931884383937521,-0.14931884383937521
136.59300000000002,0.24023901022834737,-0.24023901022834737
136.594,0.30855344897851744,-0.30855344897851744
136.595,0.35071594292444064,-0.35071594292444064
136.596,0.36662632864342715,-0.36662632864342715
136.597,0.35633245840684846,-0.35633245840684846
136.598,0.31826105062154575,-0.31826105062154575
136.59900000000002,0.2499660018221852,-0.2499660018221852
136.6,0.1510878827446862,-0.1510878827446862
136.601,0.027043280898153332,-0.027043280898153332
136.602,0.10858512335257564,0.10858512335257564
136.603,0.23464837031942487,0.23464837031942487
136.604,0.326584592868268,0.326584592868268
136.60500000000002,0.3631986154033149,0.3631986154033149
136.606,0.3338775405675589,0.3338775405675589
136.607,0.24354870822130215,0.24354870822130215
136.608,0.11320211242,0.11320211242
136.609,0.024790596436673584,-0.024790596436673584
136.61,0.1355012096552427,-0.1355012096552427
136.61100000000002,0.1917726561123959,-0.1917726561123959
136.612,0.18267458809007153,-0.18267458809007153
136.613,0.1171448185505195,-0.1171448185505195
136.614,0.021374432649372332,-0.021374432649372332
136.615,0.06943050767882708,0.06943050767882708
136.616,0.12234448596772096,0.12234448596772096
136.61700000000002,0.1174050058439513,0.1174050058439513
136.618,0.05414508024788467,0.05414508024788467
136.619,0.04821353573626064,-0.04821353573626064
136.62,0.15698636386932896,-0.15698636386932896
136.621,0.23660600608412818,-0.23660600608412818
136.622,0.2600502881023683,-0.2600502881023683
136.62300000000002,0.2173731619679169,-0.2173731619679169
136.624,0.11862428469014896,-0.11862428469014896
136.625,0.00962779456360452,0.00962779456360452
136.626,0.13281064956068178,0.13281064956068178
136.627,0.21893119719677223,0.21893119719677223
136.628,0.24771827830084314,0.24771827830084314
136.62900000000002,0.21549774869115046,0.21549774869115046
136.63,0.13458620801389176,0.13458620801389176
136.631,0.027921519472001277,0.027921519472001277
136.632,0.07880369646095797,-0.07880369646095797
136.633,0.16460987174012354,-0.16460987174012354
136.634,0.21786692500164906,-0.21786692500164906
136.63500000000002,0.23698233639901833,-0.23698233639901833
136.636,0.22764109293939094,-0.22764109293939094
136.637,0.19837277883067295,-0.19837277883067295
136.638,0.1566681073498727,-0.1566681073498727
136.639,0.10734452208692724,-0.10734452208692724
136.64,0.05362167488494829,-0.05362167488494829
136.64100000000002,4.260958953317129e-05,4.260958953317129e-05
136.642,0.045270067180567475,0.045270067180567475
136.643,0.06922824621156587,0.06922824621156587
136.644,0.057359259393708895,0.057359259393708895
136.645,0.0010296419905512222,-0.0010296419905512222
136.64600000000002,0.10624717089831304,-0.10624717089831304
136.64700000000002,0.24358810881768977,-0.24358810881768977
136.648,0.3831935770491136,-0.3831935770491136
136.649,0.48564733281571393,-0.48564733281571393
136.65,0.5124766687529927,-0.5124766687529927
136.651,0.43866994712368557,-0.43866994712368557
136.65200000000002,0.26309075414319305,-0.26309075414319305
136.65300000000002,0.012821939905330093,-0.012821939905330093
136.654,0.2609012646731652,0.2609012646731652
136.655,0.49486427929549737,0.49486427929549737
136.656,0.6310455090796188,0.6310455090796188
136.657,0.6337072067942409,0.6337072067942409
136.65800000000002,0.5009353517286816,0.5009353517286816
136.65900000000002,0.26660000036157117,0.26660000036157117
136.66,0.008404802126738664,-0.008404802126738664
136.661,0.25335523704788465,-0.25335523704788465
136.662,0.4082104104184542,-0.4082104104184542
136.663,0.4410778394674587,-0.4410778394674587
136.66400000000002,0.3570746227185,-0.3570746227185
136.66500000000002,0.19568934392659854,-0.19568934392659854
136.666,0.017425666862933897,-0.017425666862933897
136.667,0.116005810660464,0.116005810660464
136.668,0.1615514290324469,0.1615514290324469
136.669,0.1082948744098009,0.1082948744098009
136.67000000000002,0.019802930811044894,-0.019802930811044894
136.67100000000002,0.17272887149898541,-0.17272887149898541
136.672,0.2918170301798425,-0.2918170301798425
136.673,0.329905099382766,-0.329905099382766
136.674,0.2675365636228828,-0.2675365636228828
136.675,0.11983470351183323,-0.11983470351183323
136.67600000000002,0.0682064336074637,0.0682064336074637
136.67700000000002,0.23641373156223966,0.23641373156223966
136.678,0.32920617182101264,0.32920617182101264
136.679,0.31388877533548176,0.31388877533548176
136.68,0.1914463658645691,0.1914463658645691
136.681,0.0036622414400589998,-0.0036622414400589998
136.68200000000002,0.21455507327127288,-0.21455507327127288
136.68300000000002,0.3801098410580446,-0.3801098410580446
136.684,0.4542799480152948,-0.4542799480152948
136.685,0.4202671740636781,-0.4202671740636781
136.686,0.2950610133575421,-0.2950610133575421
136.687,0.1230757678063904,-0.1230757678063904
136.68800000000002,0.03881835349141216,0.03881835349141216
136.68900000000002,0.13984307016273756,0.13984307016273756
136.69,0.15138768352672916,0.15138768352672916
136.691,0.07552971298776656,0.07552971298776656
136.692,0.056499754379831124,-0.056499754379831124
136.693,0.19510432245640197,-0.19510432245640197
136.69400000000002,0.28863892156626436,-0.28863892156626436
136.69500000000002,0.2999152286603197,-0.2999152286603197
136.696,0.21771524448887258,-0.21771524448887258
136.697,0.05993031070631827,-0.05993031070631827
136.698,0.13228025125829856,0.13228025125829856
136.699,0.3071025121256128,0.3071025121256128
136.70000000000002,0.417292354125669,0.417292354125669
136.70100000000002,0.4333228687043966,0.4333228687043966
136.702,0.350730602900273,0.350730602900273
136.703,0.1899715288401067,0.1899715288401067
136.704,0.010528137649962965,-0.010528137649962965
136.705,0.20550602033769616,-0.20550602033769616
136.70600000000002,0.35463073265310086,-0.35463073265310086
136.707,0.4316052571523262,-0.4316052571523262
136.708,0.4285288924675523,-0.4285288924675523
136.709,0.35511164713449994,-0.35511164713449994
136.71,0.2338619311741562,-0.2338619311741562
136.711,0.0932822151542726,-0.0932822151542726
136.71200000000002,0.03878575636203352,0.03878575636203352
136.713,0.14011023615027662,0.14011023615027662
136.714,0.19669451000970595,0.19669451000970595
136.715,0.2033361746363136,0.2033361746363136
136.716,0.16287923215312428,0.16287923215312428
136.717,0.08492948501978193,0.08492948501978193
136.71800000000002,0.015558566132101825,-0.015558566132101825
136.719,0.11988590067418214,-0.11988590067418214
136.72,0.20775883537584816,-0.20775883537584816
136.721,0.2602744070749162,-0.2602744070749162
136.722,0.26361867313620624,-0.26361867313620624
136.723,0.21278606110774245,-0.21278606110774245
136.72400000000002,0.11419021066590962,-0.11419021066590962
136.725,0.014010841891433312,0.014010841891433312
136.726,0.14459868001649978,0.14459868001649978
136.727,0.2468520414983293,0.2468520414983293
136.728,0.2938554708594756,0.2938554708594756
136.729,0.2696836263521334,0.2696836263521334
136.73000000000002,0.1743734423755856,0.1743734423755856
136.731,0.025055950349123224,0.025055950349123224
136.732,0.14735258779513227,-0.14735258779513227
136.733,0.3052155982377309,-0.3052155982377309
136.734,0.41318395737626634,-0.41318395737626634
136.735,0.4467328688589415,-0.4467328688589415
136.73600000000002,0.39794077376592296,-0.39794077376592296
136.737,0.27703436284447114,-0.27703436284447114
136.738,0.10945183081219823,-0.10945183081219823
136.739,0.07057528085185472,0.07057528085185472
136.74,0.22804035185981752,0.22804035185981752
136.741,0.334632414454084,0.334632414454084
136.74200000000002,0.37389115953693053,0.37389115953693053
136.743,0.3431218253914743,0.3431218253914743
136.744,0.2521376960057562,0.2521376960057562
136.745,0.11970831765880718,0.11970831765880718
136.746,0.031007491807428122,-0.031007491807428122
136.747,0.17682882493253593,-0.17682882493253593
136.74800000000002,0.29791759509932336,-0.29791759509932336
136.749,0.379875834633697,-0.379875834633697
136.75,0.4147404439489071,-0.4147404439489071
136.751,0.40121910775423975,-0.40121910775423975
136.752,0.34442931880242866,-0.34442931880242866
136.753,0.2551766525338506,-0.2551766525338506
136.75400000000002,0.14861533974948382,-0.14861533974948382
136.755,0.04212232507154767,-0.04212232507154767
136.756,0.04756752838575262,0.04756752838575262
136.757,0.10755300008283641,0.10755300008283641
136.758,0.13153532265412626,0.13153532265412626
136.759,0.12129550742642103,0.12129550742642103
136.76000000000002,0.08622743923262322,0.08622743923262322
136.761,0.04080477237738811,0.04080477237738811
136.762,0.0005405825250304197,0.0005405825250304197
136.763,0.02242315463553035,-0.02242315463553035
136.764,0.022726435094054476,-0.022726435094054476
136.765,0.0030748506583798685,-0.0030748506583798685
136.76600000000002,0.027061503938295317,0.027061503938295317
136.767,0.05491300562323542,0.05491300562323542
136.768,0.06884985275177646,0.06884985275177646
136.769,0.062243875765155554,0.062243875765155554
136.77,0.035401652280113716,0.035401652280113716
136.77100000000002,0.005071324312996728,-0.005071324312996728
136.77200000000002,0.04914854069847974,-0.04914854069847974
136.773,0.08731789185976446,-0.08731789185976446
136.774,0.11398119324215938,-0.11398119324215938
136.775,0.12894166456899825,-0.12894166456899825
136.776,0.13638405993720637,-0.13638405993720637
136.77700000000002,0.14180548906519141,-0.14180548906519141
136.77800000000002,0.1482652429330623,-0.1482652429330623
136.779,0.15370716356672887,-0.15370716356672887
136.78,0.15077459246601144,-0.15077459246601144
136.781,0.12956963017977663,-0.12956963017977663
136.782,0.08255214166359903,-0.08255214166359903
136.78300000000002,0.009719875933010047,-0.009719875933010047
136.78400000000002,0.07819100931473,0.07819100931473
136.785,0.16026724496293765,0.16026724496293765
136.786,0.2102644520898882,0.2102644520898882
136.787,0.20463569572138018,0.20463569572138018
136.788,0.1312447358403277,0.1312447358403277
136.78900000000002,0.0043398853184357655,-0.0043398853184357655
136.79000000000002,0.17758107297421244,-0.17758107297421244
136.791,0.3498384949258443,-0.3498384949258443
136.792,0.4783966761706123,-0.4783966761706123
136.793,0.5287811722814342,-0.5287811722814342
136.794,0.4854425108024313,-0.4854425108024313
136.79500000000002,0.3571472457465492,-0.3571472457465492
136.79600000000002,0.1749797832708171,-0.1749797832708171
136.797,0.01674379243468227,0.01674379243468227
136.798,0.1739173236852698,0.1739173236852698
136.799,0.26610146220759456,0.26610146220759456
136.8,0.28548189225066767,0.28548189225066767
136.80100000000002,0.24820580680190063,0.24820580680190063
136.80200000000002,0.18751032449755267,0.18751032449755267
136.803,0.14089487286126468,0.14089487286126468
136.804,0.13574160712596717,0.13574160712596717
136.805,0.17846799208901643,0.17846799208901643
136.806,0.2512079178246829,0.2512079178246829
136.80700000000002,0.3174805156543823,0.3174805156543823
136.80800000000002,0.3351620227761982,0.3351620227761982
136.809,0.2724133124465624,0.2724133124465624
136.81,0.12099014814771092,0.12099014814771092
136.811,0.0979432992751651,-0.0979432992751651
136.812,0.3379427878968164,-0.3379427878968164
136.81300000000002,0.540420448985593,-0.540420448985593
136.81400000000002,0.652685139973102,-0.652685139973102
136.815,0.6449348963342556,-0.6449348963342556
136.816,0.5204082986633194,-0.5204082986633194
136.817,0.31506745025754046,-0.31506745025754046
136.818,0.08665916034464038,-0.08665916034464038
136.81900000000002,0.10338908037030037,0.10338908037030037
136.82000000000002,0.20928171994835698,0.20928171994835698
136.821,0.2149166402170697,0.2149166402170697
136.822,0.13794094645738197,0.13794094645738197
136.823,0.022409110965593504,0.022409110965593504
136.824,0.07746305482921834,-0.07746305482921834
136.82500000000002,0.11688069537525203,-0.11688069537525203
136.82600000000002,0.07662947288260291,-0.07662947288260291
136.827,0.029819622935168155,0.029819622935168155
136.828,0.1608094024839255,0.1608094024839255
136.829,0.26115333481885283,0.26115333481885283
136.83,0.2819662997982433,0.2819662997982433
136.83100000000002,0.19883142834475165,0.19883142834475165
136.832,0.02195054932479601,0.02195054932479601
136.833,0.20539595819134815,-0.20539595819134815
136.834,0.4197866139841987,-0.4197866139841987
136.835,0.5577974960318434,-0.5577974960318434
136.836,0.5766472105093129,-0.5766472105093129
136.83700000000002,0.46842127878923,-0.46842127878923
136.838,0.263071452323803,-0.263071452323803
136.839,0.019142868712317407,-0.019142868712317407
136.84,0.19470530507126305,0.19470530507126305
136.841,0.32125201016017924,0.32125201016017924
136.842,0.33222139487628,0.33222139487628
136.84300000000002,0.23605010731203668,0.23605010731203668
136.844,0.07354941236816148,0.07354941236816148
136.845,0.09681577646133765,-0.09681577646133765
136.846,0.2188608429713339,-0.2188608429713339
136.847,0.25701508531870787,-0.25701508531870787
136.848,0.2069388786786378,-0.2069388786786378
136.84900000000002,0.09507412380997449,-0.09507412380997449
136.85,0.032364557289843665,0.032364557289843665
136.851,0.1268390381920852,0.1268390381920852
136.852,0.15512870327191197,0.15512870327191197
136.853,0.11097550175980841,0.11097550175980841
136.854,0.016742739894521907,0.016742739894521907
136.85500000000002,0.08535670177946841,-0.08535670177946841
136.856,0.14925341655325708,-0.14925341655325708
136.857,0.1425259300713494,-0.1425259300713494
136.858,0.059206385433300035,-0.059206385433300035
136.859,0.07667387847596552,0.07667387847596552
136.86,0.2181517639939703,0.2181517639939703
136.86100000000002,0.3107124593042694,0.3107124593042694
136.862,0.31083376165933463,0.31083376165933463
136.863,0.20146115028981448,0.20146115028981448
136.864,0.0007981699603299974,-0.0007981699603299974
136.865,0.24921881200467677,-0.24921881200467677
136.866,0.48015571078089936,-0.48015571078089936
136.86700000000002,0.6316837122857054,-0.6316837122857054
136.868,0.6617682954688736,-0.6617682954688736
136.869,0.5603190849877867,-0.5603190849877867
136.87,0.3515551988904775,-0.3515551988904775
136.871,0.08626738618500573,-0.08626738618500573
136.872,0.17326952805750273,0.17326952805750273
136.87300000000002,0.37082660855571437,0.37082660855571437
136.874,0.4707964542354748,0.4707964542354748
136.875,0.4656657578798542,0.4656657578798542
136.876,0.37472158912842235,0.37472158912842235
136.877,0.2351737157257472,0.2351737157257472
136.878,0.08913685388808612,0.08913685388808612
136.87900000000002,0.02909854839945747,-0.02909854839945747
136.88,0.10159736928688423,-0.10159736928688423
136.881,0.12894044556852602,-0.12894044556852602
136.882,0.12612983754736862,-0.12612983754736862
136.883,0.11438952026162674,-0.11438952026162674
136.884,0.11214035254094157,-0.11214035254094157
136.88500000000002,0.12834855154376412,-0.12834855154376412
136.886,0.16029093954001783,-0.16029093954001783
136.887,0.19603380680464622,-0.19603380680464622
136.888,0.22023348691324707,-0.22023348691324707
136.889,0.22081226622668948,-0.22081226622668948
136.89,0.1939559907682693,-0.1939559907682693
136.89100000000002,0.14568162489806225,-0.14568162489806225
136.892,0.0895848232967954,-0.0895848232967954
136.893,0.04178278841970251,-0.04178278841970251
136.894,0.015023029184194847,-0.015023029184194847
136.895,0.014132025658981417,-0.014132025658981417
136.89600000000002,0.03440764149977249,-0.03440764149977249
136.89700000000002,0.06346053244936933,-0.06346053244936933
136.898,0.0857908835801997,-0.0857908835801997
136.899,0.08846796903697396,-0.08846796903697396
136.9,0.06595168207627344,-0.06595168207627344
136.901,0.022431388450136702,-0.022431388450136702
136.90200000000002,0.029090671409840674,0.029090671409840674
136.90300000000002,0.07068089466094096,0.07068089466094096
136.904,0.08510335876312047,0.08510335876312047
136.905,0.06146603916903537,0.06146603916903537
136.906,0.000817527097504267,-0.000817527097504267
136.907,0.09092774937582748,-0.09092774937582748
136.90800000000002,0.18873996400675297,-0.18873996400675297
136.90900000000002,0.26957499860212497,-0.26957499860212497
136.91,0.3103445514376889,-0.3103445514376889
136.911,0.2954934097672587,-0.2954934097672587
136.912,0.22121894771794592,-0.22121894771794592
136.913,0.09690199070736938,-0.09690199070736938
136.91400000000002,0.05661709941005855,0.05661709941005855
136.91500000000002,0.2115108840745421,0.2115108840745421
136.916,0.3391132003385118,0.3391132003385118
136.917,0.4162604008334263,0.4162604008334263
136.918,0.4302840086051243,0.4302840086051243
136.919,0.38142999361656593,0.38142999361656593
136.92000000000002,0.2821127099556644,0.2821127099556644
136.92100000000002,0.15322199498368594,0.15322199498368594
136.922,0.018492368994419417,0.018492368994419417
136.923,0.1015023920728183,-0.1015023920728183
136.924,0.19402560157170634,-0.19402560157170634
136.925,0.25617477041506054,-0.25617477041506054
136.92600000000002,0.2936371235209668,-0.2936371235209668
136.92700000000002,0.3166587506508842,-0.3166587506508842
136.928,0.33462438018362206,-0.33462438018362206
136.929,0.351191062728768,-0.351191062728768
136.93,0.3618437898509974,-0.3618437898509974
136.931,0.35500400130442356,-0.35500400130442356
136.93200000000002,0.3166088491794692,-0.3166088491794692
136.93300000000002,0.2367665154572608,-0.2367665154572608
136.934,0.11613864863391565,-0.11613864863391565
136.935,0.03050966974200575,0.03050966974200575
136.936,0.17545416862057395,0.17545416862057395
136.937,0.28424691844661276,0.28424691844661276
136.93800000000002,0.32564254340556764,0.32564254340556764
136.93900000000002,0.2822875689408877,0.2822875689408877
136.94,0.15856540161598986,0.15856540161598986
136.941,0.017504076540295954,-0.017504076540295954
136.942,0.19976202622322503,-0.19976202622322503
136.943,0.3359157197758945,-0.3359157197758945
136.94400000000002,0.3828675267635193,-0.3828675267635193
136.94500000000002,0.32073256314566967,-0.32073256314566967
136.946,0.16087863615646136,-0.16087863615646136
136.947,0.055148029976635815,0.055148029976635815
136.948,0.26623938005050607,0.26623938005050607
136.949,0.4092403989214455,0.4092403989214455
136.95000000000002,0.43828250753222875,0.43828250753222875
136.95100000000002,0.3399130222824016,0.3399130222824016
136.952,0.13896076977391125,0.13896076977391125
136.953,0.10725370206913531,-0.10725370206913531
136.954,0.32515992312319175,-0.32515992312319175
136.955,0.44703440716489007,-0.44703440716489007
136.95600000000002,0.43228006248472717,-0.43228006248472717
136.957,0.28118940341517906,-0.28118940341517906
136.958,0.036604809125461935,-0.036604809125461935
136.959,0.2274682182986203,0.2274682182986203
136.96,0.42718980040095333,0.42718980040095333
136.961,0.49388142130064905,0.49388142130064905
136.96200000000002,0.3951507344320606,0.3951507344320606
136.963,0.14568146000525517,0.14568146000525517
136.964,0.19568143633472812,-0.19568143633472812
136.965,0.5417727682474374,-0.5417727682474374
136.966,0.8011971078487914,-0.8011971078487914
136.967,0.9035594219878373,-0.9035594219878373
136.96800000000002,0.8185034429538041,-0.8185034429538041
136.969,0.5632331254129554,-0.5632331254129554
136.97,0.1967520644460491,-0.1967520644460491
136.971,0.19698661379136206,0.19698661379136206
136.972,0.5317102008532635,0.5317102008532635
136.973,0.7405706885865893,0.7405706885865893
136.97400000000002,0.7910618594951844,0.7910618594951844
136.975,0.6896127970795352,0.6896127970795352
136.976,0.47564509971680713,0.47564509971680713
136.977,0.2079164940447802,0.2079164940447802
136.978,0.05215983756795861,-0.05215983756795861
136.979,0.2552953764477208,-0.2552953764477208
136.98000000000002,0.37356337742147616,-0.37356337742147616
136.981,0.4026503037660545,-0.4026503037660545
136.982,0.35795863165859276,-0.35795863165859276
136.983,0.2669968050326641,-0.2669968050326641
136.984,0.16098593456357813,-0.16098593456357813
136.985,0.0680307679582085,-0.0680307679582085
136.98600000000002,0.008965171382599446,-0.008965171382599446
136.987,0.004301974686865995,0.004301974686865995
136.988,0.031089855757071017,-0.031089855757071017
136.989,0.10933579712393948,-0.10933579712393948
136.99,0.21640341991907008,-0.21640341991907008
136.991,0.33087145238355,-0.33087145238355
136.99200000000002,0.42604076931705703,-0.42604076931705703
136.993,0.4740849487009936,-0.4740849487009936
136.994,0.45222790595605766,-0.45222790595605766
136.995,0.349782145295248,-0.349782145295248
136.996,0.17388618561694547,-0.17388618561694547
136.997,0.04851649168106409,0.04851649168106409
136.99800000000002,0.2742091267423683,0.2742091267423683
136.999,0.4528835364423116,0.4528835364423116
137.0,0.5400901675153391,0.5400901675153391
137.001,0.5103846706167401,0.5103846706167401
137.002,0.36645016223778737,0.36645016223778737
137.003,0.14075672506471815,0.14075672506471815
137.00400000000002,0.11157801879251816,-0.11157801879251816
137.005,0.3272603304986208,-0.3272603304986208
137.006,0.45259026534627,-0.45259026534627
137.007,0.459098562117893,-0.459098562117893
137.008,0.35197249468447134,-0.35197249468447134
137.009,0.16829484534320827,-0.16829484534320827
137.01000000000002,0.03465309183961707,0.03465309183961707
137.011,0.19747870265396683,0.19747870265396683
137.012,0.2773804203452448,0.2773804203452448
137.013,0.26133834179793003,0.26133834179793003
137.014,0.16938050041493247,0.16938050041493247
137.015,0.04676880429653729,0.04676880429653729
137.01600000000002,0.05232910141622871,-0.05232910141622871
137.017,0.08419599309275749,-0.08419599309275749
137.018,0.03136646818609612,-0.03136646818609612
137.019,0.09057237681708008,0.09057237681708008
137.02,0.2376121518107399,0.2376121518107399
137.02100000000002,0.3519358985850185,0.3519358985850185
137.02200000000002,0.38163836239708715,0.38163836239708715
137.023,0.2988950532837171,0.2988950532837171
137.024,0.11040029921421635,0.11040029921421635
137.025,0.14351568413029647,-0.14351568413029647
137.026,0.40086221719093706,-0.40086221719093706
137.02700000000002,0.5970885090110541,-0.5970885090110541
137.02800000000002,0.6849622370507316,-0.6849622370507316
137.029,0.6486691412898169,-0.6486691412898169
137.03,0.5075918502762242,-0.5075918502762242
137.031,0.30875683942551935,-0.30875683942551935
137.032,0.1107571460597766,-0.1107571460597766
137.03300000000002,0.03524813673651361,0.03524813673651361
137.03400000000002,0.10103075872012046,0.10103075872012046
137.035,0.08824924081486718,0.08824924081486718
137.036,0.02490709041661665,0.02490709041661665
137.037,0.046973775961466235,-0.046973775961466235
137.038,0.0877791098297489,-0.0877791098297489
137.03900000000002,0.07488526710101928,-0.07488526710101928
137.04000000000002,0.010311473618951239,-0.010311473618951239
137.041,0.08102949980716878,0.08102949980716878
137.042,0.16153704717624184,0.16153704717624184
137.043,0.1956467799002537,0.1956467799002537
137.044,0.1636130310159596,0.1636130310159596
137.04500000000002,0.0693454816379715,0.0693454816379715
137.04600000000002,0.06047448423968982,-0.06047448423968982
137.047,0.18559458059896328,-0.18559458059896328
137.048,0.2663273841456102,-0.2663273841456102
137.049,0.2775119782985376,-0.2775119782985376
137.05,0.21730846715823737,-0.21730846715823737
137.05100000000002,0.10771959343358817,-0.10771959343358817
137.05200000000002,0.013303780225192074,0.013303780225192074
137.053,0.10534080734041829,0.10534080734041829
137.054,0.1397877029806731,0.1397877029806731
137.055,0.10993444270999309,0.10993444270999309
137.056,0.033321881529457587,0.033321881529457587
137.05700000000002,0.054421504173644775,-0.054421504173644775
137.05800000000002,0.11211758190597088,-0.11211758190597088
137.059,0.10764129192824534,-0.10764129192824534
137.06,0.02962087771666655,-0.02962087771666655
137.061,0.10769433052949395,0.10769433052949395
137.062,0.2679933944234718,0.2679933944234718
137.06300000000002,0.4036772410464622,0.4036772410464622
137.06400000000002,0.47030667486461364,0.47030667486461364
137.065,0.44009551225487087,0.44009551225487087
137.066,0.31027266576948964,0.31027266576948964
137.067,0.1039113243920855,0.1039113243920855
137.068,0.13672910750362433,-0.13672910750362433
137.06900000000002,0.3620128907061394,-0.3620128907061394
137.07000000000002,0.5281461566010384,-0.5281461566010384
137.071,0.607916078619043,-0.607916078619043
137.072,0.5961237094719892,-0.5961237094719892
137.073,0.5087011993062068,-0.5087011993062068
137.074,0.37643213476251725,-0.37643213476251725
137.07500000000002,0.23561788072415069,-0.23561788072415069
137.07600000000002,0.11857462335018187,-0.11857462335018187
137.077,0.046461587973013585,-0.046461587973013585
137.078,0.025893762096233508,-0.025893762096233508
137.079,0.04952049758214361,-0.04952049758214361
137.08,0.09969080123897411,-0.09969080123897411
137.08100000000002,0.1537591719817608,-0.1537591719817608
137.082,0.1895670303501259,-0.1895670303501259
137.083,0.1900139096392197,-0.1900139096392197
137.084,0.14615339685206497,-0.14615339685206497
137.085,0.05867470473730907,-0.05867470473730907
137.086,0.06215755903103948,0.06215755903103948
137.08700000000002,0.19800592620870572,0.19800592620870572
137.088,0.3253271762759784,0.3253271762759784
137.089,0.41944476433914035,0.41944476433914035
137.09,0.45940860640683634,0.45940860640683634
137.091,0.4328450714109877,0.4328450714109877
137.092,0.33967314215403377,0.33967314215403377
137.09300000000002,0.1935004401985596,0.1935004401985596
137.094,0.019861622401853296,0.019861622401853296
137.095,0.1487848324485469,-0.1487848324485469
137.096,0.2804137999316456,-0.2804137999316456
137.097,0.3513844471309673,-0.3513844471309673
137.098,0.352787243836012,-0.352787243836012
137.09900000000002,0.2932095269927031,-0.2932095269927031
137.1,0.19682907789622495,-0.19682907789622495
137.101,0.09706936423234769,-0.09706936423234769
137.102,0.02740719448962703,-0.02740719448962703
137.103,0.011868259692831451,-0.011868259692831451
137.104,0.05794811384004972,-0.05794811384004972
137.10500000000002,0.15406093097566997,-0.15406093097566997
137.106,0.2723266788477947,-0.2723266788477947
137.107,0.375958314948557,-0.375958314948557
137.108,0.42918755879301507,-0.42918755879301507
137.109,0.40697529899547835,-0.40697529899547835
137.11,0.3018835139227297,-0.3018835139227297
137.11100000000002,0.12636422694597582,-0.12636422694597582
137.112,0.08995837762273684,0.08995837762273684
137.113,0.30709537389702257,0.30709537389702257
137.114,0.48370103747933624,0.48370103747933624
137.115,0.5860243986815896,0.5860243986815896
137.116,0.5948033239500881,0.5948033239500881
137.11700000000002,0.5088078645123857,0.5088078645123857
137.118,0.3446238782712894,0.3446238782712894
137.119,0.1330620754195586,0.1330620754195586
137.12,0.08688504965639487,-0.08688504965639487
137.121,0.2753672813235237,-0.2753672813235237
137.122,0.39907612004748816,-0.39907612004748816
137.12300000000002,0.43758444561103405,-0.43758444561103405
137.124,0.38759890061131796,-0.38759890061131796
137.125,0.26425732040346084,-0.26425732040346084
137.126,0.09889871772555725,-0.09889871772555725
137.127,0.0667493595113704,0.0667493595113704
137.128,0.18927382693510286,0.18927382693510286
137.12900000000002,0.23362661989104283,0.23362661989104283
137.13,0.18228293483897162,0.18228293483897162
137.131,0.04103203289890889,0.04103203289890889
137.132,0.16061424158105475,-0.16061424158105475
137.133,0.3752208591022522,-0.3752208591022522
137.134,0.5485787781166207,-0.5485787781166207
137.13500000000002,0.6336384286009421,-0.6336384286009421
137.136,0.6035047055340146,-0.6035047055340146
137.137,0.4596406572753481,-0.4596406572753481
137.138,0.23251218790735484,-0.23251218790735484
137.139,0.02600629809918731,0.02600629809918731
137.14,0.2566435662786761,0.2566435662786761
137.14100000000002,0.4092192397822718,0.4092192397822718
137.142,0.4566712744956065,0.4566712744956065
137.143,0.40223622245901103,0.40223622245901103
137.144,0.27740921008719077,0.27740921008719077
137.145,0.1311997929493951,0.1311997929493951
137.14600000000002,0.014036420072991884,0.014036420072991884
137.14700000000002,0.03850604936576463,-0.03850604936576463
137.148,0.016835064203650885,-0.016835064203650885
137.149,0.06035501988797032,0.06035501988797032
137.15,0.15335931645398215,0.15335931645398215
137.151,0.21583785858405213,0.21583785858405213
137.15200000000002,0.21136425344455811,0.21136425344455811
137.15300000000002,0.1264386167919178,0.1264386167919178
137.154,0.024557954513724223,-0.024557954513724223
137.155,0.20421038713535045,-0.20421038713535045
137.156,0.3650340293738925,-0.3650340293738925
137.157,0.46599402158184045,-0.46599402158184045
137.15800000000002,0.48671487182854667,-0.48671487182854667
137.15900000000002,0.4342778251217235,-0.4342778251217235
137.16,0.34009464151394786,-0.34009464151394786
137.161,0.2478741497760787,-0.2478741497760787
137.162,0.19691983024723902,-0.19691983024723902
137.163,0.20675680297589982,-0.20675680297589982
137.16400000000002,0.2687306726998687,-0.2687306726998687
137.16500000000002,0.347838897518045,-0.347838897518045
137.166,0.3944625704791421,-0.3944625704791421
137.167,0.36212237522106605,-0.36212237522106605
137.168,0.22514782655953613,-0.22514782655953613
137.169,0.009964484160305931,0.009964484160305931
137.17000000000002,0.3036524286946565,0.3036524286946565
137.17100000000002,0.5934426144488478,0.5934426144488478
137.172,0.811953293560363,0.811953293560363
137.173,0.906835819013762,0.906835819013762
137.174,0.8560811274605049,0.8560811274605049
137.175,0.6737275360602195,0.6737275360602195
137.17600000000002,0.4043157492968701,0.4043157492968701
137.17700000000002,0.10827344598312338,0.10827344598312338
137.178,0.15657754694706894,-0.15657754694706894
137.179,0.35106216171942695,-0.35106216171942695
137.18,0.4630202564209577,-0.4630202564209577
137.181,0.5056986751480216,-0.5056986751480216
137.18200000000002,0.5075109247452159,-0.5075109247452159
137.18300000000002,0.49755707790661075,-0.49755707790661075
137.184,0.49265379492634553,-0.49265379492634553
137.185,0.4908262860421311,-0.4908262860421311
137.186,0.4735903394760437,-0.4735903394760437
137.187,0.41589980111740743,-0.41589980111740743
137.18800000000002,0.29964664728862067,-0.29964664728862067
137.18900000000002,0.12519040652659041,-0.12519040652659041
137.19,0.08391488313437678,0.08391488313437678
137.191,0.28529159493918343,0.28529159493918343
137.192,0.4300627650195117,0.4300627650195117
137.193,0.47891959524496897,0.47891959524496897
137.19400000000002,0.41617418410136864,0.41617418410136864
137.19500000000002,0.25659607575753984,0.25659607575753984
137.196,0.042306664089349244,0.042306664089349244
137.197,0.16949102654073378,-0.16949102654073378
137.198,0.32390758991936097,-0.32390758991936097
137.199,0.38501056237668574,-0.38501056237668574
137.20000000000002,0.3460911303554052,-0.3460911303554052
137.20100000000002,0.23017675401271265,-0.23017675401271265
137.202,0.0808378281920048,-0.0808378281920048
137.203,0.053296753354183046,0.053296753354183046
137.204,0.1347970438374635,0.1347970438374635
137.205,0.14883905927936403,0.14883905927936403
137.20600000000002,0.10603241803363428,0.10603241803363428
137.207,0.03611205836329079,0.03611205836329079
137.208,0.024784753217771627,-0.024784753217771627
137.209,0.0483399206835502,-0.0483399206835502
137.21,0.024514932245438215,-0.024514932245438215
137.211,0.03542609531403684,0.03542609531403684
137.21200000000002,0.1041303194204164,0.1041303194204164
137.213,0.1493310063692579,0.1493310063692579
137.214,0.1465746136634294,0.1465746136634294
137.215,0.0886661954289234,0.0886661954289234
137.216,0.011608403529287048,-0.011608403529287048
137.217,0.12628715190369044,-0.12628715190369044
137.21800000000002,0.2225094991983153,-0.2225094991983153
137.219,0.2742217164705676,-0.2742217164705676
137.22,0.27087107941660993,-0.27087107941660993
137.221,0.219963034605845,-0.219963034605845
137.222,0.14282788564311721,-0.14282788564311721
137.223,0.06559270016532115,-0.06559270016532115
137.22400000000002,0.009145792263335895,-0.009145792263335895
137.225,0.017870114251741454,0.017870114251741454
137.226,0.02036738057939913,0.02036738057939913
137.227,0.012176705251715658,0.012176705251715658
137.228,0.0077087771594164245,0.0077087771594164245
137.229,0.013717514535440234,0.013717514535440234
137.23000000000002,0.024950567516040634,0.024950567516040634
137.231,0.025863098828591724,0.025863098828591724
137.232,0.002006929447212591,-0.002006929447212591
137.233,0.06992110443417099,-0.06992110443417099
137.234,0.17342212679189595,-0.17342212679189595
137.235,0.2894526105660672,-0.2894526105660672
137.23600000000002,0.3811535709358891,-0.3811535709358891
137.237,0.4094057551261263,-0.4094057551261263
137.238,0.34734372492043897,-0.34734372492043897
137.239,0.19251263920106276,-0.19251263920106276
137.24,0.0282612790578185,0.0282612790578185
137.241,0.26388834540433903,0.26388834540433903
137.24200000000002,0.4530431583731209,0.4530431583731209
137.243,0.5429413967401302,0.5429413967401302
137.244,0.5065893061019577,0.5065893061019577
137.245,0.3523994622313198,0.3523994622313198
137.246,0.12246273595115009,0.12246273595115009
137.247,0.12038913047942768,-0.12038913047942768
137.24800000000002,0.31264165042600967,-0.31264165042600967
137.249,0.41054863414981135,-0.41054863414981135
137.25,0.40391772590904396,-0.40391772590904396
137.251,0.3183380145052572,-0.3183380145052572
137.252,0.2049141191080187,-0.2049141191080187
137.253,0.12095306929946625,-0.12095306929946625
137.25400000000002,0.10830918996610406,-0.10830918996610406
137.255,0.17704945912251424,-0.17704945912251424
137.256,0.30037605336178974,-0.30037605336178974
137.257,0.4228976025261506,-0.4228976025261506
137.258,0.4796961128663706,-0.4796961128663706
137.259,0.41980918550995605,-0.41980918550995605
137.26000000000002,0.2260814591969298,-0.2260814591969298
137.261,0.07556759109795652,0.07556759109795652
137.262,0.4209219261770869,0.4209219261770869
137.263,0.7250620038844591,0.7250620038844591
137.264,0.9072514267851706,0.9072514267851706
137.265,0.9151680861861284,0.9151680861861284
137.26600000000002,0.7407695584677731,0.7407695584677731
137.267,0.4228692843526678,0.4228692843526678
137.268,0.035849390962572114,0.035849390962572114
137.269,0.33164562628697836,-0.33164562628697836
137.27,0.601176705898569,-0.601176705898569
137.27100000000002,0.7246205015317211,-0.7246205015317211
137.27200000000002,0.6942060546191547,-0.6942060546191547
137.273,0.5403001076709905,-0.5403001076709905
137.274,0.318755966390721,-0.318755966390721
137.275,0.09272539294322957,-0.09272539294322957
137.276,0.08495554734997346,0.08495554734997346
137.27700000000002,0.1836101484520709,0.1836101484520709
137.27800000000002,0.1981330817764917,0.1981330817764917
137.279,0.1444326379528562,0.1444326379528562
137.28,0.049921025902218474,0.049921025902218474
137.281,0.05678867400317933,-0.05678867400317933
137.282,0.15334670845111642,-0.15334670845111642
137.28300000000002,0.22645889537033626,-0.22645889537033626
137.28400000000002,0.2704012386184794,-0.2704012386184794
137.285,0.28337018522305735,-0.28337018522305735
137.286,0.2643370410787734,-0.2643370410787734
137.287,0.21233821083679671,-0.21233821083679671
137.288,0.12852755697621276,-0.12852755697621276
137.28900000000002,0.01962088202897949,-0.01962088202897949
137.29000000000002,0.0996294712014345,0.0996294712014345
137.291,0.20710405558039158,0.20710405558039158
137.292,0.2779821302637937,0.2779821302637937
137.293,0.29235308806733484,0.29235308806733484
137.294,0.24307219596264495,0.24307219596264495
137.29500000000002,0.14052979355792972,0.14052979355792972
137.29600000000002,0.011769380959889553,0.011769380959889553
137.297,0.10664281214520299,-0.10664281214520299
137.298,0.18013990300470129,-0.18013990300470129
137.299,0.18823787943625048,-0.18823787943625048
137.3,0.1327014243753205,-0.1327014243753205
137.30100000000002,0.03836053066170164,-0.03836053066170164
137.30200000000002,0.05438407213347318,0.05438407213347318
137.303,0.10328784939252778,0.10328784939252778
137.304,0.07965783308678676,0.07965783308678676
137.305,0.020094334842960082,-0.020094334842960082
137.306,0.17120745584362052,-0.17120745584362052
137.30700000000002,0.32733727162538817,-0.32733727162538817
137.30800000000002,0.4354912337171972,-0.4354912337171972
137.309,0.4542289858038284,-0.4542289858038284
137.31,0.3688022502779945,-0.3688022502779945
137.311,0.19771355204152996,-0.19771355204152996
137.312,0.011993200571647211,0.011993200571647211
137.31300000000002,0.19948707583638225,0.19948707583638225
137.31400000000002,0.3101162518938194,0.3101162518938194
137.315,0.313755163560689,0.313755163560689
137.316,0.21508395459831853,0.21508395459831853
137.317,0.052041881898507336,0.052041881898507336
137.318,0.11721035807068048,-0.11721035807068048
137.31900000000002,0.23441969847653676,-0.23441969847653676
137.32000000000002,0.2614782238499205,-0.2614782238499205
137.321,0.19363588490742933,-0.19363588490742933
137.322,0.06093667368659983,-0.06093667368659983
137.323,0.0827640634532365,0.0827640634532365
137.324,0.17943979183166858,0.17943979183166858
137.32500000000002,0.18829155077716586,0.18829155077716586
137.32600000000002,0.10126803127396977,0.10126803127396977
137.327,0.052972636454028055,-0.052972636454028055
137.328,0.21833909488903025,-0.21833909488903025
137.329,0.33084149338550606,-0.33084149338550606
137.33,0.34171708290483005,-0.34171708290483005
137.33100000000002,0.2360673875005801,-0.2360673875005801
137.332,0.040313046983589396,-0.040313046983589396
137.333,0.18449590126091198,0.18449590126091198
137.334,0.36166657813452496,0.36166657813452496
137.335,0.4240568981117969,0.4240568981117969
137.336,0.3371671076126024,0.3371671076126024
137.33700000000002,0.11238571348311832,0.11238571348311832
137.338,0.1941908274960331,-0.1941908274960331
137.339,0.4972517935549977,-0.4972517935549977
137.34,0.7073153969495718,-0.7073153969495718
137.341,0.7574888755019131,-0.7574888755019131
137.342,0.6236139827986036,-0.6236139827986036
137.34300000000002,0.331652890891763,-0.331652890891763
137.344,0.04973208380869454,0.04973208380869454
137.345,0.4288199991376642,0.4288199991376642
137.346,0.7164503470150434,0.7164503470150434
137.347,0.8498196528971238,0.8498196528971238
137.348,0.8075987218036638,0.8075987218036638
137.34900000000002,0.6125248303888209,0.6125248303888209
137.35,0.3216285738440352,0.3216285738440352
137.351,0.007927958638669574,0.007927958638669574
137.352,0.26036638706672777,-0.26036638706672777
137.353,0.43691726231526806,-0.43691726231526806
137.354,0.5061207466297963,-0.5061207466297963
137.35500000000002,0.4822109657922403,-0.4822109657922403
137.356,0.4001406845081552,-0.4001406845081552
137.357,0.3020198732970222,-0.3020198732970222
137.358,0.22370990664804868,-0.22370990664804868
137.359,0.18547526614331322,-0.18547526614331322
137.36,0.18880673239874735,-0.18880673239874735
137.36100000000002,0.21936427384402135,-0.21936427384402135
137.362,0.254177815930793,-0.254177815930793
137.363,0.2702962999064906,-0.2702962999064906
137.364,0.25213493107046736,-0.25213493107046736
137.365,0.195631735780054,-0.195631735780054
137.366,0.10856351239101891,-0.10856351239101891
137.36700000000002,0.007532705424130315,-0.007532705424130315
137.368,0.08710201116093907,0.08710201116093907
137.369,0.156825767790713,0.156825767790713
137.37,0.1897398317482808,0.1897398317482808
137.371,0.18354389192592313,0.18354389192592313
137.372,0.14620924431802718,0.14620924431802718
137.37300000000002,0.09422248745377892,0.09422248745377892
137.374,0.048641807588678976,0.048641807588678976
137.375,0.02958929347712158,0.02958929347712158
137.376,0.050222015994572766,0.050222015994572766
137.377,0.11160368967999679,0.11160368967999679
137.378,0.20006262412580966,0.20006262412580966
137.37900000000002,0.2883698241060111,0.2883698241060111
137.38,0.3412917715147503,0.3412917715147503
137.381,0.3248459783530888,0.3248459783530888
137.382,0.2172214845041105,0.2172214845041105
137.383,0.018290196685256443,0.018290196685256443
137.384,0.2455985431090354,-0.2455985431090354
137.38500000000002,0.5239976309268367,-0.5239976309268367
137.386,0.7525079807864699,-0.7525079807864699
137.387,0.8688626679514175,-0.8688626679514175
137.388,0.8308980582157145,-0.8308980582157145
137.389,0.6311373141786067,-0.6311373141786067
137.39,0.3030584251379044,-0.3030584251379044
137.39100000000002,0.08386959175244169,0.08386959175244169
137.392,0.44009622715426966,0.44009622715426966
137.393,0.6791041431989417,0.6791041431989417
137.394,0.7414035701073838,0.7414035701073838
137.395,0.6122967589493491,0.6122967589493491
137.39600000000002,0.3277206977402167,0.3277206977402167
137.39700000000002,0.03420926156546722,-0.03420926156546722
137.398,0.37407789459982466,-0.37407789459982466
137.399,0.5987220365779754,-0.5987220365779754
137.4,0.6474797411412443,-0.6474797411412443
137.401,0.5093515482841284,-0.5093515482841284
137.40200000000002,0.22590845505184542,-0.22590845505184542
137.40300000000002,0.1209520774375934,0.1209520774375934
137.404,0.43271980821380884,0.43271980821380884
137.405,0.6223298014466145,0.6223298014466145
137.406,0.6382266696609133,0.6382266696609133
137.407,0.4774828316449793,0.4774828316449793
137.40800000000002,0.18452785288103368,0.18452785288103368
137.40900000000002,0.16348013073814027,-0.16348013073814027
137.41,0.4796208096137613,-0.4796208096137613
137.411,0.6912468900789486,-0.6912468900789486
137.412,0.7579587106148941,-0.7579587106148941
137.413,0.6787592145193619,-0.6787592145193619
137.41400000000002,0.487345432831244,-0.487345432831244
137.41500000000002,0.23826339068743996,-0.23826339068743996
137.416,0.010761603689813048,0.010761603689813048
137.417,0.21438145624132843,0.21438145624132843
137.418,0.3485272782733029,0.3485272782733029
137.419,0.4109013653734592,0.4109013653734592
137.42000000000002,0.4144056357316428,0.4144056357316428
137.42100000000002,0.37715820163756963,0.37715820163756963
137.422,0.3135014675219978,0.3135014675219978
137.423,0.22945403948445686,0.22945403948445686
137.424,0.12388426394327845,0.12388426394327845
137.425,0.0058134274100768435,-0.0058134274100768435
137.42600000000002,0.15660582651035326,-0.15660582651035326
137.42700000000002,0.31485838306583014,-0.31485838306583014
137.428,0.4561555541642106,-0.4561555541642106
137.429,0.5505294178803556,-0.5505294178803556
137.43,0.5714683057416676,-0.5714683057416676
137.431,0.505455934033943,-0.505455934033943
137.43200000000002,0.3584189642639224,-0.3584189642639224
137.43300000000002,0.15646706684870104,-0.15646706684870104
137.434,0.059697413832493273,0.059697413832493273
137.435,0.24509562177597055,0.24509562177597055
137.436,0.36226938401584974,0.36226938401584974
137.437,0.39084432011117665,0.39084432011117665
137.43800000000002,0.3319779481403138,0.3319779481403138
137.43900000000002,0.20660296338034723,0.20660296338034723
137.44,0.04844173507875049,0.04844173507875049
137.441,0.10564011221412728,-0.10564011221412728
137.442,0.22478872432233832,-0.22478872432233832
137.443,0.2902253919927136,-0.2902253919927136
137.44400000000002,0.29700492980623494,-0.29700492980623494
137.44500000000002,0.2518849799244164,-0.2518849799244164
137.446,0.1689562748273019,-0.1689562748273019
137.447,0.06509240752241019,-0.06509240752241019
137.448,0.04320413854701877,0.04320413854701877
137.449,0.14104879560855,0.14104879560855
137.45000000000002,0.21512218936006344,0.21512218936006344
137.45100000000002,0.25357438327771464,0.25357438327771464
137.452,0.24703309935467344,0.24703309935467344
137.453,0.19106267380199715,0.19106267380199715
137.454,0.08932299922193399,0.08932299922193399
137.455,0.04416867593823792,-0.04416867593823792
137.45600000000002,0.18540376908027822,-0.18540376908027822
137.457,0.30436413979712407,-0.30436413979712407
137.458,0.37221470235830834,-0.37221470235830834
137.459,0.3698031904625978,-0.3698031904625978
137.46,0.29460927962379047,-0.29460927962379047
137.461,0.1633627009135168,-0.1633627009135168
137.46200000000002,0.008762561108653588,-0.008762561108653588
137.463,0.1292777846416613,0.1292777846416613
137.464,0.21537211391098987,0.21537211391098987
137.465,0.22956791652817343,0.22956791652817343
137.466,0.1735795612532569,0.1735795612532569
137.467,0.06992556358754953,0.06992556358754953
137.46800000000002,0.04603033863239181,-0.04603033863239181
137.469,0.13855135381296702,-0.13855135381296702
137.47,0.1841494603777739,-0.1841494603777739
137.471,0.17973518236633934,-0.17973518236633934
137.472,0.1431247807115511,-0.1431247807115511
137.473,0.10544679767488363,-0.10544679767488363
137.47400000000002,0.09801562810140507,-0.09801562810140507
137.475,0.1384618793013611,-0.1384618793013611
137.476,0.22145343691878394,-0.22145343691878394
137.477,0.317915730530294,-0.317915730530294
137.478,0.38369298791935913,-0.38369298791935913
137.479,0.37510679858917906,-0.37510679858917906
137.48000000000002,0.26612803245170646,-0.26612803245170646
137.481,0.06093097997629515,-0.06093097997629515
137.482,0.20311985523495202,0.20311985523495202
137.483,0.4638518222367227,0.4638518222367227
137.484,0.6518809103984591,0.6518809103984591
137.485,0.7119005864367234,0.7119005864367234
137.48600000000002,0.620592670637997,0.620592670637997
137.487,0.39498350929800297,0.39498350929800297
137.488,0.08816321924179715,0.08816321924179715
137.489,0.22645529523735486,-0.22645529523735486
137.49,0.477219182193911,-0.477219182193911
137.491,0.6153208602852971,-0.6153208602852971
137.49200000000002,0.6278631269832562,-0.6278631269832562
137.493,0.5386617135314007,-0.5386617135314007
137.494,0.3968280429738854,-0.3968280429738854
137.495,0.257453851635268,-0.257453851635268
137.496,0.16146264223035045,-0.16146264223035045
137.497,0.1219050668857069,-0.1219050668857069
137.49800000000002,0.12156200963770203,-0.12156200963770203
137.499,0.1225343785839974,-0.1225343785839974
137.5,0.08404874844641719,-0.08404874844641719
137.501,0.018385602559221503,0.018385602559221503
137.502,0.17992091342507677,0.17992091342507677
137.503,0.36469997251157915,0.36469997251157915
137.50400000000002,0.5166782483639374,0.5166782483639374
137.505,0.5793632208804709,0.5793632208804709
137.506,0.5174131511520315,0.5174131511520315
137.507,0.33206444461225404,0.33206444461225404
137.508,0.06431161904007543,0.06431161904007543
137.509,0.2159907332361144,-0.2159907332361144
137.51000000000002,0.4318824234226094,-0.4318824234226094
137.511,0.524638078489515,-0.524638078489515
137.512,0.47386660214760234,-0.47386660214760234
137.513,0.30510469928558903,-0.30510469928558903
137.514,0.08183995017343537,-0.08183995017343537
137.515,0.11569644243304822,0.11569644243304822
137.51600000000002,0.2179123454839651,0.2179123454839651
137.517,0.190019538984338,0.190019538984338
137.518,0.04450098632434085,0.04450098632434085
137.519,0.16269256822505607,-0.16269256822505607
137.52,0.35120883868493646,-0.35120883868493646
137.52100000000002,0.44428767746956843,-0.44428767746956843
137.52200000000002,0.39613802454778124,-0.39613802454778124
137.523,0.20921095642314635,-0.20921095642314635
137.524,0.06477620123747263,0.06477620123747263
137.525,0.34070711212853433,0.34070711212853433
137.526,0.5276883898989664,0.5276883898989664
137.52700000000002,0.5592254611166174,0.5592254611166174
137.52800000000002,0.41580870782420876,0.41580870782420876
137.529,0.13227723801364388,0.13227723801364388
137.53,0.21256496137880232,-0.21256496137880232
137.531,0.5206506859658471,-0.5206506859658471
137.532,0.7054697062827522,-0.7054697062827522
137.53300000000002,0.7188389491849951,-0.7188389491849951
137.53400000000002,0.5649276694986985,-0.5649276694986985
137.535,0.2972170365150809,-0.2972170365150809
137.536,0.00017786081726445246,0.00017786081726445246
137.537,0.24024612598787431,0.24024612598787431
137.538,0.3604855662490922,0.3604855662490922
137.53900000000002,0.34099891539327354,0.34099891539327354
137.54000000000002,0.20773646046381655,0.20773646046381655
137.541,0.02052834505949641,0.02052834505949641
137.542,0.14932503431290467,-0.14932503431290467
137.543,0.2438248820900344,-0.2438248820900344
137.544,0.23690513332369822,-0.23690513332369822
137.54500000000002,0.14092748946907074,-0.14092748946907074
137.54600000000002,0.0004906872574332866,0.0004906872574332866
137.547,0.13004795990668216,0.13004795990668216
137.548,0.1980130948388077,0.1980130948388077
137.549,0.1794989312175288,0.1794989312175288
137.55,0.08188248057261971,0.08188248057261971
137.55100000000002,0.05971672110086912,-0.05971672110086912
137.55200000000002,0.19662842477855458,-0.19662842477855458
137.553,0.2848645922193409,-0.2848645922193409
137.554,0.3005732884377149,-0.3005732884377149
137.555,0.24721685287794692,-0.24721685287794692
137.556,0.1522468328064257,-0.1522468328064257
137.55700000000002,0.05500845643150576,-0.05500845643150576
137.55800000000002,0.009209083324701606,0.009209083324701606
137.559,0.022796837027177386,0.022796837027177386
137.56,0.00798742844805067,-0.00798742844805067
137.561,0.056438663380046994,-0.056438663380046994
137.562,0.08691178603860827,-0.08691178603860827
137.56300000000002,0.06985500848913084,-0.06985500848913084
137.56400000000002,0.005471827453860767,0.005471827453860767
137.565,0.12550002541192873,0.12550002541192873
137.566,0.2562108015384479,0.2562108015384479
137.567,0.3549330241008739,0.3549330241008739
137.568,0.3856657366248142,0.3856657366248142
137.56900000000002,0.33218689246330735,0.33218689246330735
137.57000000000002,0.2040459605011069,0.2040459605011069
137.571,0.033214909460142605,0.033214909460142605
137.572,0.13731663317571985,-0.13731663317571985
137.573,0.26868793549299697,-0.26868793549299697
137.574,0.3393349852281192,-0.3393349852281192
137.57500000000002,0.35121135882321664,-0.35121135882321664
137.57600000000002,0.32673646478664975,-0.32673646478664975
137.577,0.29769978251048435,-0.29769978251048435
137.578,0.290484438788297,-0.290484438788297
137.579,0.3134956439793498,-0.3134956439793498
137.58,0.35197963767154583,-0.35197963767154583
137.58100000000002,0.3727063388577275,-0.3727063388577275
137.582,0.3372297172287526,-0.3372297172287526
137.583,0.21901478859836543,-0.21901478859836543
137.584,0.01792525207986395,-0.01792525207986395
137.585,0.23386551563698577,0.23386551563698577
137.586,0.4776574720840254,0.4776574720840254
137.58700000000002,0.6446871749108194,0.6446871749108194
137.588,0.6782651733473348,0.6782651733473348
137.589,0.5541789270942485,0.5541789270942485
137.59,0.29207165343283137,0.29207165343283137
137.591,0.046787401879612056,-0.046787401879612056
137.592,0.37548397669240285,-0.37548397669240285
137.59300000000002,0.6066433920310127,-0.6066433920310127
137.594,0.6789525499441592,-0.6789525499441592
137.595,0.5763962595748586,-0.5763962595748586
137.596,0.33372466689547997,-0.33372466689547997
137.597,0.026051426101646125,-0.026051426101646125
137.598,0.25432815877861836,0.25432815877861836
137.59900000000002,0.426552544804329,0.426552544804329
137.6,0.44602252034477674,0.44602252034477674
137.601,0.3173954069458893,0.3173954069458893
137.602,0.09155750634526427,0.09155750634526427
137.603,0.15233593078468455,-0.15233593078468455
137.604,0.3337295313379566,-0.3337295313379566
137.60500000000002,0.39748422179703846,-0.39748422179703846
137.606,0.33172979773262457,-0.33172979773262457
137.607,0.17086806215909012,-0.17086806215909012
137.608,0.017168881330529073,0.017168881330529073
137.609,0.15501925412451523,0.15501925412451523
137.61,0.18316391116535713,0.18316391116535713
137.61100000000002,0.08113473476329669,0.08113473476329669
137.612,0.12452510318760623,-0.12452510318760623
137.613,0.3682764226932078,-0.3682764226932078
137.614,0.5669395734288096,-0.5669395734288096
137.615,0.64728494345919,-0.64728494345919
137.616,0.5706687404374744,-0.5706687404374744
137.61700000000002,0.346513346297884,-0.346513346297884
137.618,0.030150271506240833,-0.030150271506240833
137.619,0.2942620631282109,0.2942620631282109
137.62,0.5401031398063003,0.5401031398063003
137.621,0.6452680682604246,0.6452680682604246
137.622,0.5909570312603698,0.5909570312603698
137.62300000000002,0.4062585921396775,0.4062585921396775
137.624,0.1572554754809834,0.1572554754809834
137.625,0.07550496469540335,-0.07550496469540335
137.626,0.22355439860105175,-0.22355439860105175
137.627,0.2522350839436711,-0.2522350839436711
137.628,0.17053130544330275,-0.17053130544330275
137.62900000000002,0.02598033815381373,-0.02598033815381373
137.63,0.11334087407230431,0.11334087407230431
137.631,0.1834706327751281,0.1834706327751281
137.632,0.14743517992498956,0.14743517992498956
137.633,0.008604757439564237,0.008604757439564237
137.634,0.1899440897128527,-0.1899440897128527
137.63500000000002,0.3798220920483142,-0.3798220920483142
137.636,0.4906442395963889,-0.4906442395963889
137.637,0.474480746516316,-0.474480746516316
137.638,0.3232896761258891,-0.3232896761258891
137.639,0.07349932720293029,-0.07349932720293029
137.64,0.20388050041846673,0.20388050041846673
137.64100000000002,0.42453650161782175,0.42453650161782175
137.642,0.5167782419279867,0.5167782419279867
137.643,0.44392428191972644,0.44392428191972644
137.644,0.21615000012064756,0.21615000012064756
137.645,0.11180697009522766,-0.11180697009522766
137.64600000000002,0.45622440928210894,-0.45622440928210894
137.64700000000002,0.72831098190663,-0.72831098190663
137.648,0.8590883861465031,-0.8590883861465031
137.649,0.8178141537999909,-0.8178141537999909
137.65,0.6187648659697678,-0.6187648659697678
137.651,0.3149469950979328,-0.3149469950979328
137.65200000000002,0.018689977484847686,0.018689977484847686
137.65300000000002,0.3069625021648603,0.3069625021648603
137.654,0.49439730952874106,0.49439730952874106
137.655,0.5577398067522947,0.5577398067522947
137.656,0.5080440053679822,0.5080440053679822
137.657,0.38276649818628816,0.38276649818628816
137.65800000000002,0.2312847124297106,0.2312847124297106
137.65900000000002,0.0989338086513234,0.0989338086513234
137.66,0.014581765414968029,0.014581765414968029
137.661,0.014890971964943156,-0.014890971964943156
137.662,0.0024032496255299574,-0.0024032496255299574
137.663,0.02746806950423375,0.02746806950423375
137.66400000000002,0.04910588158498452,0.04910588158498452
137.66500000000002,0.04507655004118649,0.04507655004118649
137.666,0.011026687969261095,0.011026687969261095
137.667,0.04485266384901321,-0.04485266384901321
137.668,0.10688799074859268,-0.10688799074859268
137.669,0.15911414835434046,-0.15911414835434046
137.67000000000002,0.19169399514143737,-0.19169399514143737
137.67100000000002,0.20423712485083323,-0.20423712485083323
137.672,0.20503667583780005,-0.20503667583780005
137.673,0.20682736698284343,-0.20682736698284343
137.674,0.22090624414548743,-0.22090624414548743
137.675,0.25193726930738136,-0.25193726930738136
137.67600000000002,0.2953699952275681,-0.2953699952275681
137.67700000000002,0.33834672858240045,-0.33834672858240045
137.678,0.363677572560424,-0.363677572560424
137.679,0.35540619890951053,-0.35540619890951053
137.68,0.3040263523686221,-0.3040263523686221
137.681,0.2096553857916088,-0.2096553857916088
137.68200000000002,0.08227998379863144,-0.08227998379863144
137.68300000000002,0.060773889595120645,0.060773889595120645
137.684,0.19911590148700253,0.19911590148700253
137.685,0.3138522487481086,0.3138522487481086
137.686,0.3910976186198889,0.3910976186198889
137.687,0.4236681319137605,0.4236681319137605
137.68800000000002,0.4109286306172919,0.4109286306172919
137.68900000000002,0.3573888179617599,0.3573888179617599
137.69,0.27092065607268334,0.27092065607268334
137.691,0.16134174437514903,0.16134174437514903
137.692,0.03968365584841438,0.03968365584841438
137.693,0.0820386087964815,-0.0820386087964815
137.69400000000002,0.1910832377975772,-0.1910832377975772
137.69500000000002,0.27482194481247657,-0.27482194481247657
137.696,0.32242919944831916,-0.32242919944831916
137.697,0.32720298590262464,-0.32720298590262464
137.698,0.28884425798911506,-0.28884425798911506
137.699,0.21480385400309032,-0.21480385400309032
137.70000000000002,0.11994040302613673,-0.11994040302613673
137.70100000000002,0.02419533806078944,-0.02419533806078944
137.702,0.05137583217484809,0.05137583217484809
137.703,0.08930128856874564,0.08930128856874564
137.704,0.0798974388897209,0.0798974388897209
137.705,0.023831978628980455,0.023831978628980455
137.70600000000002,0.06767084746497398,-0.06767084746497398
137.707,0.17505710545907183,-0.17505710545907183
137.708,0.27453709173284213,-0.27453709173284213
137.709,0.3430415898173731,-0.3430415898173731
137.71,0.3629080875824655,-0.3629080875824655
137.711,0.32534467782379706,-0.32534467782379706
137.71200000000002,0.23210223552458298,-0.23210223552458298
137.713,0.09521880673207983,-0.09521880673207983
137.714,0.06494949447656606,0.06494949447656606
137.715,0.22299405799820948,0.22299405799820948
137.716,0.35252639988793977,0.35252639988793977
137.717,0.4305541981898495,0.4305541981898495
137.71800000000002,0.44162655172729526,0.44162655172729526
137.719,0.38114178249328035,0.38114178249328035
137.72,0.2571437291510219,0.2571437291510219
137.721,0.08997211357046986,0.08997211357046986
137.722,0.09061801654427015,-0.09061801654427015
137.723,0.2507565180614133,-0.2507565180614133
137.72400000000002,0.35939961230922324,-0.35939961230922324
137.725,0.39548573117312147,-0.39548573117312147
137.726,0.3534987738004596,-0.3534987738004596
137.727,0.24573504234131527,-0.24573504234131527
137.728,0.1002383961814326,-0.1002383961814326
137.729,0.04551238968373106,0.04551238968373106
137.73000000000002,0.1538118130516124,0.1538118130516124
137.731,0.19646947111318602,0.19646947111318602
137.732,0.1623480996742186,0.1623480996742186
137.733,0.06041942564463465,0.06041942564463465
137.734,0.08271632189967104,-0.08271632189967104
137.735,0.23025520218816686,-0.23025520218816686
137.73600000000002,0.3454187242986757,-0.3454187242986757
137.737,0.4014240020360945,-0.4014240020360945
137.738,0.3881769218253136,-0.3881769218253136
137.739,0.31371164400989826,-0.31371164400989826
137.74,0.20011724442693524,-0.20011724442693524
137.741,0.07551441028553374,-0.07551441028553374
137.74200000000002,0.035059371388018956,0.035059371388018956
137.743,0.116695170258029,0.116695170258029
137.744,0.16724394951978772,0.16724394951978772
137.745,0.19485046659973304,0.19485046659973304
137.746,0.2116223468545575,0.2116223468545575
137.747,0.226136486313943,0.226136486313943
137.74800000000002,0.2379493268102788,0.2379493268102788
137.749,0.2365330482590866,0.2365330482590866
137.75,0.20534737243637302,0.20534737243637302
137.751,0.1296907860611176,0.1296907860611176
137.752,0.005329763497107454,0.005329763497107454
137.753,0.15566827871252065,-0.15566827871252065
137.75400000000002,0.3246932524226842,-0.3246932524226842
137.755,0.4628199868446544,-0.4628199868446544
137.756,0.5319820913867668,-0.5319820913867668
137.757,0.5075543899361036,-0.5075543899361036
137.758,0.38795408397231446,-0.38795408397231446
137.759,0.1975706433648814,-0.1975706433648814
137.76000000000002,0.01857384529710382,0.01857384529710382
137.761,0.2072266743775215,0.2072266743775215
137.762,0.32261589964426873,0.32261589964426873
137.763,0.34036036103864764,0.34036036103864764
137.764,0.26484210160774424,0.26484210160774424
137.765,0.12735881567740037,0.12735881567740037
137.76600000000002,0.024548814930078655,-0.024548814930078655
137.767,0.1431467272340623,-0.1431467272340623
137.768,0.1965345857096895,-0.1965345857096895
137.769,0.179126587300515,-0.179126587300515
137.77,0.11286610214613879,-0.11286610214613879
137.77100000000002,0.03860885759542587,-0.03860885759542587
137.77200000000002,0.0005429973049174697,-0.0005429973049174697
137.773,0.02902799076986151,-0.02902799076986151
137.774,0.12792282925740395,-0.12792282925740395
137.775,0.27105295576348865,-0.27105295576348865
137.776,0.40938572985814414,-0.40938572985814414
137.77700000000002,0.48678778795069766,-0.48678778795069766
137.77800000000002,0.45920150232803614,-0.45920150232803614
137.779,0.31076911687544473,-0.31076911687544473
137.78,0.061331783887607294,-0.061331783887607294
137.781,0.23744658046249323,0.23744658046249323
137.782,0.5162887577822302,0.5162887577822302
137.78300000000002,0.7083416516729291,0.7083416516729291
137.78400000000002,0.7685903116454722,0.7685903116454722
137.785,0.6864334383773318,0.6864334383773318
137.786,0.48753193536052475,0.48753193536052475
137.787,0.22464446932606363,0.22464446932606363
137.788,0.03920745980750362,-0.03920745980750362
137.78900000000002,0.24949193471659536,-0.24949193471659536
137.79000000000002,0.3746938735324852,-0.3746938735324852
137.791,0.4121903023396477,-0.4121903023396477
137.792,0.3842144207526862,-0.3842144207526862
137.793,0.32611868185644155,-0.32611868185644155
137.794,0.27168830562894997,-0.27168830562894997
137.79500000000002,0.24099878316078682,-0.24099878316078682
137.79600000000002,0.23504763947134266,-0.23504763947134266
137.797,0.23864240136832038,-0.23864240136832038
137.798,0.22983992168081713,-0.22983992168081713
137.799,0.19179123009520993,-0.19179123009520993
137.8,0.12203924976634317,-0.12203924976634317
137.80100000000002,0.03541545945780267,-0.03541545945780267
137.80200000000002,0.04075197479582404,0.04075197479582404
137.803,0.07735102490855783,0.07735102490855783
137.804,0.05596349955504398,0.05596349955504398
137.805,0.021866690678955192,-0.021866690678955192
137.806,0.132477501917176,-0.132477501917176
137.80700000000002,0.23636835535038514,-0.23636835535038514
137.80800000000002,0.2910938394223064,-0.2910938394223064
137.809,0.2663966603970618,-0.2663966603970618
137.81,0.15619149030540203,-0.15619149030540203
137.811,0.017069309908275043,0.017069309908275043
137.812,0.20757048749481077,0.20757048749481077
137.81300000000002,0.35949086924557316,0.35949086924557316
137.81400000000002,0.42432711127499534,0.42432711127499534
137.815,0.37654152828144505,0.37654152828144505
137.816,0.22238996776035935,0.22238996776035935
137.817,0.0009743079781210362,-0.0009743079781210362
137.818,0.2358337065056333,-0.2358337065056333
137.81900000000002,0.42035273484102464,-0.42035273484102464
137.82000000000002,0.5059560204498336,-0.5059560204498336
137.821,0.47036111185404395,-0.47036111185404395
137.822,0.3226117416208021,-0.3226117416208021
137.823,0.09916234608873908,-0.09916234608873908
137.824,0.14712165456670023,0.14712165456670023
137.82500000000002,0.3612122115019589,0.3612122115019589
137.82600000000002,0.4990427262912953,0.4990427262912953
137.827,0.5360730221955241,0.5360730221955241
137.828,0.46978802056457636,0.46978802056457636
137.829,0.31674358090775745,0.31674358090775745
137.83,0.10630040098714155,0.10630040098714155
137.83100000000002,0.12635609756849797,-0.12635609756849797
137.832,0.3459316439270508,-0.3459316439270508
137.833,0.5207610802613003,-0.5207610802613003
137.834,0.625102135044084,-0.625102135044084
137.835,0.6411506877763841,-0.6411506877763841
137.836,0.5616841331516347,-0.5616841331516347
137.83700000000002,0.39325360541412024,-0.39325360541412024
137.838,0.1586642679890432,-0.1586642679890432
137.839,0.10323085969437051,0.10323085969437051
137.84,0.3421481230785368,0.3421481230785368
137.841,0.5058255041812605,0.5058255041812605
137.842,0.552782698992909,0.552782698992909
137.84300000000002,0.46502045575379736,0.46502045575379736
137.844,0.2563904818337557,0.2563904818337557
137.845,0.027034678688867997,-0.027034678688867997
137.846,0.3161454787368717,-0.3161454787368717
137.847,0.5360351969594568,-0.5360351969594568
137.848,0.6268346616451477,-0.6268346616451477
137.84900000000002,0.5619129649193337,-0.5619129649193337
137.85,0.35742051623108617,-0.35742051623108617
137.851,0.069454704451687,-0.069454704451687
137.852,0.22109516573326826,0.22109516573326826
137.853,0.43192277285610237,0.43192277285610237
137.854,0.5038717695638759,0.5038717695638759
137.85500000000002,0.4189358889328303,0.4189358889328303
137.856,0.2057663104253593,0.2057663104253593
137.857,0.06934958248403644,-0.06934958248403644
137.858,0.3233709104146225,-0.3233709104146225
137.859,0.48263642090660686,-0.48263642090660686
137.86,0.5058132714610114,-0.5058132714610114
137.86100000000002,0.39619151862696766,-0.39619151862696766
137.862,0.19933234325558513,-0.19933234325558513
137.863,0.013074574665853156,0.013074574665853156
137.864,0.16770297750384766,0.16770297750384766
137.865,0.21422357513097956,0.21422357513097956
137.866,0.14187122095971727,0.14187122095971727
137.86700000000002,0.01749634438466141,-0.01749634438466141
137.868,0.2007071710622943,-0.2007071710622943
137.869,0.33498092471475127,-0.33498092471475127
137.87,0.36263325463238016,-0.36263325463238016
137.871,0.26050423539757017,-0.26050423539757017
137.872,0.04777267792735074,-0.04777267792735074
137.87300000000002,0.22014703682113557,0.22014703682113557
137.874,0.46922145218895417,0.46922145218895417
137.875,0.6297735118472643,0.6297735118472643
137.876,0.6571298953690765,0.6571298953690765
137.877,0.5433932477178205,0.5433932477178205
137.878,0.3171136239841894,0.3171136239841894
137.87900000000002,0.03189326603667064,0.03189326603667064
137.88,0.2513757471232725,-0.2513757471232725
137.881,0.48213822172514054,-0.48213822172514054
137.882,0.631777586969936,-0.631777586969936
137.883,0.6959932888949583,-0.6959932888949583
137.884,0.6884347884112254,-0.6884347884112254
137.88500000000002,0.6293293736882744,-0.6293293736882744
137.886,0.5344620994868183,-0.5344620994868183
137.887,0.4092916700486968,-0.4092916700486968
137.888,0.2505054015697732,-0.2505054015697732
137.889,0.05394806660180573,-0.05394806660180573
137.89,0.17504254650511286,0.17504254650511286
137.89100000000002,0.41412522283318953,0.41412522283318953
137.892,0.6235910789035048,0.6235910789035048
137.893,0.7546865559401121,0.7546865559401121
137.894,0.7645608553739884,0.7645608553739884
137.895,0.6327446723874204,0.6327446723874204
137.89600000000002,0.37283449026727467,0.37283449026727467
137.89700000000002,0.03420322089301675,0.03420322089301675
137.898,0.3082163104946113,-0.3082163104946113
137.899,0.5738197953692121,-0.5738197953692121
137.9,0.6999546849485117,-0.6999546849485117
137.901,0.6615654993796702,-0.6615654993796702
137.90200000000002,0.4800182078558545,-0.4800182078558545
137.90300000000002,0.21758652875337192,-0.21758652875337192
137.904,0.041211408812076966,0.041211408812076966
137.905,0.21575387541479496,0.21575387541479496
137.906,0.2545695844614957,0.2545695844614957
137.907,0.15142230347928942,0.15142230347928942
137.90800000000002,0.053164042915230025,-0.053164042915230025
137.90900000000002,0.2855624717086189,-0.2855624717086189
137.91,0.4634602728185876,-0.4634602728185876
137.911,0.5230051144176386,-0.5230051144176386
137.912,0.4397111112691874,-0.4397111112691874
137.913,0.2362236939400244,-0.2362236939400244
137.91400000000002,0.02557394335089458,0.02557394335089458
137.91500000000002,0.2654058265512962,0.2654058265512962
137.916,0.41138728592927776,0.41138728592927776
137.917,0.42379242505028314,0.42379242505028314
137.918,0.30790714767024085,0.30790714767024085
137.919,0.11175444875853602,0.11175444875853602
137.92000000000002,0.0904625730987928,-0.0904625730987928
137.92100000000002,0.2236201971850148,-0.2236201971850148
137.922,0.23721528363764577,-0.23721528363764577
137.923,0.12273626758143963,-0.12273626758143963
137.924,0.08283920306005665,0.08283920306005665
137.925,0.30854188936606497,0.30854188936606497
137.92600000000002,0.47214308312353404,0.47214308312353404
137.92700000000002,0.5067717077349227,0.5067717077349227
137.928,0.38290580109372985,0.38290580109372985
137.929,0.11880940914947957,0.11880940914947957
137.93,0.22376955444768465,-0.22376955444768465
137.931,0.5571724723439817,-0.5571724723439817
137.93200000000002,0.793144990088348,-0.793144990088348
137.93300000000002,0.8681463865736128,-0.8681463865736128
137.934,0.7611466045660904,-0.7611466045660904
137.935,0.498919203270795,-0.498919203270795
137.936,0.14774415136627905,-0.14774415136627905
137.937,0.20553404540650688,0.20553404540650688
137.93800000000002,0.4772164484471677,0.4772164484471677
137.93900000000002,0.6083306894964671,0.6083306894964671
137.94,0.5782464015683706,0.5782464015683706
137.941,0.4071612557256774,0.4071612557256774
137.942,0.1476627393360077,0.1476627393360077
137.943,0.13140773706519926,-0.13140773706519926
137.94400000000002,0.36373260054732415,-0.36373260054732415
137.94500000000002,0.5016562910786024,-0.5016562910786024
137.946,0.5256803028750283,-0.5256803028750283
137.947,0.4455670421258938,-0.4455670421258938
137.948,0.293789195665776,-0.293789195665776
137.949,0.11404964284312036,-0.11404964284312036
137.95000000000002,0.051407067261627803,0.051407067261627803
137.95100000000002,0.17212116871189953,0.17212116871189953
137.952,0.23492331383413823,0.23492331383413823
137.953,0.24380752333420186,0.24380752333420186
137.954,0.21502554653977013,0.21502554653977013
137.955,0.16948765833819168,0.16948765833819168
137.95600000000002,0.1250696281939765,0.1250696281939765
137.957,0.09116417443441738,0.09116417443441738
137.958,0.06692465973114858,0.06692465973114858
137.959,0.04342174674246624,0.04342174674246624
137.96,0.008723276724668771,0.008723276724668771
137.961,0.045960265209935125,-0.045960265209935125
137.96200000000002,0.12122219167497594,-0.12122219167497594
137.963,0.20731112603676016,-0.20731112603676016
137.964,0.2858032892633673,-0.2858032892633673
137.965,0.3348019576418785,-0.3348019576418785
137.966,0.33618859998495754,-0.33618859998495754
137.967,0.28265096781445,-0.28265096781445
137.96800000000002,0.18207081006187786,-0.18207081006187786
137.969,0.05747171288060948,-0.05747171288060948
137.97,0.05801302011386422,0.05801302011386422
137.971,0.13012508204136064,0.13012508204136064
137.972,0.13398627307319777,0.13398627307319777
137.973,0.06292308719163575,0.06292308719163575
137.97400000000002,0.06740151152443907,-0.06740151152443907
137.975,0.22137231718031214,-0.22137231718031214
137.976,0.35223921364124466,-0.35223921364124466
137.977,0.4152145541856377,-0.4152145541856377
137.978,0.3811290315999125,-0.3811290315999125
137.979,0.24642234340064872,-0.24642234340064872
137.98000000000002,0.03607067130049835,-0.03607067130049835
137.981,0.20195332708726688,0.20195332708726688
137.982,0.4094956672844374,0.4094956672844374
137.983,0.5347314721469847,0.5347314721469847
137.984,0.547414713972435,0.547414713972435
137.985,0.4480648955406821,0.4480648955406821
137.98600000000002,0.2680098457041664,0.2680098457041664
137.987,0.060007488374074436,0.060007488374074436
137.988,0.11782020924260117,-0.11782020924260117
137.989,0.21977917365112376,-0.21977917365112376
137.99,0.22648206217534417,-0.22648206217534417
137.991,0.15032901505746477,-0.15032901505746477
137.99200000000002,0.03076324057774904,-0.03076324057774904
137.993,0.07920897960076911,0.07920897960076911
137.994,0.13086127632851285,0.13086127632851285
137.995,0.0961054416384568,0.0961054416384568
137.996,0.02303037689954035,-0.02303037689954035
137.997,0.1949424902959912,-0.1949424902959912
137.99800000000002,0.3688282326870914,-0.3688282326870914
137.999,0.4914376358043364,-0.4914376358043364
138.0,0.524614767717051,-0.524614767717051
138.001,0.4577952121111416,-0.4577952121111416
138.002,0.31134242782748145,-0.31134242782748145
138.003,0.12970250936656802,-0.12970250936656802
138.00400000000002,0.03322306627518068,0.03322306627518068
138.005,0.13151047031073326,0.13151047031073326
138.006,0.1416154314341047,0.1416154314341047
138.007,0.06903905793646548,0.06903905793646548
138.008,0.05473592139924288,-0.05473592139924288
138.009,0.18369596626467521,-0.18369596626467521
138.01000000000002,0.2729912980049338,-0.2729912980049338
138.011,0.2934229842591606,-0.2934229842591606
138.012,0.23987821782444052,-0.23987821782444052
138.013,0.13113652818423227,-0.13113652818423227
138.014,0.0015642191156201024,-0.0015642191156201024
138.015,0.11197147510011729,0.11197147510011729
138.01600000000002,0.1830895921672553,0.1830895921672553
138.017,0.20414101131354112,0.20414101131354112
138.018,0.18695934946819226,0.18695934946819226
138.019,0.15619010042907888,0.15619010042907888
138.02,0.13799353119999425,0.13799353119999425
138.02100000000002,0.14855411827481935,0.14855411827481935
138.02200000000002,0.18680911816439494,0.18680911816439494
138.023,0.23416843693932088,0.23416843693932088
138.024,0.26136052182532277,0.26136052182532277
138.025,0.23987918794683716,0.23987918794683716
138.026,0.153792188595681,0.153792188595681
138.02700000000002,0.007515435979119189,0.007515435979119189
138.02800000000002,0.17340342736316405,-0.17340342736316405
138.029,0.34894941605155516,-0.34894941605155516
138.03,0.4765623960676355,-0.4765623960676355
138.031,0.5242799375014151,-0.5242799375014151
138.032,0.48066186563529745,-0.48066186563529745
138.03300000000002,0.3582158485984732,-0.3582158485984732
138.03400000000002,0.1893175643396091,-0.1893175643396091
138.035,0.016178996205010177,-0.016178996205010177
138.036,0.12164356465517345,0.12164356465517345
138.037,0.1980516724828354,0.1980516724828354
138.038,0.2061670096694168,0.2061670096694168
138.03900000000002,0.15761558987995627,0.15761558987995627
138.04000000000002,0.07619045950938297,0.07619045950938297
138.041,0.011405252136609811,-0.011405252136609811
138.042,0.08426793961318912,-0.08426793961318912
138.043,0.13251228880355004,-0.13251228880355004
138.044,0.1575974102144697,-0.1575974102144697
138.04500000000002,0.1682906437683096,-0.1682906437683096
138.04600000000002,0.17438507656429625,-0.17438507656429625
138.047,0.18095862086024883,-0.18095862086024883
138.048,0.1855250755386444,-0.1855250755386444
138.049,0.17911281718121008,-0.17911281718121008
138.05,0.1506656534204961,-0.1506656534204961
138.05100000000002,0.09283932635002123,-0.09283932635002123
138.05200000000002,0.00675789621332068,-0.00675789621332068
138.053,0.09624637591473584,0.09624637591473584
138.054,0.1966801757896175,0.1966801757896175
138.055,0.272039377791925,0.272039377791925
138.056,0.30324368760711495,0.30324368760711495
138.05700000000002,0.28013732056815566,0.28013732056815566
138.05800000000002,0.20428139569361026,0.20428139569361026
138.059,0.08832683720775902,0.08832683720775902
138.06,0.04751282995888384,-0.04751282995888384
138.061,0.18045786100234806,-0.18045786100234806
138.062,0.2899283843739344,-0.2899283843739344
138.06300000000002,0.36079369580490406,-0.36079369580490406
138.06400000000002,0.3846653967800243,-0.3846653967800243
138.065,0.3596625457427347,-0.3596625457427347
138.066,0.28957086928572395,-0.28957086928572395
138.067,0.1832379003395732,-0.1832379003395732
138.068,0.05447192887824659,-0.05447192887824659
138.06900000000002,0.07803161451516916,0.07803161451516916
138.07000000000002,0.19170771706536716,0.19170771706536716
138.071,0.2629800686358983,0.2629800686358983
138.072,0.27215095947108314,0.27215095947108314
138.073,0.20942523208816088,0.20942523208816088
138.074,0.08017472135973192,0.08017472135973192
138.07500000000002,0.09284522754039881,-0.09284522754039881
138.07600000000002,0.2720921042562161,-0.2720921042562161
138.077,0.4130072872222239,-0.4130072872222239
138.078,0.4754641925895544,-0.4754641925895544
138.079,0.4357577719923895,-0.4357577719923895
138.08,0.29526626166050696,-0.29526626166050696
138.08100000000002,0.08250105760913817,-0.08250105760913817
138.082,0.15288618617883154,0.15288618617883154
138.083,0.35299018902890134,0.35299018902890134
138.084,0.46784760666522573,0.46784760666522573
138.085,0.46996260894095654,0.46996260894095654
138.086,0.3624183922805655,0.3624183922805655
138.08700000000002,0.17772828389250894,0.17772828389250894
138.088,0.032429769570758604,-0.032429769570758604
138.089,0.21337157988234312,-0.21337157988234312
138.09,0.3241552725223845,-0.3241552725223845
138.091,0.3493228391682677,-0.3493228391682677
138.092,0.3017011926941422,-0.3017011926941422
138.09300000000002,0.2154233773516142,-0.2154233773516142
138.094,0.1317887235465275,-0.1317887235465275
138.095,0.08316565293250033,-0.08316565293250033
138.096,0.08089042584554296,-0.08089042584554296
138.097,0.11170450582707592,-0.11170450582707592
138.098,0.14415644924664306,-0.14415644924664306
138.09900000000002,0.14266522296443174,-0.14266522296443174
138.1,0.08395567244843216,-0.08395567244843216
138.101,0.03053780984263299,0.03053780984263299
138.102,0.1714654180987638,0.1714654180987638
138.103,0.2894941788259633,0.2894941788259633
138.104,0.33221203317633896,0.33221203317633896
138.10500000000002,0.26432094503968084,0.26432094503968084
138.106,0.08382237065873799,0.08382237065873799
138.107,0.17213974995834846,-0.17213974995834846
138.108,0.4348070799422632,-0.4348070799422632
138.109,0.6231658947377103,-0.6231658947377103
138.11,0.669337359167399,-0.669337359167399
138.11100000000002,0.541765098037083,-0.541765098037083
138.112,0.25827763455530117,-0.25827763455530117
138.113,0.11585409317502782,0.11585409317502782
138.114,0.4849366525329897,0.4849366525329897
138.115,0.7500511776374488,0.7500511776374488
138.116,0.8380745612933371,0.8380745612933371
138.11700000000002,0.7234281425532216,0.7234281425532216
138.118,0.4356998108350929,0.4356998108350929
138.119,0.05077894012255513,0.05077894012255513
138.12,0.3316088939026621,-0.3316088939026621
138.121,0.6168231334606904,-0.6168231334606904
138.122,0.7416681344304232,-0.7416681344304232
138.12300000000002,0.6902581973793734,-0.6902581973793734
138.124,0.49506281801147545,-0.49506281801147545
138.125,0.22367194824998748,-0.22367194824998748
138.126,0.04371096185606271,0.04371096185606271
138.127,0.23843037258602484,0.23843037258602484
138.128,0.32160030634580594,0.32160030634580594
138.12900000000002,0.29129767235604165,0.29129767235604165
138.13,0.17763733938887016,0.17763733938887016
138.131,0.028683269382735244,0.028683269382735244
138.132,0.10714020809744029,-0.10714020809744029
138.133,0.1959298519886047,-0.1959298519886047
138.134,0.22591346076978458,-0.22591346076978458
138.13500000000002,0.2062965265270752,-0.2062965265270752
138.136,0.15913894648615823,-0.15913894648615823
138.137,0.1083434189624306,-0.1083434189624306
138.138,0.07036950797016872,-0.07036950797016872
138.139,0.05001162664633596,-0.05001162664633596
138.14,0.0421312130224164,-0.0421312130224164
138.14100000000002,0.03765991777896638,-0.03765991777896638
138.142,0.030527219035428987,-0.030527219035428987
138.143,0.022034522097813314,-0.022034522097813314
138.144,0.02057791613545612,-0.02057791613545612
138.145,0.03687837916734782,-0.03687837916734782
138.14600000000002,0.077031198204222,-0.077031198204222
138.14700000000002,0.13681175896285558,-0.13681175896285558
138.148,0.20027974808244797,-0.20027974808244797
138.149,0.2439473614913601,-0.2439473614913601
138.15,0.2453387936803446,-0.2453387936803446
138.151,0.19268289517110437,-0.19268289517110437
138.15200000000002,0.09165116096302317,-0.09165116096302317
138.15300000000002,0.03410051095814137,0.03410051095814137
138.154,0.14955402229391512,0.14955402229391512
138.155,0.22022403525460787,0.22022403525460787
138.156,0.22511408126863097,0.22511408126863097
138.157,0.16571043866575152,0.16571043866575152
138.15800000000002,0.06711333163749744,0.06711333163749744
138.15900000000002,0.029848588103220886,-0.029848588103220886
138.16,0.08326783817351402,-0.08326783817351402
138.161,0.06652688721426936,-0.06652688721426936
138.162,0.019724693946962413,0.019724693946962413
138.163,0.1449180939758623,0.1449180939758623
138.16400000000002,0.257053334750613,0.257053334750613
138.16500000000002,0.30013137157463743,0.30013137157463743
138.166,0.23486533810561983,0.23486533810561983
138.167,0.05538902301463677,0.05538902301463677
138.168,0.20439075658162031,-0.20439075658162031
138.169,0.4778781210288391,-0.4778781210288391
138.17000000000002,0.6848297881532516,-0.6848297881532516
138.17100000000002,0.7565969780962613,-0.7565969780962613
138.172,0.6593393227961246,-0.6593393227961246
138.173,0.4072622813587865,-0.4072622813587865
138.174,0.060964099162024055,-0.060964099162024055
138.175,0.28919364916903056,0.28919364916903056
138.17600000000002,0.5497688547066721,0.5497688547066721
138.17700000000002,0.6525747728672586,0.6525747728672586
138.178,0.5755415677864384,0.5755415677864384
138.179,0.3492914065290602,0.3492914065290602
138.18,0.04722774965715315,0.04722774965715315
138.181,0.23768579247301225,-0.23768579247301225
138.18200000000002,0.42194734176515203,-0.42194734176515203
138.18300000000002,0.4569879906795078,-0.4569879906795078
138.184,0.34299779546915043,-0.34299779546915043
138.185,0.12692322416990087,-0.12692322416990087
138.186,0.11431643948236281,0.11431643948236281
138.187,0.29955881887027136,0.29955881887027136
138.18800000000002,0.369481462161634,0.369481462161634
138.18900000000002,0.30459068259526223,0.30459068259526223
138.19,0.12959600051782938,0.12959600051782938
138.191,0.09669438339913483,-0.09669438339913483
138.192,0.30204288423515846,-0.30204288423515846
138.193,0.42479803176033215,-0.42479803176033215
138.19400000000002,0.4332557879741793,-0.4332557879741793
138.19500000000002,0.33426819493930815,-0.33426819493930815
138.196,0.1688374239501037,-0.1688374239501037
138.197,0.003165550629842695,0.003165550629842695
138.198,0.12355254526551263,0.12355254526551263
138.199,0.15461767909869928,0.15461767909869928
138.20000000000002,0.09015892178423135,0.09015892178423135
138.20100000000002,0.0443655852504754,-0.0443655852504754
138.202,0.2018569800847111,-0.2018569800847111
138.203,0.3297906774239602,-0.3297906774239602
138.204,0.38691848572210885,-0.38691848572210885
138.205,0.35505666711891226,-0.35505666711891226
138.20600000000002,0.24264447829075864,-0.24264447829075864
138.207,0.07977141738712668,-0.07977141738712668
138.208,0.09279452789797293,0.09279452789797293
138.209,0.23634942758525201,0.23634942758525201
138.21,0.32446296391669494,0.32446296391669494
138.211,0.34776566062942504,0.34776566062942504
138.21200000000002,0.3126790225361882,0.3126790225361882
138.213,0.2356533399016898,0.2356533399016898
138.214,0.1358272144567365,0.1358272144567365
138.215,0.02911206951013212,0.02911206951013212
138.216,0.07436696969793055,-0.07436696969793055
138.217,0.16924216749719923,-0.16924216749719923
138.21800000000002,0.25164861252443327,-0.25164861252443327
138.219,0.3159571784707662,-0.3159571784707662
138.22,0.35351740702044043,-0.35351740702044043
138.221,0.3543405754538914,-0.3543405754538914
138.222,0.31116254894163287,-0.31116254894163287
138.223,0.22408697534251198,-0.22408697534251198
138.22400000000002,0.10355348750772297,-0.10355348750772297
138.225,0.030095818485314174,0.030095818485314174
138.226,0.15087020355234526,0.15087020355234526
138.227,0.23406050170389658,0.23406050170389658
138.228,0.26351908865764195,0.26351908865764195
138.229,0.23665032808403996,0.23665032808403996
138.23000000000002,0.1651817168716525,0.1651817168716525
138.231,0.07126949728816645,0.07126949728816645
138.232,0.01980397329823569,-0.01980397329823569
138.233,0.08780773458873548,-0.08780773458873548
138.234,0.12372469442372502,-0.12372469442372502
138.235,0.13171951275714866,-0.13171951275714866
138.23600000000002,0.12625481205182387,-0.12625481205182387
138.237,0.12547136528835878,-0.12547136528835878
138.238,0.14331364119258672,-0.14331364119258672
138.239,0.18333497858281034,-0.18333497858281034
138.24,0.2364913238969052,-0.2364913238969052
138.241,0.2837641273085294,-0.2837641273085294
138.24200000000002,0.30268725081976344,-0.30268725081976344
138.243,0.2754400182630301,-0.2754400182630301
138.244,0.19562140281934026,-0.19562140281934026
138.245,0.0713250090329699,-0.0713250090329699
138.246,0.07651357681159654,0.07651357681159654
138.247,0.21983928117316553,0.21983928117316553
138.24800000000002,0.33121668004913274,0.33121668004913274
138.249,0.39093008153167297,0.39093008153167297
138.25,0.39117332331079924,0.39117332331079924
138.251,0.3362492103742496,0.3362492103742496
138.252,0.2392177834193414,0.2392177834193414
138.253,0.11669073371047589,0.11669073371047589
138.25400000000002,0.016006757704513097,-0.016006757704513097
138.255,0.14747287244495244,-0.14747287244495244
138.256,0.2699465309857022,-0.2699465309857022
138.257,0.3767624930541379,-0.3767624930541379
138.258,0.45926659890370036,-0.45926659890370036
138.259,0.5052213734978878,-0.5052213734978878
138.26000000000002,0.5001351979930968,-0.5001351979930968
138.261,0.43166167597898364,-0.43166167597898364
138.262,0.2957410294662951,-0.2957410294662951
138.263,0.10209140699983443,-0.10209140699983443
138.264,0.12352844739146751,0.12352844739146751
138.265,0.34202371636337414,0.34202371636337414
138.26600000000002,0.508746256055256,0.508746256055256
138.267,0.5846045655824101,0.5846045655824101
138.268,0.5473274749921644,0.5473274749921644
138.269,0.39927665333430795,0.39927665333430795
138.27,0.16898603676634805,0.16898603676634805
138.27100000000002,0.09459394616942074,-0.09459394616942074
138.27200000000002,0.33391549283200095,-0.33391549283200095
138.273,0.4975166561365132,-0.4975166561365132
138.274,0.5533548651647703,-0.5533548651647703
138.275,0.4968760648814843,-0.4968760648814843
138.276,0.35144594700417886,-0.35144594700417886
138.27700000000002,0.16106872768309421,-0.16106872768309421
138.27800000000002,0.02235984933736268,0.02235984933736268
138.279,0.15341639235775317,0.15341639235775317
138.28,0.20489946814365223,0.20489946814365223
138.281,0.17366963234951815,0.17366963234951815
138.282,0.07920872473253038,0.07920872473253038
138.28300000000002,0.04420026072645211,-0.04420026072645211
138.28400000000002,0.15888275883206038,-0.15888275883206038
138.285,0.23505890485608893,-0.23505890485608893
138.286,0.2585841342527263,-0.2585841342527263
138.287,0.2330706089063086,-0.2330706089063086
138.288,0.17623454654749426,-0.17623454654749426
138.28900000000002,0.11215537335234715,-0.11215537335234715
138.29000000000002,0.06230897826091997,-0.06230897826091997
138.291,0.03841166911612781,-0.03841166911612781
138.292,0.03929179841799679,-0.03929179841799679
138.293,0.0525233372069186,-0.0525233372069186
138.294,0.059935743394944896,-0.059935743394944896
138.29500000000002,0.04489361645508927,-0.04489361645508927
138.29600000000002,0.0012116139722904151,0.0012116139722904151
138.297,0.07540281580601094,0.07540281580601094
138.298,0.16355227763071767,0.16355227763071767
138.299,0.24451524085767384,0.24451524085767384
138.3,0.29649366375422126,0.29649366375422126
138.30100000000002,0.3035370535830191,0.3035370535830191
138.30200000000002,0.2601686272120194,0.2601686272120194
138.303,0.1728321532296906,0.1728321532296906
138.304,0.05791353640736063,0.05791353640736063
138.305,0.06286057315013183,-0.06286057315013183
138.306,0.16813284441892395,-0.16813284441892395
138.30700000000002,0.2420322786372927,-0.2420322786372927
138.30800000000002,0.27733816717164717,-0.27733816717164717
138.309,0.27604031595314416,-0.27604031595314416
138.31,0.24746375744560978,-0.24746375744560978
138.311,0.2047931579400245,-0.2047931579400245
138.312,0.16116561610740376,-0.16116561610740376
138.31300000000002,0.1264462761330265,-0.1264462761330265
138.31400000000002,0.10543244783356864,-0.10543244783356864
138.315,0.09770848260525222,-0.09770848260525222
138.316,0.09887814985887178,-0.09887814985887178
138.317,0.10257736875700929,-0.10257736875700929
138.318,0.10258271806891073,-0.10258271806891073
138.31900000000002,0.09445855054155239,-0.09445855054155239
138.32000000000002,0.07644210222476933,-0.07644210222476933
138.321,0.049542278541897744,-0.049542278541897744
138.322,0.017032190541523162,-0.017032190541523162
138.323,0.016397656046322817,0.016397656046322817
138.324,0.045582152840886625,0.045582152840886625
138.32500000000002,0.0657643974474138,0.0657643974474138
138.32600000000002,0.0733539885015797,0.0733539885015797
138.327,0.06654552463962138,0.06654552463962138
138.328,0.04577408252064852,0.04577408252064852
138.329,0.013938170118291016,0.013938170118291016
138.33,0.023723019826320857,-0.023723019826320857
138.33100000000002,0.06020958568761958,-0.06020958568761958
138.332,0.08783858249007515,-0.08783858249007515
138.333,0.09972633886486215,-0.09972633886486215
138.334,0.09142460083056747,-0.09142460083056747
138.335,0.062334577651397494,-0.062334577651397494
138.336,0.016486120205030597,-0.016486120205030597
138.33700000000002,0.0376462399254367,0.0376462399254367
138.338,0.08841681997205497,0.08841681997205497
138.339,0.12322313197730028,0.12322313197730028
138.34,0.13123751391656535,0.13123751391656535
138.341,0.10604077918269139,0.10604077918269139
138.342,0.04750009743570249,0.04750009743570249
138.34300000000002,0.03763247645870682,-0.03763247645870682
138.344,0.13663647968192372,-0.13663647968192372
138.345,0.23311907283050748,-0.23311907283050748
138.346,0.3102010155639088,-0.3102010155639088
138.347,0.35386693463340957,-0.35386693463340957
138.348,0.35570756719756824,-0.35570756719756824
138.34900000000002,0.3144420336506827,-0.3144420336506827
138.35,0.235931436429493,-0.235931436429493
138.351,0.13178637745397936,-0.13178637745397936
138.352,0.017013277554347228,-0.017013277554347228
138.353,0.09266419814354299,0.09266419814354299
138.354,0.18318405767309698,0.18318405767309698
138.35500000000002,0.24379924573284106,0.24379924573284106
138.356,0.2678836323132696,0.2678836323132696
138.357,0.2530612900376863,0.2530612900376863
138.358,0.20099741579598351,0.20099741579598351
138.359,0.11716966122452899,0.11716966122452899
138.36,0.010745439549039837,0.010745439549039837
138.36100000000002,0.105585834546574,-0.105585834546574
138.362,0.21620093106572813,-0.21620093106572813
138.363,0.30397011804080987,-0.30397011804080987
138.364,0.3527388697770186,-0.3527388697770186
138.365,0.35066343026081304,-0.35066343026081304
138.366,0.2937076994686296,-0.2937076994686296
138.36700000000002,0.18823917541350565,-0.18823917541350565
138.368,0.051604286000012545,-0.051604286000012545
138.369,0.09007814450240303,0.09007814450240303
138.37,0.20693183382647828,0.20693183382647828
138.371,0.2722539804256572,0.2722539804256572
138.372,0.26966387614782117,0.26966387614782117
138.37300000000002,0.19838616766744144,0.19838616766744144
138.374,0.07482951860451181,0.07482951860451181
138.375,0.07049021539553324,-0.07049021539553324
138.376,0.2003077390717395,-0.2003077390717395
138.377,0.28049681642495783,-0.28049681642495783
138.378,0.289766122198614,-0.289766122198614
138.37900000000002,0.22623640339555728,-0.22623640339555728
138.38,0.10868793858908465,-0.10868793858908465
138.381,0.02824711052685447,0.02824711052685447
138.382,0.14383574764016993,0.14383574764016993
138.383,0.20321074113498483,0.20321074113498483
138.384,0.18797400144140775,0.18797400144140775
138.38500000000002,0.10210181084116376,0.10210181084116376
138.386,0.02885631963474722,-0.02885631963474722
138.387,0.16525600746654812,-0.16525600746654812
138.388,0.26536568701486196,-0.26536568701486196
138.389,0.2982450720474118,-0.2982450720474118
138.39,0.2534538149018676,-0.2534538149018676
138.39100000000002,0.1444647435253611,-0.1444647435253611
138.392,0.004611455769012451,-0.004611455769012451
138.393,0.12321675307685931,0.12321675307685931
138.394,0.19988439321383722,0.19988439321383722
138.395,0.20207073289362176,0.20207073289362176
138.39600000000002,0.12921050443008109,0.12921050443008109
138.39700000000002,0.0031081913025019503,0.0031081913025019503
138.398,0.1395676489821953,-0.1395676489821953
138.399,0.25934466008805734,-0.25934466008805734
138.4,0.32648862389100775,-0.32648862389100775
138.401,0.32981951939744303,-0.32981951939744303
138.40200000000002,0.27889347027643885,-0.27889347027643885
138.40300000000002,0.19894546474582053,-0.19894546474582053
138.404,0.12051188394966894,-0.12051188394966894
138.405,0.06752490186404858,-0.06752490186404858
138.406,0.04823108086275785,-0.04823108086275785
138.407,0.05231626363299968,-0.05231626363299968
138.40800000000002,0.05542888456173345,-0.05542888456173345
138.40900000000002,0.02962646215228082,-0.02962646215228082
138.41,0.043949049252387073,0.043949049252387073
138.411,0.16484015761833537,0.16484015761833537
138.412,0.3095174483777081,0.3095174483777081
138.413,0.4360351056943048,0.4360351056943048
138.41400000000002,0.4961681065013397,0.4961681065013397
138.41500000000002,0.4514206792541757,0.4514206792541757
138.416,0.28772658998051615,0.28772658998051615
138.417,0.023775162537326366,0.023775162537326366
138.418,0.29028913228298403,-0.29028913228298403
138.419,0.5840820651789564,-0.5840820651789564
138.42000000000002,0.7852298401216264,-0.7852298401216264
138.42100000000002,0.8394292670107398,-0.8394292670107398
138.422,0.7263467246860059,-0.7263467246860059
138.423,0.46649956842931184,-0.46649956842931184
138.424,0.11690378380317679,-0.11690378380317679
138.425,0.2433879159196406,0.2433879159196406
138.42600000000002,0.5337376383744963,0.5337376383744963
138.42700000000002,0.6925190709487126,0.6925190709487126
138.428,0.6920747247122596,0.6920747247122596
138.429,0.5440367492664193,0.5440367492664193
138.43,0.2939365180173723,0.2939365180173723
138.431,0.0071568271656725635,0.0071568271656725635
138.43200000000002,0.24934162425345785,-0.24934162425345785
138.43300000000002,0.42414497644456284,-0.42414497644456284
138.434,0.4926879092705716,-0.4926879092705716
138.435,0.4600916835194151,-0.4600916835194151
138.436,0.35556317767667844,-0.35556317767667844
138.437,0.22082606329462928,-0.22082606329462928
138.43800000000002,0.09656002274868603,-0.09656002274868603
