Czas,AbsSum,Sum
71.46300000000001,0.07435563167522863,-0.07435563167522863
71.46400000000001,0.010959476287530245,-0.010959476287530245
71.465,0.053451276493350575,0.053451276493350575
71.46600000000001,0.10328115441655972,0.10328115441655972
71.46700000000001,0.12564502899849495,0.12564502899849495
71.468,0.1135169636347626,0.1135169636347626
71.46900000000001,0.06721132178035738,0.06721132178035738
71.47000000000001,0.006135391804747314,-0.006135391804747314
71.471,0.09479120065675772,-0.09479120065675772
71.47200000000001,0.18556708122347698,-0.18556708122347698
71.47300000000001,0.2668446817494171,-0.2668446817494171
71.474,0.33059341572161427,-0.33059341572161427
71.47500000000001,0.3728963917029632,-0.3728963917029632
71.47600000000001,0.3930676632492366,-0.3930676632492366
71.477,0.39194797466139386,-0.39194797466139386
71.47800000000001,0.37023244676715605,-0.37023244676715605
71.479,0.3276171502535753,-0.3276171502535753
71.48,0.2631781870340054,-0.2631781870340054
71.48100000000001,0.17685532808045346,-0.17685532808045346
71.482,0.07140565715072222,-0.07140565715072222
71.483,0.04608341823978068,0.04608341823978068
71.48400000000001,0.1639616025692745,0.1639616025692745
71.485,0.267493446348946,0.267493446348946
71.486,0.34186080255999807,0.34186080255999807
71.48700000000001,0.3758995255950892,0.3758995255950892
71.488,0.3654090790633495,0.3654090790633495
71.489,0.3148876883994518,0.3148876883994518
71.49000000000001,0.23696516313591154,0.23696516313591154
71.491,0.14950802541685015,0.14950802541685015
71.492,0.07112872889114419,0.07112872889114419
71.49300000000001,0.016384474628483137,0.016384474628483137
71.494,0.0078968604646531,-0.0078968604646531
71.495,0.004042898175504184,-0.004042898175504184
71.49600000000001,0.017712257271762955,0.017712257271762955
71.497,0.04273315637545183,0.04273315637545183
71.498,0.05660776169400661,0.05660776169400661
71.49900000000001,0.049410386474669776,0.049410386474669776
71.5,0.018269089871040478,0.018269089871040478
71.501,0.03250307347758674,-0.03250307347758674
71.50200000000001,0.09361615204776608,-0.09361615204776608
71.503,0.15445976657269844,-0.15445976657269844
71.504,0.2068409603640048,-0.2068409603640048
71.50500000000001,0.2474448333863255,-0.2474448333863255
71.506,0.278150106971802,-0.278150106971802
71.507,0.3041331331375089,-0.3041331331375089
71.50800000000001,0.3305226958834552,-0.3305226958834552
71.509,0.35892801150360354,-0.35892801150360354
71.51,0.38524870310307624,-0.38524870310307624
71.51100000000001,0.3997483535454487,-0.3997483535454487
71.512,0.3895743697870159,-0.3895743697870159
71.513,0.3430126281261908,-0.3430126281261908
71.51400000000001,0.25409117729854946,-0.25409117729854946
71.515,0.12593729310403712,-0.12593729310403712
71.516,0.02836770609126149,0.02836770609126149
71.51700000000001,0.18790609344838316,0.18790609344838316
71.518,0.3285149095856186,0.3285149095856186
71.519,0.4285278478640977,0.4285278478640977
71.52000000000001,0.4739489051842962,0.4739489051842962
71.521,0.46150841442343693,0.46150841442343693
71.522,0.3987318421565351,0.3987318421565351
71.52300000000001,0.3011115440233929,0.3011115440233929
71.524,0.18738618957316122,0.18738618957316122
71.525,0.07449403928437448,0.07449403928437448
71.52600000000001,0.026209061102671183,-0.026209061102671183
71.527,0.11038509996137946,-0.11038509996137946
71.528,0.17957634452231452,-0.17957634452231452
71.52900000000001,0.2381662991070761,-0.2381662991070761
71.53,0.28973765368142546,-0.28973765368142546
71.531,0.3342693560089044,-0.3342693560089044
71.53200000000001,0.3672371467274671,-0.3672371467274671
71.533,0.3809300200771416,-0.3809300200771416
71.534,0.36744725242181275,-0.36744725242181275
71.53500000000001,0.32220508459651964,-0.32220508459651964
71.536,0.24658661055149522,-0.24658661055149522
71.537,0.14867937358335948,-0.14867937358335948
71.53800000000001,0.04174529311894526,-0.04174529311894526
71.539,0.05910063565866852,0.05910063565866852
71.54,0.14086685639528795,0.14086685639528795
71.54100000000001,0.19593413218961997,0.19593413218961997
71.542,0.22345023608731873,0.22345023608731873
71.543,0.2284112902570865,0.2284112902570865
71.54400000000001,0.21880806221145477,0.21880806221145477
71.545,0.20191998143123668,0.20191998143123668
71.546,0.18115505026928114,0.18115505026928114
71.54700000000001,0.15464332299300265,0.15464332299300265
71.548,0.11615965269042938,0.11615965269042938
71.549,0.05810093265315497,0.05810093265315497
71.55000000000001,0.024523729840056463,-0.024523729840056463
71.551,0.13054058045605865,-0.13054058045605865
71.552,0.2508499415774397,-0.2508499415774397
71.55300000000001,0.3692348775773122,-0.3692348775773122
71.554,0.4656626280710109,-0.4656626280710109
71.555,0.5211580724330525,-0.5211580724330525
71.55600000000001,0.5227856464338998,-0.5227856464338998
71.557,0.4672168901383391,-0.4672168901383391
71.558,0.36180072981007827,-0.36180072981007827
71.55900000000001,0.22283837985108523,-0.22283837985108523
71.56,0.07162679614935707,-0.07162679614935707
71.561,0.07051232581065392,0.07051232581065392
71.56200000000001,0.18676319228045624,0.18676319228045624
71.563,0.2676871289244671,0.2676871289244671
71.56400000000001,0.31182079350843384,0.31182079350843384
71.56500000000001,0.3241397245150479,0.3241397245150479
71.566,0.3131639441735343,0.3131639441735343
71.56700000000001,0.2878025422024686,0.2878025422024686
71.56800000000001,0.25495529248107607,0.25495529248107607
71.569,0.218475443611031,0.218475443611031
71.57000000000001,0.17952635806897144,0.17952635806897144
71.57100000000001,0.13785587868160687,0.13785587868160687
71.572,0.09324656845377266,0.09324656845377266
71.57300000000001,0.04645402724322034,0.04645402724322034
71.57400000000001,0.0007300454176655258,-0.0007300454176655258
71.575,0.04620842966299765,-0.04620842966299765
71.57600000000001,0.0886438715700858,-0.0886438715700858
71.57700000000001,0.1282438972527128,-0.1282438972527128
71.578,0.16677156399798498,-0.16677156399798498
71.57900000000001,0.2066348699894771,-0.2066348699894771
71.58000000000001,0.24933281285368558,-0.24933281285368558
71.581,0.29386437670182786,-0.29386437670182786
71.58200000000001,0.3357999820668012,-0.3357999820668012
71.58300000000001,0.36752707053650013,-0.36752707053650013
71.584,0.37977638745629716,-0.37977638745629716
71.58500000000001,0.36406263627924307,-0.36406263627924307
71.58600000000001,0.3153105617940609,-0.3153105617940609
71.587,0.2338241168801959,-0.2338241168801959
71.58800000000001,0.12593933559059134,-0.12593933559059134
71.58900000000001,0.0031184024343056116,-0.0031184024343056116
71.59,0.12025549254247725,0.12025549254247725
71.59100000000001,0.229714884675414,0.229714884675414
71.59200000000001,0.31333809700734827,0.31333809700734827
71.593,0.363456033832781,0.363456033832781
71.59400000000001,0.37708041087623556,0.37708041087623556
71.59500000000001,0.35516017131449185,0.35516017131449185
71.596,0.3011634288052554,0.3011634288052554
71.59700000000001,0.21966051981021284,0.21966051981021284
71.59800000000001,0.11549187301128816,0.11549187301128816
71.599,0.006212288088206508,-0.006212288088206508
71.60000000000001,0.13930549782699686,-0.13930549782699686
71.60100000000001,0.27568110984000016,-0.27568110984000016
71.602,0.40474115402354416,-0.40474115402354416
71.60300000000001,0.5137897700901131,-0.5137897700901131
71.604,0.5895277073342728,-0.5895277073342728
71.605,0.6203971927108176,-0.6203971927108176
71.60600000000001,0.5991669545101619,-0.5991669545101619
71.607,0.5249899262643707,-0.5249899262643707
71.608,0.40427131113119563,-0.40427131113119563
71.60900000000001,0.2500170246270458,-0.2500170246270458
71.61,0.07977605114380726,-0.07977605114380726
71.611,0.08730783703512124,0.08730783703512124
71.61200000000001,0.23359257018196677,0.23359257018196677
71.613,0.34545462583040876,0.34545462583040876
71.614,0.41473340256902613,0.41473340256902613
71.61500000000001,0.43896913129223947,0.43896913129223947
71.616,0.42065026033128916,0.42065026033128916
71.617,0.3659094037341084,0.3659094037341084
71.61800000000001,0.28314283762279135,0.28314283762279135
71.619,0.18189242682756812,0.18189242682756812
71.62,0.07209994863638669,0.07209994863638669
71.62100000000001,0.036370875199827624,-0.036370875199827624
71.622,0.1341598164291976,-0.1341598164291976
71.623,0.212967584568991,-0.212967584568991
71.62400000000001,0.26628644671383395,-0.26628644671383395
71.625,0.29016760984434287,-0.29016760984434287
71.626,0.2837697556410689,-0.2837697556410689
71.62700000000001,0.24943754639850224,-0.24943754639850224
71.628,0.19219538057786,-0.19219538057786
71.629,0.11875668164119679,-0.11875668164119679
71.63000000000001,0.036348925459507075,-0.036348925459507075
71.631,0.048254468937644956,0.048254468937644956
71.632,0.1291749707840073,0.1291749707840073
71.63300000000001,0.20123992191623574,0.20123992191623574
71.634,0.25934585801592647,0.25934585801592647
71.635,0.29779130432296275,0.29779130432296275
71.63600000000001,0.31007450012532645,0.31007450012532645
71.637,0.28952150318004954,0.28952150318004954
71.638,0.23080098430639828,0.23080098430639828
71.63900000000001,0.1319984912896668,0.1319984912896668
71.64,0.0033905100606045346,-0.0033905100606045346
71.641,0.16530259977485395,-0.16530259977485395
71.64200000000001,0.3373852422269633,-0.3373852422269633
71.643,0.49892764429542236,-0.49892764429542236
71.644,0.6281565936053151,-0.6281565936053151
71.64500000000001,0.7061613592560405,-0.7061613592560405
71.646,0.720474286883598,-0.720474286883598
71.647,0.6673968280157263,-0.6673968280157263
71.64800000000001,0.55250998613813,-0.55250998613813
71.649,0.3893284362894962,-0.3893284362894962
71.65,0.19657325868246522,-0.19657325868246522
71.65100000000001,0.005123649218219617,0.005123649218219617
71.652,0.19621724144879793,0.19621724144879793
71.653,0.3603173438626883,0.3603173438626883
71.65400000000001,0.4851153873866696,0.4851153873866696
71.655,0.5623961263801278,0.5623961263801278
71.656,0.5876471248099109,0.5876471248099109
71.65700000000001,0.5598082644840385,0.5598082644840385
71.658,0.4814749483064311,0.4814749483064311
71.659,0.35948658177716175,0.35948658177716175
71.66000000000001,0.20546618628392466,0.20546618628392466
71.661,0.035696119728085396,0.035696119728085396
71.662,0.13018202319256744,-0.13018202319256744
71.66300000000001,0.2717814367501704,-0.2717814367501704
71.664,0.3715178658854613,-0.3715178658854613
71.665,0.41824398662573714,-0.41824398662573714
71.66600000000001,0.4099007960568767,-0.4099007960568767
71.667,0.35425385349183014,-0.35425385349183014
71.668,0.2672686284965835,-0.2672686284965835
71.66900000000001,0.16937344825593226,-0.16937344825593226
71.67,0.08053390897771495,-0.08053390897771495
71.671,0.01548492498684606,-0.01548492498684606
71.67200000000001,0.01952206609276419,0.01952206609276419
71.673,0.027521329523838123,0.027521329523838123
71.674,0.01897937950606088,0.01897937950606088
71.67500000000001,0.007886156787953347,0.007886156787953347
71.676,0.007009556451880616,0.007009556451880616
71.677,0.023762151248887697,0.023762151248887697
71.67800000000001,0.05789961432597379,0.05789961432597379
71.679,0.10166424588624556,0.10166424588624556
71.68,0.14221081972605454,0.14221081972605454
71.68100000000001,0.16546352855549462,0.16546352855549462
71.682,0.16017172792422918,0.16017172792422918
71.683,0.12096574716052877,0.12096574716052877
71.68400000000001,0.04962450203401092,0.04962450203401092
71.685,0.04560942030639359,-0.04560942030639359
71.686,0.152220084598503,-0.152220084598503
71.68700000000001,0.2562734116855582,-0.2562734116855582
71.688,0.3450344778249662,-0.3450344778249662
71.68900000000001,0.408698441653908,-0.408698441653908
71.69000000000001,0.44102854631853006,-0.44102854631853006
71.691,0.4391359380093077,-0.4391359380093077
71.69200000000001,0.40290424339700714,-0.40290424339700714
71.69300000000001,0.33456603551076636,-0.33456603551076636
71.694,0.2387008996725244,-0.2387008996725244
71.69500000000001,0.12256794599624787,-0.12256794599624787
71.69600000000001,0.0036214592799153067,0.0036214592799153067
71.697,0.12699641910338344,0.12699641910338344
71.69800000000001,0.23324411069629303,0.23324411069629303
71.69900000000001,0.3087558868361586,0.3087558868361586
71.7,0.3432806016165235,0.3432806016165235
71.70100000000001,0.3323473833213484,0.3323473833213484
71.70200000000001,0.27865521354495404,0.27865521354495404
71.703,0.19186338273770343,0.19186338273770343
71.70400000000001,0.08668819828656171,0.08668819828656171
71.70500000000001,0.020244848807729032,-0.020244848807729032
71.706,0.11392550753836128,-0.11392550753836128
71.70700000000001,0.18385645071491497,-0.18385645071491497
71.70800000000001,0.22552631720399496,-0.22552631720399496
71.709,0.24013881998964426,-0.24013881998964426
71.71000000000001,0.23286071309052736,-0.23286071309052736
71.71100000000001,0.2103273456558239,-0.2103273456558239
71.712,0.178342934812192,-0.178342934812192
71.71300000000001,0.14056503652579788,-0.14056503652579788
71.71400000000001,0.09852964106323958,-0.09852964106323958
71.715,0.05282232468463388,-0.05282232468463388
71.71600000000001,0.0047431943285667355,-0.0047431943285667355
71.71700000000001,0.042376044847428185,0.042376044847428185
71.718,0.08289368380227202,0.08289368380227202
71.71900000000001,0.1098767446559914,0.1098767446559914
71.72000000000001,0.11712947443707566,0.11712947443707566
71.721,0.10149796152876989,0.10149796152876989
71.72200000000001,0.06454752990967294,0.06454752990967294
71.72300000000001,0.012888786095402338,0.012888786095402338
71.724,0.04310472414795674,-0.04310472414795674
71.72500000000001,0.09186191587043147,-0.09186191587043147
71.72600000000001,0.12365883020417345,-0.12365883020417345
71.727,0.13314675211690286,-0.13314675211690286
71.72800000000001,0.12053812784437812,-0.12053812784437812
71.729,0.091096083863487,-0.091096083863487
71.73,0.05317077015463145,-0.05317077015463145
71.73100000000001,0.015525574490981353,-0.015525574490981353
71.732,0.015088094406556785,0.015088094406556785
71.733,0.035295212034922585,0.035295212034922585
71.73400000000001,0.04503597459842612,0.04503597459842612
71.735,0.0462858081033517,0.0462858081033517
71.736,0.04123401533100224,0.04123401533100224
71.73700000000001,0.030783338019136464,0.030783338019136464
71.738,0.0140590922331425,0.0140590922331425
71.739,0.010845523449536043,-0.010845523449536043
71.74000000000001,0.045224926261793086,-0.045224926261793086
71.741,0.08798782985868348,-0.08798782985868348
71.742,0.13464367889093443,-0.13464367889093443
71.74300000000001,0.17767748977493836,-0.17767748977493836
71.744,0.2083922594633978,-0.2083922594633978
71.745,0.2196694589874829,-0.2196694589874829
71.74600000000001,0.20864378208662404,-0.20864378208662404
71.747,0.1782058288532753,-0.1782058288532753
71.748,0.13659631380106607,-0.13659631380106607
71.74900000000001,0.09503022949547335,-0.09503022949547335
71.75,0.06404688226858601,-0.06404688226858601
71.751,0.04983192791199853,-0.04983192791199853
71.75200000000001,0.051872760983371125,-0.051872760983371125
71.753,0.06291456398077477,-0.06291456398077477
71.754,0.07139698441510467,-0.07139698441510467
71.75500000000001,0.06564306735467806,-0.06564306735467806
71.756,0.03837636953654966,-0.03837636953654966
71.757,0.010068529777640167,0.010068529777640167
71.75800000000001,0.07109683941494782,0.07109683941494782
71.759,0.13015797813734098,0.13015797813734098
71.76,0.17134352436802547,0.17134352436802547
71.76100000000001,0.18275279442298586,0.18275279442298586
71.762,0.1607462326353617,0.1607462326353617
71.763,0.11151712780881584,0.11151712780881584
71.76400000000001,0.0493031675314608,0.0493031675314608
71.765,0.008267269483576478,-0.008267269483576478
71.766,0.04615581985628503,-0.04615581985628503
71.76700000000001,0.05715108490388321,-0.05715108490388321
71.768,0.04447957595603247,-0.04447957595603247
71.769,0.020775649496995507,-0.020775649496995507
71.77000000000001,0.0036538895336341026,-0.0036538895336341026
71.771,0.009340294368664903,-0.009340294368664903
71.772,0.04655238834880082,-0.04655238834880082
71.77300000000001,0.11279811244871107,-0.11279811244871107
71.774,0.19447535524787507,-0.19447535524787507
71.775,0.270857234530257,-0.270857234530257
71.77600000000001,0.3206886000840965,-0.3206886000840965
71.777,0.32917512906183555,-0.32917512906183555
71.778,0.292959665520113,-0.292959665520113
71.77900000000001,0.22133248431492492,-0.22133248431492492
71.78,0.1332001448722483,-0.1332001448722483
71.781,0.050804560199678495,-0.050804560199678495
71.78200000000001,0.007670945996556933,0.007670945996556933
71.783,0.03405441824965405,0.03405441824965405
71.784,0.032610015460329045,0.032610015460329045
71.78500000000001,0.018049584996426393,0.018049584996426393
71.786,0.009773509091884236,0.009773509091884236
71.787,0.024309831374111246,0.024309831374111246
71.78800000000001,0.06858357524483383,0.06858357524483383
71.789,0.1364104096633092,0.1364104096633092
71.79,0.20954275546076984,0.20954275546076984
71.79100000000001,0.2630603095645827,0.2630603095645827
71.792,0.27341230961089913,0.27341230961089913
71.793,0.22649126162733602,0.22649126162733602
71.79400000000001,0.12306353761933164,0.12306353761933164
71.795,0.020279576270110122,-0.020279576270110122
71.796,0.1750389764341066,-0.1750389764341066
71.79700000000001,0.3084104334122014,-0.3084104334122014
71.798,0.3922185214991978,-0.3922185214991978
71.799,0.41043652626722704,-0.41043652626722704
71.80000000000001,0.3630509577930262,-0.3630509577930262
71.801,0.2652410374449393,-0.2652410374449393
71.802,0.14234523137742472,-0.14234523137742472
71.80300000000001,0.022376491799079523,-0.022376491799079523
71.804,0.07148941127727415,0.07148941127727415
71.805,0.12618273785247358,0.12618273785247358
71.80600000000001,0.1403780050509047,0.1403780050509047
71.807,0.12239333172756273,0.12239333172756273
71.808,0.08547173183566636,0.08547173183566636
71.80900000000001,0.042334364395246515,0.042334364395246515
71.81,0.0009716487031983245,0.0009716487031983245
71.811,0.036964922782019904,-0.036964922782019904
71.81200000000001,0.07484395679816136,-0.07484395679816136
71.813,0.11757023972984426,-0.11757023972984426
71.81400000000001,0.16745724758455238,-0.16745724758455238
71.81500000000001,0.22116017548106026,-0.22116017548106026
71.816,0.2689416530669416,-0.2689416530669416
71.81700000000001,0.2966718442974231,-0.2966718442974231
71.81800000000001,0.2899739393212144,-0.2899739393212144
71.819,0.23915960340509024,-0.23915960340509024
71.82000000000001,0.14330850473151546,-0.14330850473151546
71.82100000000001,0.012110263514126474,-0.012110263514126474
71.822,0.1352048387649818,0.1352048387649818
71.82300000000001,0.27361961455408546,0.27361961455408546
71.82400000000001,0.3777468922598177,0.3777468922598177
71.825,0.42744257006556774,0.42744257006556774
71.82600000000001,0.4121625333640717,0.4121625333640717
71.82700000000001,0.3330420276473709,0.3330420276473709
71.828,0.20235240716900482,0.20235240716900482
71.82900000000001,0.040684525894817636,0.040684525894817636
71.83000000000001,0.1272829952967066,-0.1272829952967066
71.831,0.2773651843999293,-0.2773651843999293
71.83200000000001,0.38983531711602104,-0.38983531711602104
71.83300000000001,0.4521208971670816,-0.4521208971670816
71.834,0.45997222190315956,-0.45997222190315956
71.83500000000001,0.4171880484028936,-0.4171880484028936
71.83600000000001,0.33420075819971096,-0.33420075819971096
71.837,0.22590702731524548,-0.22590702731524548
71.83800000000001,0.10912222919096515,-0.10912222919096515
71.83900000000001,1.9225229639374675e-06,1.9225229639374675e-06
71.84,0.08828423522780904,0.08828423522780904
71.84100000000001,0.1472450643621539,0.1472450643621539
71.84200000000001,0.17398945844383484,0.17398945844383484
71.843,0.1710587474739509,0.1710587474739509
71.84400000000001,0.14523939522443863,0.14523939522443863
71.84500000000001,0.10555537594814202,0.10555537594814202
71.846,0.06090752928784493,0.06090752928784493
71.84700000000001,0.017970307528127005,0.017970307528127005
71.84800000000001,0.020064293432767832,-0.020064293432767832
71.849,0.053520907447941246,-0.053520907447941246
71.85000000000001,0.08504322583469626,-0.08504322583469626
71.85100000000001,0.11756009247314758,-0.11756009247314758
71.852,0.1521169836994889,-0.1521169836994889
71.85300000000001,0.18636340090595938,-0.18636340090595938
71.854,0.21430784183787288,-0.21430784183787288
71.855,0.22754859946288664,-0.22754859946288664
71.85600000000001,0.21768798390695898,-0.21768798390695898
71.857,0.17920949662892527,-0.17920949662892527
71.858,0.11189434767886408,-0.11189434767886408
71.85900000000001,0.021954155695986355,-0.021954155695986355
71.86,0.0785652552343703,0.0785652552343703
71.861,0.17402212580450316,0.17402212580450316
71.86200000000001,0.24846514871803316,0.24846514871803316
71.863,0.28906159595585534,0.28906159595585534
71.864,0.2887433804152568,0.2887433804152568
71.86500000000001,0.24742041884711474,0.24742041884711474
71.866,0.1715690624718067,0.1715690624718067
71.867,0.07248168786781717,0.07248168786781717
71.86800000000001,0.03620089959208406,-0.03620089959208406
71.869,0.14095995970750608,-0.14095995970750608
71.87,0.23031148723166395,-0.23031148723166395
71.87100000000001,0.29591070758961036,-0.29591070758961036
71.872,0.3329235592869737,-0.3329235592869737
71.873,0.3399470782616445,-0.3399470782616445
71.87400000000001,0.3187776422750337,-0.3187776422750337
71.875,0.2741731052743952,-0.2741731052743952
71.876,0.21353121490695504,-0.21353121490695504
71.87700000000001,0.14624541318941986,-0.14624541318941986
71.878,0.08250553387406034,-0.08250553387406034
71.879,0.031511389179436966,-0.031511389179436966
71.88000000000001,0.0006094457199530279,0.0006094457199530279
71.881,0.01258707328722286,0.01258707328722286
71.882,0.008785829646655419,0.008785829646655419
71.88300000000001,0.0015745039139025696,-0.0015745039139025696
71.884,0.006855200723882238,-0.006855200723882238
71.885,0.0033978881294309815,0.0033978881294309815
71.88600000000001,0.03470211023893999,0.03470211023893999
71.887,0.08499569346010949,0.08499569346010949
71.888,0.14417645131158374,0.14417645131158374
71.88900000000001,0.1962845314281254,0.1962845314281254
71.89,0.22393292366585427,0.22393292366585427
71.891,0.21376350724934845,0.21376350724934845
71.89200000000001,0.16121761079471209,0.16121761079471209
71.893,0.07296930376775768,0.07296930376775768
71.894,0.03399175702511237,-0.03399175702511237
71.89500000000001,0.13659823122580916,-0.13659823122580916
71.896,0.21212085921092239,-0.21212085921092239
71.897,0.2448191396954965,-0.2448191396954965
71.89800000000001,0.23069533613462279,-0.23069533613462279
71.899,0.17874399432930155,-0.17874399432930155
71.9,0.10818175384294182,-0.10818175384294182
71.90100000000001,0.042453809196855374,-0.042453809196855374
71.902,0.001901933591365812,-0.001901933591365812
71.903,0.0025373186900987665,0.0025373186900987665
71.90400000000001,0.02745867081082065,-0.02745867081082065
71.905,0.07853542930773727,-0.07853542930773727
71.906,0.13041375166269742,-0.13041375166269742
71.90700000000001,0.16284310977468897,-0.16284310977468897
71.908,0.1624007795606459,-0.1624007795606459
71.909,0.12684687209938528,-0.12684687209938528
71.91000000000001,0.06560108536890141,-0.06560108536890141
71.911,0.0037417634764125296,0.0037417634764125296
71.912,0.061565983604337626,0.061565983604337626
71.91300000000001,0.09285482606097073,0.09285482606097073
71.914,0.09194465473991142,0.09194465473991142
71.915,0.06378658191305786,0.06378658191305786
71.91600000000001,0.021371830541974335,0.021371830541974335
71.917,0.019623783002814643,-0.019623783002814643
71.918,0.04691389736317686,-0.04691389736317686
71.91900000000001,0.05608664698210486,-0.05608664698210486
71.92,0.05180446566305985,-0.05180446566305985
71.921,0.04527176039725134,-0.04527176039725134
71.92200000000001,0.04895449885183911,-0.04895449885183911
71.923,0.0706173814694615,-0.0706173814694615
71.924,0.10906493910356363,-0.10906493910356363
71.92500000000001,0.15339409952426908,-0.15339409952426908
71.926,0.18627918501317065,-0.18627918501317065
71.927,0.19027519764322964,-0.19027519764322964
71.92800000000001,0.1549064231455417,-0.1549064231455417
71.929,0.08187061611114133,-0.08187061611114133
71.93,0.013772496723050143,0.013772496723050143
71.93100000000001,0.10720404111094428,0.10720404111094428
71.932,0.1713053960244717,0.1713053960244717
71.933,0.18558217252038012,0.18558217252038012
71.93400000000001,0.1434945446510898,0.1434945446510898
71.935,0.05553219168024626,0.05553219168024626
71.936,0.053268674322229814,-0.053268674322229814
71.93700000000001,0.15079338220719118,-0.15079338220719118
71.938,0.20798136656434407,-0.20798136656434407
71.93900000000001,0.20829978864607057,-0.20829978864607057
71.94000000000001,0.15334913967989217,-0.15334913967989217
71.941,0.06261354680887776,-0.06261354680887776
71.94200000000001,0.0326985539832374,0.0326985539832374
71.94300000000001,0.0997849961518602,0.0997849961518602
71.944,0.11504420880068622,0.11504420880068622
71.94500000000001,0.0719581890021459,0.0719581890021459
71.94600000000001,0.01657304282833194,-0.01657304282833194
71.947,0.12224876343235358,-0.12224876343235358
71.94800000000001,0.21042907015043544,-0.21042907015043544
71.94900000000001,0.2512613413108682,-0.2512613413108682
71.95,0.22922591162725747,-0.22922591162725747
71.95100000000001,0.14801481125127514,-0.14801481125127514
71.95200000000001,0.029243143216968193,-0.029243143216968193
71.953,0.09444501831819196,0.09444501831819196
71.95400000000001,0.189482478728225,0.189482478728225
71.95500000000001,0.23131998294069067,0.23131998294069067
71.956,0.21100895790488794,0.21100895790488794
71.95700000000001,0.13649004103671114,0.13649004103671114
71.95800000000001,0.028522038537801553,0.028522038537801553
71.959,0.08699590031816473,-0.08699590031816473
71.96000000000001,0.18742275579538936,-0.18742275579538936
71.96100000000001,0.25953742781980016,-0.25953742781980016
71.962,0.30149048975841264,-0.30149048975841264
71.96300000000001,0.32022877865180144,-0.32022877865180144
71.96400000000001,0.3257873559759521,-0.3257873559759521
71.965,0.3249837742893118,-0.3249837742893118
71.96600000000001,0.31720773127329793,-0.31720773127329793
71.96700000000001,0.29412638750620734,-0.29412638750620734
71.968,0.24355112153476,-0.24355112153476
71.96900000000001,0.15602216907593425,-0.15602216907593425
71.97000000000001,0.03149512823624412,-0.03149512823624412
71.971,0.11669471701612766,0.11669471701612766
71.97200000000001,0.26255756092386484,0.26255756092386484
71.97300000000001,0.3731954484546556,0.3731954484546556
71.974,0.4180602579731727,0.4180602579731727
71.97500000000001,0.3788248513083188,0.3788248513083188
71.97600000000001,0.2565424574722852,0.2565424574722852
71.977,0.07348464629516238,0.07348464629516238
71.97800000000001,0.13131213596121083,-0.13131213596121083
71.979,0.31173921735372423,-0.31173921735372423
71.98,0.42677005319515604,-0.42677005319515604
71.98100000000001,0.4514541152124074,-0.4514541152124074
71.982,0.38345086396362216,-0.38345086396362216
71.983,0.24318753424330164,-0.24318753424330164
71.98400000000001,0.06770654996884329,-0.06770654996884329
71.985,0.09980637662284031,0.09980637662284031
71.986,0.2215791500435007,0.2215791500435007
71.98700000000001,0.2744835546827782,0.2744835546827782
71.988,0.25443465186945624,0.25443465186945624
71.989,0.17510480761364366,0.17510480761364366
71.99000000000001,0.061913523177193674,0.061913523177193674
71.991,0.05637041032146417,-0.05637041032146417
71.992,0.15557128601700787,-0.15557128601700787
71.99300000000001,0.2212234532103029,-0.2212234532103029
71.994,0.2497154531950474,-0.2497154531950474
71.995,0.2458090370210878,-0.2458090370210878
71.99600000000001,0.21810422157609932,-0.21810422157609932
71.997,0.17455668218885356,-0.17455668218885356
71.998,0.11985472974546263,-0.11985472974546263
71.99900000000001,0.055495660298761074,-0.055495660298761074
72.0,0.017829744984567242,0.017829744984567242
72.001,0.09694335873318738,0.09694335873318738
72.00200000000001,0.1737727318150617,0.1737727318150617
72.003,0.23526951969545018,0.23526951969545018
72.004,0.2661249852694074,0.2661249852694074
72.00500000000001,0.25355698656737125,0.25355698656737125
72.006,0.19248281255398636,0.19248281255398636
72.007,0.0890507617158165,0.0890507617158165
72.00800000000001,0.03906701058540263,-0.03906701058540263
72.009,0.16615150522156796,-0.16615150522156796
72.01,0.26488602247367066,-0.26488602247367066
72.01100000000001,0.31386755158805824,-0.31386755158805824
72.012,0.3037858575878216,-0.3037858575878216
72.013,0.240211422616725,-0.240211422616725
72.01400000000001,0.1419927539589374,-0.1419927539589374
72.015,0.03569192397641985,-0.03569192397641985
72.016,0.052204356036599675,0.052204356036599675
72.01700000000001,0.10282395639193131,0.10282395639193131
72.018,0.10981524931409559,0.10981524931409559
72.019,0.08012470303302832,0.08012470303302832
72.02000000000001,0.030533480054844242,0.030533480054844242
72.021,0.018756004938044746,-0.018756004938044746
72.022,0.051244213824983786,-0.051244213824983786
72.02300000000001,0.05955287522088715,-0.05955287522088715
72.024,0.04736401813581981,-0.04736401813581981
72.025,0.02733636452207966,-0.02733636452207966
72.02600000000001,0.015844228950478767,-0.015844228950478767
72.027,0.02645463738263354,-0.02645463738263354
72.028,0.06445261177648909,-0.06445261177648909
72.02900000000001,0.124322134379388,-0.124322134379388
72.03,0.19104532735650104,-0.19104532735650104
72.031,0.24476468938446283,-0.24476468938446283
72.03200000000001,0.26721684591464434,-0.26721684591464434
72.033,0.24777216033518912,-0.24777216033518912
72.034,0.18708244146728548,-0.18708244146728548
72.03500000000001,0.09717162658903222,-0.09717162658903222
72.036,0.0019985314833907974,0.0019985314833907974
72.037,0.08830797670192259,0.08830797670192259
72.03800000000001,0.1437075495745459,0.1437075495745459
72.039,0.15894084271094222,0.15894084271094222
72.04,0.13538626772372808,0.13538626772372808
72.04100000000001,0.08365119006773325,0.08365119006773325
72.042,0.01961585273556765,0.01961585273556765
72.043,0.04060917222407423,-0.04060917222407423
72.04400000000001,0.08512243835974798,-0.08512243835974798
72.045,0.10873494841292775,-0.10873494841292775
72.046,0.11298228751680961,-0.11298228751680961
72.04700000000001,0.10399213219976411,-0.10399213219976411
72.048,0.08925549187497472,-0.08925549187497472
72.049,0.07461816370798979,-0.07461816370798979
72.05000000000001,0.06257771837013171,-0.06257771837013171
72.051,0.052358816775548656,-0.052358816775548656
72.052,0.04149630154237249,-0.04149630154237249
72.05300000000001,0.02806770476833098,-0.02806770476833098
72.054,0.012500645461147153,-0.012500645461147153
72.055,0.0018953194045860933,0.0018953194045860933
72.05600000000001,0.009958363377355228,0.009958363377355228
72.057,0.006873903598946685,0.006873903598946685
72.058,0.009371180845450189,-0.009371180845450189
72.05900000000001,0.036356976702963895,-0.036356976702963895
72.06,0.06723025622374823,-0.06723025622374823
72.061,0.09253824075001982,-0.09253824075001982
72.06200000000001,0.10337912577722841,-0.10337912577722841
72.063,0.09478884884990435,-0.09478884884990435
72.06400000000001,0.06809677496167188,-0.06809677496167188
72.06500000000001,0.03125966266406677,-0.03125966266406677
72.066,0.00315622987411901,0.00315622987411901
72.06700000000001,0.02185198651046205,0.02185198651046205
72.06800000000001,0.015340247133570628,0.015340247133570628
72.069,0.018356449556568344,-0.018356449556568344
72.07000000000001,0.07218214687980085,-0.07218214687980085
72.07100000000001,0.1313795792245187,-0.1313795792245187
72.072,0.1774488454540608,-0.1774488454540608
72.07300000000001,0.1936282206041714,-0.1936282206041714
72.07400000000001,0.1702436206384741,-0.1702436206384741
72.075,0.10824007342267761,-0.10824007342267761
72.07600000000001,0.01971456830634688,-0.01971456830634688
72.07700000000001,0.07483722976987073,0.07483722976987073
72.078,0.15184636628079562,0.15184636628079562
72.07900000000001,0.19105910974568174,0.19105910974568174
72.08000000000001,0.1811411416573785,0.1811411416573785
72.081,0.12287296351924692,0.12287296351924692
72.08200000000001,0.02902457192100405,0.02902457192100405
72.08300000000001,0.07902430948294936,-0.07902430948294936
72.084,0.1769107119399559,-0.1769107119399559
72.08500000000001,0.24353387275879346,-0.24353387275879346
72.08600000000001,0.26617143808195964,-0.26617143808195964
72.087,0.24311637502488825,-0.24311637502488825
72.08800000000001,0.1832607434201754,-0.1832607434201754
72.08900000000001,0.10295594766297333,-0.10295594766297333
72.09,0.02123145653280989,-0.02123145653280989
72.09100000000001,0.04516288363502485,0.04516288363502485
72.09200000000001,0.08550460209585542,0.08550460209585542
72.093,0.0967353826683286,0.0967353826683286
72.09400000000001,0.08279939422701688,0.08279939422701688
72.09500000000001,0.052199465677390755,0.052199465677390755
72.096,0.014762417010991236,0.014762417010991236
72.09700000000001,0.02127991932584472,-0.02127991932584472
72.09800000000001,0.051038221039828136,-0.051038221039828136
72.099,0.07318946785151859,-0.07318946785151859
72.10000000000001,0.08889228563272966,-0.08889228563272966
72.10100000000001,0.10004338973929283,-0.10004338973929283
72.102,0.1076860250361833,-0.1076860250361833
72.10300000000001,0.11123213883256045,-0.11123213883256045
72.104,0.1087729920540439,-0.1087729920540439
72.105,0.09828150083655707,-0.09828150083655707
72.10600000000001,0.07913207966475033,-0.07913207966475033
72.107,0.053220024446481884,-0.053220024446481884
72.108,0.025105308636224843,-0.025105308636224843
72.10900000000001,0.0009827809996695303,-0.0009827809996695303
72.11,0.013246511853501897,0.013246511853501897
72.111,0.014136015931767387,0.014136015931767387
72.11200000000001,0.002259424696761325,0.002259424696761325
72.113,0.017501339278663153,-0.017501339278663153
72.114,0.03721561901358961,-0.03721561901358961
72.11500000000001,0.048432414305592864,-0.048432414305592864
72.116,0.045205089505670704,-0.045205089505670704
72.117,0.02658119506523904,-0.02658119506523904
72.11800000000001,0.002387834991674165,0.002387834991674165
72.119,0.031636071924932674,0.031636071924932674
72.12,0.0489464439106404,0.0489464439106404
72.12100000000001,0.043906504016061554,0.043906504016061554
72.122,0.011729636936698373,0.011729636936698373
72.123,0.04435303526871048,-0.04435303526871048
72.12400000000001,0.1130642926396982,-0.1130642926396982
72.125,0.17765082720602987,-0.17765082720602987
72.126,0.2204559231468045,-0.2204559231468045
72.12700000000001,0.22820189509143873,-0.22820189509143873
72.128,0.19636257350172925,-0.19636257350172925
72.129,0.13118007665009523,-0.13118007665009523
72.13000000000001,0.04852974093864826,-0.04852974093864826
72.131,0.030218435255981113,0.030218435255981113
72.132,0.08424030587702935,0.08424030587702935
72.13300000000001,0.09944091170726232,0.09944091170726232
72.134,0.07288440817463293,0.07288440817463293
72.135,0.014027117396046673,0.014027117396046673
72.13600000000001,0.05776298687764447,-0.05776298687764447
72.137,0.118788289132852,-0.118788289132852
72.138,0.14810990474614816,-0.14810990474614816
72.13900000000001,0.1340250584907604,-0.1340250584907604
72.14,0.07793533016068321,-0.07793533016068321
72.141,0.0056481163033721415,0.0056481163033721415
72.14200000000001,0.09306169767323458,0.09306169767323458
72.143,0.15829442327613208,0.15829442327613208
72.144,0.1806317639109687,0.1806317639109687
72.14500000000001,0.15084127204677178,0.15084127204677178
72.146,0.07402210503749518,0.07402210503749518
72.147,0.03175380008362816,-0.03175380008362816
72.14800000000001,0.14059791409762423,-0.14059791409762423
72.149,0.22618753691796478,-0.22618753691796478
72.15,0.26913194139488195,-0.26913194139488195
72.15100000000001,0.2621098384885786,-0.2621098384885786
72.152,0.21128715776670737,-0.21128715776670737
72.153,0.13370518090032024,-0.13370518090032024
72.15400000000001,0.05159033116074174,-0.05159033116074174
72.155,0.014526218509995692,0.014526218509995692
72.156,0.05167651406857643,0.05167651406857643
72.15700000000001,0.05751048276097426,0.05751048276097426
72.158,0.03971295970336142,0.03971295970336142
72.159,0.012180590661528212,0.012180590661528212
72.16000000000001,0.010584893922883198,-0.010584893922883198
72.161,0.018864957540945304,-0.018864957540945304
72.162,0.011035441688476033,-0.011035441688476033
72.16300000000001,0.006283710876822779,0.006283710876822779
72.164,0.02119138684233368,0.02119138684233368
72.165,0.021433195396677762,0.021433195396677762
72.16600000000001,0.0005378448067604458,-0.0005378448067604458
72.167,0.044233524248947664,-0.044233524248947664
72.168,0.10077295994305369,-0.10077295994305369
72.16900000000001,0.15566239435605844,-0.15566239435605844
72.17,0.1937424655767943,-0.1937424655767943
72.171,0.2045322474221054,-0.2045322474221054
72.17200000000001,0.18602304396299885,-0.18602304396299885
72.173,0.1454957223764486,-0.1454957223764486
72.174,0.09698091048576796,-0.09698091048576796
72.17500000000001,0.05619055258194827,-0.05619055258194827
72.176,0.034695276442669454,-0.034695276442669454
72.177,0.035460590323990626,-0.035460590323990626
72.17800000000001,0.051447170135581866,-0.051447170135581866
72.179,0.06794646984380615,-0.06794646984380615
72.18,0.06800639533636033,-0.06800639533636033
72.18100000000001,0.03915647251721732,-0.03915647251721732
72.182,0.020923522863093957,0.020923522863093957
72.183,0.10191256771097312,0.10191256771097312
72.18400000000001,0.18267006883362247,0.18267006883362247
72.185,0.23707804678077182,0.23707804678077182
72.186,0.2422149673338827,0.2422149673338827
72.18700000000001,0.1862828790856006,0.1862828790856006
72.188,0.0736468421824541,0.0736468421824541
72.18900000000001,0.07484001917683902,-0.07484001917683902
72.19000000000001,0.22660369209359843,-0.22660369209359843
72.191,0.34596353199413576,-0.34596353199413576
72.19200000000001,0.4040796778002731,-0.4040796778002731
72.19300000000001,0.38722688409122064,-0.38722688409122064
72.194,0.300844823567999,-0.300844823567999
72.19500000000001,0.16808664862388478,-0.16808664862388478
72.19600000000001,0.023273074697942486,-0.023273074697942486
72.197,0.09777883904207485,0.09777883904207485
72.19800000000001,0.16764225258258025,0.16764225258258025
72.19900000000001,0.17444804131791036,0.17444804131791036
72.2,0.12428824551004114,0.12428824551004114
72.20100000000001,0.03831718642427728,0.03831718642427728
72.20200000000001,0.05435443595092759,-0.05435443595092759
72.203,0.1256377039629264,-0.1256377039629264
72.20400000000001,0.15651702573121562,-0.15651702573121562
72.20500000000001,0.14180744800325373,-0.14180744800325373
72.206,0.09040343584751231,-0.09040343584751231
72.20700000000001,0.021279168831254358,-0.021279168831254358
72.20800000000001,0.04319336180177635,0.04319336180177635
72.209,0.08431668361362998,0.08431668361362998
72.21000000000001,0.0922964599370788,0.0922964599370788
72.21100000000001,0.06816661356837295,0.06816661356837295
72.212,0.022141417237446337,0.022141417237446337
72.21300000000001,0.030691787058150677,-0.030691787058150677
72.21400000000001,0.07564496666826359,-0.07564496666826359
72.215,0.1028290179661937,-0.1028290179661937
72.21600000000001,0.10933717148615874,-0.10933717148615874
72.21700000000001,0.09878059084861912,-0.09878059084861912
72.218,0.0787209921192411,-0.0787209921192411
72.21900000000001,0.057232776053087964,-0.057232776053087964
72.22000000000001,0.0399988628533432,-0.0399988628533432
72.221,0.0289749642673236,-0.0289749642673236
72.22200000000001,0.022922966829442837,-0.022922966829442837
72.22300000000001,0.019319615298360238,-0.019319615298360238
72.224,0.016604872361632772,-0.016604872361632772
72.22500000000001,0.015648645269470407,-0.015648645269470407
72.22600000000001,0.019704328878791255,-0.019704328878791255
72.227,0.032814486676552956,-0.032814486676552956
72.22800000000001,0.05734978818005698,-0.05734978818005698
72.229,0.09180189604246713,-0.09180189604246713
72.23,0.12992741343856573,-0.12992741343856573
72.23100000000001,0.16184841188596488,-0.16184841188596488
72.232,0.17693715801732557,-0.17693715801732557
72.233,0.16754953720529586,-0.16754953720529586
72.23400000000001,0.13222972102455055,-0.13222972102455055
72.235,0.07708101630820408,-0.07708101630820408
72.236,0.014586342019189291,-0.014586342019189291
72.23700000000001,0.03993072072061277,0.03993072072061277
72.238,0.07311528407496803,0.07311528407496803
72.239,0.07802369923086827,0.07802369923086827
72.24000000000001,0.056588629065543294,0.056588629065543294
72.241,0.019117840747145953,0.019117840747145953
72.242,0.019144403939499677,-0.019144403939499677
72.24300000000001,0.04330529209042411,-0.04330529209042411
72.244,0.04415667980428728,-0.04415667980428728
72.245,0.021652058123120654,-0.021652058123120654
72.24600000000001,0.01479171428411119,0.01479171428411119
72.247,0.049406554131770974,0.049406554131770974
72.248,0.06562816636291058,0.06562816636291058
72.24900000000001,0.0522120721863879,0.0522120721863879
72.25,0.007752649632240871,0.007752649632240871
72.251,0.05807368128497914,-0.05807368128497914
72.25200000000001,0.12712976272101661,-0.12712976272101661
72.253,0.1785560076180407,-0.1785560076180407
72.254,0.19575895805174237,-0.19575895805174237
72.25500000000001,0.1722800567200331,-0.1722800567200331
72.256,0.1144805511752438,-0.1144805511752438
72.257,0.040008341654752866,-0.040008341654752866
72.25800000000001,0.027573455756986442,0.027573455756986442
72.259,0.06629895769058458,0.06629895769058458
72.26,0.06299068202056057,0.06299068202056057
72.26100000000001,0.017726977172660918,0.017726977172660918
72.262,0.055940534394848584,-0.055940534394848584
72.263,0.13514288210503045,-0.13514288210503045
72.26400000000001,0.19489037924032349,-0.19489037924032349
72.265,0.21596301776609395,-0.21596301776609395
72.266,0.19092080800973243,-0.19092080800973243
72.26700000000001,0.12629732577153108,-0.12629732577153108
72.268,0.04032149032666632,-0.04032149032666632
72.269,0.04300016192330447,0.04300016192330447
72.27000000000001,0.10142263499204396,0.10142263499204396
72.271,0.12111982933453702,0.12111982933453702
72.272,0.10032654221321424,0.10032654221321424
72.27300000000001,0.048913895190994205,0.048913895190994205
72.274,0.01574427182320437,-0.01574427182320437
72.275,0.07501444545775782,-0.07501444545775782
72.27600000000001,0.1151075176891051,-0.1151075176891051
72.277,0.13095134140808973,-0.13095134140808973
72.278,0.12662452676897096,-0.12662452676897096
72.27900000000001,0.11242759366193278,-0.11242759366193278
72.28,0.09988202695469472,-0.09988202695469472
72.281,0.09665860939033011,-0.09665860939033011
72.28200000000001,0.10339611416402938,-0.10339611416402938
72.283,0.11360660612430717,-0.11360660612430717
72.284,0.11666317969274875,-0.11666317969274875
72.28500000000001,0.1026754604540393,-0.1026754604540393
72.286,0.06731792613936438,-0.06731792613936438
72.287,0.01466157173698679,-0.01466157173698679
72.28800000000001,0.043218816894451395,0.043218816894451395
72.289,0.08989070341004068,0.08989070341004068
72.29,0.1102525532872749,0.1102525532872749
72.29100000000001,0.09623106935787185,0.09623106935787185
72.292,0.050356605063431426,0.050356605063431426
72.293,0.014229668924525596,-0.014229668924525596
72.29400000000001,0.0775484067027602,-0.0775484067027602
72.295,0.1191921102846295,-0.1191921102846295
72.296,0.12523990588976464,-0.12523990588976464
72.29700000000001,0.0932804485321943,-0.0932804485321943
72.298,0.03371996887101347,-0.03371996887101347
72.299,0.033218663084848776,0.033218663084848776
72.30000000000001,0.08393167654615508,0.08393167654615508
72.301,0.09922902507145581,0.09922902507145581
72.302,0.07089720972813218,0.07089720972813218
72.30300000000001,0.004799475338260972,0.004799475338260972
72.304,0.08059478015917065,-0.08059478015917065
72.305,0.15984848148375985,-0.15984848148375985
72.30600000000001,0.20856998679216354,-0.20856998679216354
72.307,0.21120743822345223,-0.21120743822345223
72.308,0.1660905540211436,-0.1660905540211436
72.30900000000001,0.08608393231892786,-0.08608393231892786
72.31,0.005351300481400534,0.005351300481400534
72.311,0.08140304898417083,0.08140304898417083
72.31200000000001,0.1201266200721407,0.1201266200721407
72.313,0.11102813111292997,0.11102813111292997
72.31400000000001,0.05798251201084903,0.05798251201084903
72.31500000000001,0.022326129405017547,-0.022326129405017547
72.316,0.10581137222437031,-0.10581137222437031
72.31700000000001,0.16841895534765094,-0.16841895534765094
72.31800000000001,0.19321089631395982,-0.19321089631395982
72.319,0.17494826571671052,-0.17494826571671052
72.32000000000001,0.12092248519343884,-0.12092248519343884
72.32100000000001,0.04803130449625925,-0.04803130449625925
72.322,0.022737806096670532,0.022737806096670532
72.32300000000001,0.07254133521234651,0.07254133521234651
72.32400000000001,0.08969595190624458,0.08969595190624458
72.325,0.07210615065136627,0.07210615065136627
72.32600000000001,0.026680839386581612,0.026680839386581612
72.32700000000001,0.033697867277514226,-0.033697867277514226
72.328,0.09439899768764848,-0.09439899768764848
72.32900000000001,0.1430097724332443,-0.1430097724332443
72.33000000000001,0.17190567397149714,-0.17190567397149714
72.331,0.17893356842164465,-0.17893356842164465
72.33200000000001,0.16643547443528006,-0.16643547443528006
72.33300000000001,0.13935879765473125,-0.13935879765473125
72.334,0.10335282483720887,-0.10335282483720887
72.33500000000001,0.06353174376260928,-0.06353174376260928
72.33600000000001,0.024128639335436963,-0.024128639335436963
72.337,0.011208478250270382,0.011208478250270382
72.33800000000001,0.03901144718469696,0.03901144718469696
72.33900000000001,0.0559931379662284,0.0559931379662284
72.34,0.05967813061686944,0.05967813061686944
72.34100000000001,0.04946600455867989,0.04946600455867989
72.34200000000001,0.027587519275291683,0.027587519275291683
72.343,0.0006788405106635809,-0.0006788405106635809
72.34400000000001,0.027939447717559074,-0.027939447717559074
72.34500000000001,0.04671103600230686,-0.04671103600230686
72.346,0.051961395237372754,-0.051961395237372754
72.34700000000001,0.04323730208980736,-0.04323730208980736
72.34800000000001,0.0254469661953588,-0.0254469661953588
72.349,0.007750077509129927,-0.007750077509129927
72.35000000000001,0.0006729784701388075,-0.0006729784701388075
72.35100000000001,0.012273998876971892,-0.012273998876971892
72.352,0.04465984763974451,-0.04465984763974451
72.35300000000001,0.0921891801760043,-0.0921891801760043
72.354,0.14223663807284992,-0.14223663807284992
72.355,0.17855670997479056,-0.17855670997479056
72.35600000000001,0.18635763135101513,-0.18635763135101513
72.357,0.15750282974303464,-0.15750282974303464
72.358,0.09406922925753014,-0.09406922925753014
72.35900000000001,0.008910775731269749,-0.008910775731269749
72.36,0.0772070743777793,0.0772070743777793
72.361,0.14121239670035224,0.14121239670035224
72.36200000000001,0.16443083996984353,0.16443083996984353
72.363,0.13830520412827485,0.13830520412827485
72.364,0.06728393677044009,0.06728393677044009
72.36500000000001,0.032109173493882426,-0.032109173493882426
72.366,0.13580446237321742,-0.13580446237321742
72.367,0.21893911691851775,-0.21893911691851775
72.36800000000001,0.26274163586014876,-0.26274163586014876
72.369,0.25942585943443175,-0.25942585943443175
72.37,0.21363961104363727,-0.21363961104363727
72.37100000000001,0.14015274134965072,-0.14015274134965072
72.372,0.058694643592259066,-0.058694643592259066
72.373,0.01225320006894326,0.01225320006894326
72.37400000000001,0.06063807845469005,0.06063807845469005
72.375,0.08336243097973317,0.08336243097973317
72.376,0.08551475103008666,0.08551475103008666
72.37700000000001,0.07684038546821115,0.07684038546821115
72.378,0.06693757857406335,0.06693757857406335
72.379,0.06105647324493568,0.06105647324493568
72.38000000000001,0.05808351297635683,0.05808351297635683
72.381,0.051426991210474116,0.051426991210474116
72.382,0.032401341925854865,0.032401341925854865
72.38300000000001,0.005253010357429866,-0.005253010357429866
72.384,0.061529662592519796,-0.061529662592519796
72.385,0.12858778576751106,-0.12858778576751106
72.38600000000001,0.1922240430782488,-0.1922240430782488
72.387,0.23602633703020104,-0.23602633703020104
72.388,0.24682673339476224,-0.24682673339476224
72.38900000000001,0.2195253528285016,-0.2195253528285016
72.39,0.15949795818190637,-0.15949795818190637
72.391,0.08159176398847501,-0.08159176398847501
72.39200000000001,0.005887410331922971,-0.005887410331922971
72.393,0.04844969597740456,0.04844969597740456
72.394,0.06919493501906593,0.06919493501906593
72.39500000000001,0.05491688956375396,0.05491688956375396
72.396,0.015303783736261511,0.015303783736261511
72.397,0.03220868259552423,-0.03220868259552423
72.39800000000001,0.068419605597976,-0.068419605597976
72.399,0.07895979554054422,-0.07895979554054422
72.4,0.05927211064370541,-0.05927211064370541
72.40100000000001,0.016267635363250044,-0.016267635363250044
72.402,0.033939161787507555,0.033939161787507555
72.403,0.07149017253172407,0.07149017253172407
72.40400000000001,0.07962592115142075,0.07962592115142075
72.405,0.05061797293557313,0.05061797293557313
72.406,0.011210922133140455,-0.011210922133140455
72.40700000000001,0.09041875388809428,-0.09041875388809428
72.408,0.1650573713779765,-0.1650573713779765
72.409,0.21347754444862166,-0.21347754444862166
72.41000000000001,0.22111704020318257,-0.22111704020318257
72.411,0.1850774119463614,-0.1850774119463614
72.412,0.115031518054726,-0.115031518054726
72.41300000000001,0.030208607697198464,-0.030208607697198464
72.414,0.04652792380471893,0.04652792380471893
72.415,0.09558183556844413,0.09558183556844413
72.41600000000001,0.1063098991035385,0.1063098991035385
72.417,0.07974922024536957,0.07974922024536957
72.418,0.027643597763567396,0.027643597763567396
72.41900000000001,0.03176814731517186,-0.03176814731517186
72.42,0.07972948717939898,-0.07972948717939898
72.421,0.10274468436316686,-0.10274468436316686
72.42200000000001,0.09635755278829616,-0.09635755278829616
72.423,0.06586496968334088,-0.06586496968334088
72.424,0.023938354166320286,-0.023938354166320286
72.42500000000001,0.013887106376098579,0.013887106376098579
72.426,0.03428092189764076,0.03428092189764076
72.427,0.03010459021880174,0.03010459021880174
72.42800000000001,0.0021503919026981677,0.0021503919026981677
72.429,0.04172038715011328,-0.04172038715011328
72.43,0.08952737912481867,-0.08952737912481867
72.43100000000001,0.12907375232951546,-0.12907375232951546
72.432,0.15147289529076868,-0.15147289529076868
72.433,0.15323557665031762,-0.15323557665031762
72.43400000000001,0.13644679594773357,-0.13644679594773357
72.435,0.10724921379579255,-0.10724921379579255
72.436,0.07338594322830805,-0.07338594322830805
72.43700000000001,0.041767124028662006,-0.041767124028662006
72.438,0.01686975519502376,-0.01686975519502376
72.43900000000001,0.000352302801320592,-0.000352302801320592
72.44000000000001,0.008249645712609333,0.008249645712609333
72.441,0.01027985675730303,0.01027985675730303
72.44200000000001,0.006843312015989422,0.006843312015989422
72.44300000000001,0.0016660434528279477,-0.0016660434528279477
72.444,0.015233433551326003,-0.015233433551326003
72.44500000000001,0.03333854319491314,-0.03333854319491314
72.44600000000001,0.054051326471904027,-0.054051326471904027
72.447,0.07367837395792776,-0.07367837395792776
72.44800000000001,0.08730538848182534,-0.08730538848182534
72.44900000000001,0.09018699698554333,-0.09018699698554333
72.45,0.07953278225502514,-0.07953278225502514
72.45100000000001,0.05599647277200348,-0.05599647277200348
72.45200000000001,0.024202300186116354,-0.024202300186116354
72.453,0.008056232669600316,0.008056232669600316
72.45400000000001,0.031837162817006215,0.031837162817006215
72.45500000000001,0.03971168288958604,0.03971168288958604
72.456,0.028199073083363002,0.028199073083363002
72.45700000000001,0.0008806450311161784,-0.0008806450311161784
72.45800000000001,0.04066857133304769,-0.04066857133304769
72.459,0.0811445859280071,-0.0811445859280071
72.46000000000001,0.11206682175641203,-0.11206682175641203
72.46100000000001,0.1260370655420714,-0.1260370655420714
72.462,0.12068824191091976,-0.12068824191091976
72.46300000000001,0.09926778893460442,-0.09926778893460442
72.46400000000001,0.06942350171398559,-0.06942350171398559
72.465,0.04060412565597615,-0.04060412565597615
72.46600000000001,0.020955394095192204,-0.020955394095192204
72.46700000000001,0.014759257881298393,-0.014759257881298393
72.468,0.021270190712501247,-0.021270190712501247
72.46900000000001,0.03531426109375668,-0.03531426109375668
72.47000000000001,0.049403973102395526,-0.049403973102395526
72.471,0.05659835111882394,-0.05659835111882394
72.47200000000001,0.05308588845042139,-0.05308588845042139
72.47300000000001,0.03957510574818901,-0.03957510574818901
72.474,0.021005119134374972,-0.021005119134374972
72.47500000000001,0.004686220084431314,-0.004686220084431314
72.47600000000001,0.0024617509267146342,0.0024617509267146342
72.477,0.0034170756805357305,-0.0034170756805357305
72.47800000000001,0.02149397053367741,-0.02149397053367741
72.479,0.04628801880655231,-0.04628801880655231
72.48,0.06937516175840364,-0.06937516175840364
72.48100000000001,0.08220965965115501,-0.08220965965115501
72.482,0.07909891335378683,-0.07909891335378683
72.483,0.05930747904984768,-0.05930747904984768
72.48400000000001,0.027553244405289168,-0.027553244405289168
72.485,0.007300800497940463,0.007300800497940463
72.486,0.034947341879625116,0.034947341879625116
72.48700000000001,0.04684729691946843,0.04684729691946843
72.488,0.03890222793381359,0.03890222793381359
72.489,0.012716876594810467,0.012716876594810467
72.49000000000001,0.024947247173118137,-0.024947247173118137
72.491,0.06432854915080133,-0.06432854915080133
72.492,0.09571056736073846,-0.09571056736073846
72.49300000000001,0.11235861740359909,-0.11235861740359909
72.494,0.11240957668168372,-0.11240957668168372
72.495,0.09914219775692668,-0.09914219775692668
72.49600000000001,0.07959876917860842,-0.07959876917860842
72.497,0.06206530564585311,-0.06206530564585311
72.498,0.05326988541583155,-0.05326988541583155
72.49900000000001,0.05621738496434425,-0.05621738496434425
72.5,0.06933531817971839,-0.06933531817971839
72.501,0.08715199248867744,-0.08715199248867744
72.50200000000001,0.10222277154159298,-0.10222277154159298
72.503,0.1076311115668056,-0.1076311115668056
72.504,0.09923995072444658,-0.09923995072444658
72.50500000000001,0.07699274064780337,-0.07699274064780337
72.506,0.04490574348606746,-0.04490574348606746
72.507,0.009828918872176295,-0.009828918872176295
72.50800000000001,0.020566566270107778,0.020566566270107778
72.509,0.03991066731541015,0.03991066731541015
72.51,0.0447262009645264,0.0447262009645264
72.51100000000001,0.035074445352430095,0.035074445352430095
72.512,0.014173577780023372,0.014173577780023372
72.513,0.012767861555045501,-0.012767861555045501
72.51400000000001,0.040054264758622504,-0.040054264758622504
72.515,0.06286129854123157,-0.06286129854123157
72.516,0.07809646849956386,-0.07809646849956386
72.51700000000001,0.08463424043681644,-0.08463424043681644
72.518,0.08302639953888513,-0.08302639953888513
72.519,0.07493641923883476,-0.07493641923883476
72.52000000000001,0.06257094601331503,-0.06257094601331503
72.521,0.04829157211026791,-0.04829157211026791
72.522,0.03444021500306005,-0.03444021500306005
72.52300000000001,0.023275762367200636,-0.023275762367200636
72.524,0.016860455519870032,-0.016860455519870032
72.525,0.01677672168752442,-0.01677672168752442
72.52600000000001,0.023676901050584287,-0.023676901050584287
72.527,0.03681061318350731,-0.03681061318350731
72.528,0.053766528628818366,-0.053766528628818366
72.52900000000001,0.07065457166311928,-0.07065457166311928
72.53,0.08283030021764182,-0.08283030021764182
72.531,0.08606331884962515,-0.08606331884962515
72.53200000000001,0.07785023790174461,-0.07785023790174461
72.533,0.05845267488671546,-0.05845267488671546
72.534,0.031261063861888094,-0.031261063861888094
72.53500000000001,0.002255846572292275,-0.002255846572292275
72.536,0.021387021523656236,0.021387021523656236
72.537,0.03320827331168941,0.03320827331168941
72.53800000000001,0.029352236225650863,0.029352236225650863
72.539,0.00984474304475258,0.00984474304475258
72.54,0.021172432407674635,-0.021172432407674635
72.54100000000001,0.05638470281035313,-0.05638470281035313
72.542,0.08720012572301727,-0.08720012572301727
72.543,0.106069483499731,-0.106069483499731
72.54400000000001,0.1085580136307478,-0.1085580136307478
72.545,0.09455834803936447,-0.09455834803936447
72.546,0.06828751021602864,-0.06828751021602864
72.54700000000001,0.037075314618380095,-0.037075314618380095
72.548,0.009311447705262044,-0.009311447705262044
72.549,0.007839594164482877,0.007839594164482877
72.55000000000001,0.010296426718318763,0.010296426718318763
72.551,0.002015642596609246,-0.002015642596609246
72.552,0.02538320284154061,-0.02538320284154061
72.55300000000001,0.0535268621013546,-0.0535268621013546
72.554,0.07940567926429731,-0.07940567926429731
72.555,0.09704863495302696,-0.09704863495302696
72.55600000000001,0.10290405047665563,-0.10290405047665563
72.557,0.09639526619674632,-0.09639526619674632
72.558,0.07964309802374248,-0.07964309802374248
72.55900000000001,0.05656750096559249,-0.05656750096559249
72.56,0.03173224886064818,-0.03173224886064818
72.561,0.009308373140376247,-0.009308373140376247
72.56200000000001,0.007582590351012053,0.007582590351012053
72.563,0.01706973643920695,0.01706973643920695
72.56400000000001,0.018382305374810226,0.018382305374810226
72.56500000000001,0.011559188246167196,0.011559188246167196
72.566,0.0027680839010280067,-0.0027680839010280067
72.56700000000001,0.023399130187400252,-0.023399130187400252
72.56800000000001,0.048417627065556634,-0.048417627065556634
72.569,0.07502162824392355,-0.07502162824392355
72.57000000000001,0.09953366166757693,-0.09953366166757693
72.57100000000001,0.11774964272165045,-0.11774964272165045
72.572,0.12565915280435924,-0.12565915280435924
72.57300000000001,0.12040806587750397,-0.12040806587750397
72.57400000000001,0.10124119865477177,-0.10124119865477177
72.575,0.0701121065076622,-0.0701121065076622
72.57600000000001,0.03170451714068634,-0.03170451714068634
72.57700000000001,0.00723834629929665,0.00723834629929665
72.578,0.03918149695589346,0.03918149695589346
72.57900000000001,0.05738623658769426,0.05738623658769426
72.58000000000001,0.05743569638273094,0.05743569638273094
72.581,0.03831748600434293,0.03831748600434293
72.58200000000001,0.0027915051288318615,0.0027915051288318615
72.58300000000001,0.04304997255711274,-0.04304997255711274
72.584,0.09092754483169019,-0.09092754483169019
72.58500000000001,0.13196565025654383,-0.13196565025654383
72.58600000000001,0.15838758140320908,-0.15838758140320908
72.587,0.16497642659703693,-0.16497642659703693
72.58800000000001,0.15003809539225377,-0.15003809539225377
72.58900000000001,0.11571698165814037,-0.11571698165814037
72.59,0.06763665694578935,-0.06763665694578935
72.59100000000001,0.01394380347991453,-0.01394380347991453
72.59200000000001,0.0360861130922181,0.0360861130922181
72.593,0.07366665731114908,0.07366665731114908
72.59400000000001,0.0920902373286514,0.0920902373286514
72.59500000000001,0.088022156823514,0.088022156823514
72.596,0.06224508683395902,0.06224508683395902
72.59700000000001,0.019659265114887692,0.019659265114887692
72.59800000000001,0.031541674380247464,-0.031541674380247464
72.599,0.08143511351984256,-0.08143511351984256
72.60000000000001,0.1204049658755707,-0.1204049658755707
72.60100000000001,0.14122261537123126,-0.14122261537123126
72.602,0.14067581665326512,-0.14067581665326512
72.60300000000001,0.12030386429814932,-0.12030386429814932
72.604,0.08598961458628551,-0.08598961458628551
72.605,0.0464515083336946,-0.0464515083336946
72.60600000000001,0.010994218475020912,-0.010994218475020912
72.607,0.012883054890819867,0.012883054890819867
72.608,0.02134313882879657,0.02134313882879657
72.60900000000001,0.014981462880111707,0.014981462880111707
72.61,0.0017297081442008144,-0.0017297081442008144
72.611,0.02215567612564051,-0.02215567612564051
72.61200000000001,0.03982684511660106,-0.03982684511660106
72.613,0.0506153948175877,-0.0506153948175877
72.614,0.05402301948058552,-0.05402301948058552
72.61500000000001,0.05311957473056472,-0.05311957473056472
72.616,0.05312334204713176,-0.05312334204713176
72.617,0.05909265499110394,-0.05909265499110394
72.61800000000001,0.07354108775609836,-0.07354108775609836
72.619,0.09486587747132169,-0.09486587747132169
72.62,0.11724721999386323,-0.11724721999386323
72.62100000000001,0.13219523344704331,-0.13219523344704331
72.622,0.13134337062978974,-0.13134337062978974
72.623,0.10960739161595345,-0.10960739161595345
72.62400000000001,0.06762165451355484,-0.06762165451355484
72.625,0.012520041286684935,-0.012520041286684935
72.626,0.04338188714903368,0.04338188714903368
72.62700000000001,0.08576976710786632,0.08576976710786632
72.628,0.10249841917590174,0.10249841917590174
72.629,0.08747052390729415,0.08747052390729415
72.63000000000001,0.04295610017385276,0.04295610017385276
72.631,0.02049314573801808,-0.02049314573801808
72.632,0.08665641749431918,-0.08665641749431918
72.63300000000001,0.13810553707198947,-0.13810553707198947
72.634,0.1612214940337091,-0.1612214940337091
72.635,0.1502460381758336,-0.1502460381758336
72.63600000000001,0.10909983189825445,-0.10909983189825445
72.637,0.050359159292307054,-0.050359159292307054
72.638,0.008349766033130868,0.008349766033130868
72.63900000000001,0.04947977226515654,0.04947977226515654
72.64,0.06067856053842324,0.06067856053842324
72.641,0.03835464099002017,0.03835464099002017
72.64200000000001,0.011365308446363187,-0.011365308446363187
72.643,0.07454209297584025,-0.07454209297584025
72.644,0.13357286227346732,-0.13357286227346732
72.64500000000001,0.1722954938210558,-0.1722954938210558
72.646,0.18050578888395707,-0.18050578888395707
72.647,0.1565732952552883,-0.1565732952552883
72.64800000000001,0.10746803928392179,-0.10746803928392179
72.649,0.046324356603518746,-0.046324356603518746
72.65,0.011594241158878305,0.011594241158878305
72.65100000000001,0.05323286430916441,0.05323286430916441
72.652,0.07108378236748902,0.07108378236748902
72.653,0.06462303320530949,0.06462303320530949
72.65400000000001,0.03959504565371219,0.03959504565371219
72.655,0.005576113084106549,0.005576113084106549
72.656,0.02726364270762227,-0.02726364270762227
72.65700000000001,0.05112629094027876,-0.05112629094027876
72.658,0.062409900753024994,-0.062409900753024994
72.659,0.061982566959191465,-0.061982566959191465
72.66000000000001,0.05404413442872369,-0.05404413442872369
72.661,0.04415075181503092,-0.04415075181503092
72.662,0.03717108497034116,-0.03717108497034116
72.66300000000001,0.035852844834980635,-0.035852844834980635
72.664,0.040367254938902586,-0.040367254938902586
72.665,0.048802368588883205,-0.048802368588883205
72.66600000000001,0.05824638744116695,-0.05824638744116695
72.667,0.06595218465805042,-0.06595218465805042
72.668,0.07013852411915322,-0.07013852411915322
72.66900000000001,0.07021130885426607,-0.07021130885426607
72.67,0.0664698584882043,-0.0664698584882043
72.671,0.059577166786472735,-0.059577166786472735
72.67200000000001,0.05013520430028362,-0.05013520430028362
72.673,0.03860188645286622,-0.03860188645286622
72.674,0.02557278975107402,-0.02557278975107402
72.67500000000001,0.01223108397644268,-0.01223108397644268
72.676,0.0006473175555578026,-0.0006473175555578026
72.677,0.006353091159529978,0.006353091159529978
72.67800000000001,0.005852020020847171,0.005852020020847171
72.679,0.004129128961358974,-0.004129128961358974
72.68,0.023603419697547312,-0.023603419697547312
72.68100000000001,0.050049468684474574,-0.050049468684474574
72.682,0.07863563862698586,-0.07863563862698586
72.683,0.10329901239323513,-0.10329901239323513
72.68400000000001,0.11840648778749119,-0.11840648778749119
72.685,0.12046324132429631,-0.12046324132429631
72.686,0.10925704380468748,-0.10925704380468748
72.68700000000001,0.0879824188056959,-0.0879824188056959
72.688,0.06223410140286534,-0.06223410140286534
72.68900000000001,0.03817414015310461,-0.03817414015310461
72.69000000000001,0.020505058083016392,-0.020505058083016392
72.691,0.010989753274316616,-0.010989753274316616
72.69200000000001,0.00809072724505533,-0.00809072724505533
72.69300000000001,0.007903253777830743,-0.007903253777830743
72.694,0.006067087564139206,-0.006067087564139206
72.69500000000001,5.887819635619351e-05,5.887819635619351e-05
72.69600000000001,0.009825877027748176,0.009825877027748176
72.697,0.019023210432262738,0.019023210432262738
72.69800000000001,0.021147418854190247,0.021147418854190247
72.69900000000001,0.009874747318185495,0.009874747318185495
72.7,0.018100036148577026,-0.018100036148577026
72.70100000000001,0.06092001145918047,-0.06092001145918047
72.70200000000001,0.11102586337959874,-0.11102586337959874
72.703,0.15662509932287805,-0.15662509932287805
72.70400000000001,0.18488458551762443,-0.18488458551762443
72.70500000000001,0.18591546922181235,-0.18591546922181235
72.706,0.15625678520493758,-0.15625678520493758
72.70700000000001,0.10063040683125724,-0.10063040683125724
72.70800000000001,0.03123820495498908,-0.03123820495498908
72.709,0.03534711783272915,0.03534711783272915
72.71000000000001,0.0828385864103196,0.0828385864103196
72.71100000000001,0.10002194316875102,0.10002194316875102
72.712,0.0841488375799122,0.0841488375799122
72.71300000000001,0.0418092516690709,0.0418092516690709
72.71400000000001,0.013059068384565942,-0.013059068384565942
72.715,0.06344664658905119,-0.06344664658905119
72.71600000000001,0.09450605074199758,-0.09450605074199758
72.71700000000001,0.09808874024493686,-0.09808874024493686
72.718,0.07514204905973743,-0.07514204905973743
72.71900000000001,0.035209564134558446,-0.035209564134558446
72.72000000000001,0.006785256499419523,0.006785256499419523
72.721,0.035414849127032966,0.035414849127032966
72.72200000000001,0.03969742119802233,0.03969742119802233
72.72300000000001,0.016530940043161912,0.016530940043161912
72.724,0.02846234932622116,-0.02846234932622116
72.72500000000001,0.08289318345939756,-0.08289318345939756
72.72600000000001,0.13166049070378072,-0.13166049070378072
72.727,0.16173463258534782,-0.16173463258534782
72.72800000000001,0.16609942407871792,-0.16609942407871792
72.729,0.14560767368893168,-0.14560767368893168
72.73,0.108232108262308,-0.108232108262308
72.73100000000001,0.06607064059986356,-0.06607064059986356
72.732,0.03119420930270944,-0.03119420930270944
72.733,0.011766363532650481,-0.011766363532650481
72.73400000000001,0.009713477809947912,-0.009713477809947912
72.735,0.02064925394300554,-0.02064925394300554
72.736,0.0359655097751822,-0.0359655097751822
72.73700000000001,0.0462689317213244,-0.0462689317213244
72.738,0.044917442027618604,-0.044917442027618604
72.739,0.030424698796030047,-0.030424698796030047
72.74000000000001,0.006936616973110876,-0.006936616973110876
72.741,0.017323819888561243,0.017323819888561243
72.742,0.03304366374723222,0.03304366374723222
72.74300000000001,0.033165676753401874,0.033165676753401874
72.744,0.015429391889283162,0.015429391889283162
72.745,0.016745066055640967,-0.016745066055640967
72.74600000000001,0.05529311074600973,-0.05529311074600973
72.747,0.09006714030214147,-0.09006714030214147
72.748,0.112030273410901,-0.112030273410901
72.74900000000001,0.11601241117890604,-0.11601241117890604
72.75,0.10214871797841185,-0.10214871797841185
72.751,0.07559590245614012,-0.07559590245614012
72.75200000000001,0.04470723424610823,-0.04470723424610823
72.753,0.018339641679441132,-0.018339641679441132
72.754,0.0032050659458414676,-0.0032050659458414676
72.75500000000001,0.0020989006692360146,-0.0020989006692360146
72.756,0.013488813643624753,-0.013488813643624753
72.757,0.03246474206163996,-0.03246474206163996
72.75800000000001,0.05260866741454717,-0.05260866741454717
72.759,0.0680877178848226,-0.0680877178848226
72.76,0.07527716966406417,-0.07527716966406417
72.76100000000001,0.07345669104464414,-0.07345669104464414
72.762,0.06448968736962568,-0.06448968736962568
72.763,0.051751118590788736,-0.051751118590788736
72.76400000000001,0.038789328671639756,-0.038789328671639756
72.765,0.028227783733419498,-0.028227783733419498
72.766,0.021247224703665468,-0.021247224703665468
72.76700000000001,0.01771874179834587,-0.01771874179834587
72.768,0.016796473345133345,-0.016796473345133345
72.769,0.01762470559545637,-0.01762470559545637
72.77000000000001,0.0198178293020147,-0.0198178293020147
72.771,0.023517129236641288,-0.023517129236641288
72.772,0.02904494389730683,-0.02904494389730683
72.77300000000001,0.036369553545023914,-0.036369553545023914
72.774,0.04468319712204516,-0.04468319712204516
72.775,0.05234671132390778,-0.05234671132390778
72.77600000000001,0.05729095428174402,-0.05729095428174402
72.777,0.05775736532114428,-0.05775736532114428
72.778,0.053094910365517056,-0.053094910365517056
72.77900000000001,0.04427757179799352,-0.04427757179799352
72.78,0.033889618192420756,-0.033889618192420756
72.781,0.02551513147918527,-0.02551513147918527
72.78200000000001,0.022691784646623914,-0.022691784646623914
72.783,0.027761165418840328,-0.027761165418840328
72.784,0.04100299330998458,-0.04100299330998458
72.78500000000001,0.06035677330463607,-0.06035677330463607
72.786,0.08184213490028514,-0.08184213490028514
72.787,0.10055830789270648,-0.10055830789270648
72.78800000000001,0.11195648661568502,-0.11195648661568502
72.789,0.11300046409889686,-0.11300046409889686
72.79,0.10288366962820195,-0.10288366962820195
72.79100000000001,0.08312929875218422,-0.08312929875218422
72.792,0.05710280734225781,-0.05710280734225781
72.793,0.02913923223124537,-0.02913923223124537
72.79400000000001,0.0035744811040857583,-0.0035744811040857583
72.795,0.016050708805379843,0.016050708805379843
72.796,0.02745207787382653,0.02745207787382653
72.79700000000001,0.029708049244101753,0.029708049244101753
72.798,0.023108365374387985,0.023108365374387985
72.799,0.008894312193603593,0.008894312193603593
72.80000000000001,0.01098509128965941,-0.01098509128965941
72.801,0.03405379609660164,-0.03405379609660164
72.802,0.05746356628024485,-0.05746356628024485
72.80300000000001,0.0782064028668531,-0.0782064028668531
72.804,0.09345127177831447,-0.09345127177831447
72.805,0.10099932326886218,-0.10099932326886218
72.80600000000001,0.09975924730544294,-0.09975924730544294
72.807,0.09008029297312325,-0.09008029297312325
72.808,0.0737835986574068,-0.0737835986574068
72.80900000000001,0.053813193738472154,-0.053813193738472154
72.81,0.03356122117247351,-0.03356122117247351
72.811,0.01605533724454611,-0.01605533724454611
72.81200000000001,0.0032713715978961444,-0.0032713715978961444
72.813,0.004188406693148572,0.004188406693148572
72.81400000000001,0.006933420003564228,0.006933420003564228
72.81500000000001,0.00620293025187757,0.00620293025187757
72.816,0.0030994768724235122,0.0030994768724235122
72.81700000000001,0.0020372013752798512,-0.0020372013752798512
72.81800000000001,0.009827143253345993,-0.009827143253345993
72.819,0.021489464323490748,-0.021489464323490748
72.82000000000001,0.03802512124852053,-0.03802512124852053
72.82100000000001,0.059256516118305846,-0.059256516118305846
72.822,0.08314371744909355,-0.08314371744909355
72.82300000000001,0.1057433533673996,-0.1057433533673996
72.82400000000001,0.12196666905112474,-0.12196666905112474
72.825,0.12699407674775776,-0.12699407674775776
72.82600000000001,0.11792240472797699,-0.11792240472797699
72.82700000000001,0.09506881415600477,-0.09506881415600477
72.828,0.06240372563351382,-0.06240372563351382
72.82900000000001,0.026836181944447923,-0.026836181944447923
72.83000000000001,0.0035449655618278175,0.0035449655618278175
72.831,0.02178978281477506,0.02178978281477506
72.83200000000001,0.024238419433812997,0.024238419433812997
72.83300000000001,0.011770647949688406,0.011770647949688406
72.834,0.010329779062445255,-0.010329779062445255
72.83500000000001,0.03394225361185965,-0.03394225361185965
72.83600000000001,0.050671559569700375,-0.050671559569700375
72.837,0.054606562329346686,-0.054606562329346686
72.83800000000001,0.04436717753379982,-0.04436717753379982
72.83900000000001,0.02372562078251572,-0.02372562078251572
72.84,0.0005333506009075339,-0.0005333506009075339
72.84100000000001,0.015759746656081042,0.015759746656081042
72.84200000000001,0.017227202724685364,0.017227202724685364
72.843,0.0002221768938037716,0.0002221768938037716
72.84400000000001,0.03315008668925179,-0.03315008668925179
72.84500000000001,0.07536573922238043,-0.07536573922238043
72.846,0.11556628773285038,-0.11556628773285038
72.84700000000001,0.14276746103180538,-0.14276746103180538
72.84800000000001,0.14919415228346666,-0.14919415228346666
72.849,0.13269143123732885,-0.13269143123732885
72.85000000000001,0.0974508249040208,-0.0974508249040208
72.85100000000001,0.0528256129500847,-0.0528256129500847
72.852,0.01061256920288045,-0.01061256920288045
72.85300000000001,0.018347261888380872,0.018347261888380872
72.854,0.027202091773524728,0.027202091773524728
72.855,0.01485449371788583,0.01485449371788583
72.85600000000001,0.01401869175369641,-0.01401869175369641
72.857,0.050608052501006195,-0.050608052501006195
72.858,0.08468360425195831,-0.08468360425195831
72.85900000000001,0.10749331491231706,-0.10749331491231706
72.86,0.11397119950547963,-0.11397119950547963
72.861,0.1036645286221427,-0.1036645286221427
72.86200000000001,0.08024370220013999,-0.08024370220013999
72.863,0.049917785611429455,-0.049917785611429455
72.864,0.019389682927450025,-0.019389682927450025
72.86500000000001,0.005945626325623676,0.005945626325623676
72.866,0.023031700294641633,0.023031700294641633
72.867,0.031219666198600837,0.031219666198600837
72.86800000000001,0.031551259724229785,0.031551259724229785
72.869,0.02569140541016579,0.02569140541016579
72.87,0.015013453033854374,0.015013453033854374
72.87100000000001,0.0002060994501167368,0.0002060994501167368
72.872,0.01849778496733956,-0.01849778496733956
72.873,0.04065940868297879,-0.04065940868297879
72.87400000000001,0.0649215558714078,-0.0649215558714078
72.875,0.0886505480534624,-0.0886505480534624
72.876,0.1081859588356957,-0.1081859588356957
72.87700000000001,0.11968876288489394,-0.11968876288489394
72.878,0.12031242618875626,-0.12031242618875626
72.879,0.10925947553799764,-0.10925947553799764
72.88000000000001,0.08829506795683228,-0.08829506795683228
72.881,0.061469227108302604,-0.061469227108302604
72.882,0.03408446814734378,-0.03408446814734378
72.88300000000001,0.011228090141971347,-0.011228090141971347
72.884,0.003639297339875336,0.003639297339875336
72.885,0.00955278041293428,0.00955278041293428
72.88600000000001,0.008067815533184364,0.008067815533184364
72.887,0.002436784083858834,0.002436784083858834
72.888,0.003762603890631988,-0.003762603890631988
72.88900000000001,0.008048554671192698,-0.008048554671192698
72.89,0.009987308772154702,-0.009987308772154702
72.891,0.011323828189504281,-0.011323828189504281
72.89200000000001,0.015232973565486807,-0.015232973565486807
72.893,0.024950227669073732,-0.024950227669073732
72.894,0.042268402159344465,-0.042268402159344465
72.89500000000001,0.06644426531498682,-0.06644426531498682
72.896,0.09392714224277332,-0.09392714224277332
72.897,0.11904727518962954,-0.11904727518962954
72.89800000000001,0.1354807192552654,-0.1354807192552654
72.899,0.13804938322714067,-0.13804938322714067
72.9,0.12430455035147692,-0.12430455035147692
72.90100000000001,0.09541182347790689,-0.09541182347790689
72.902,0.05607517057186251,-0.05607517057186251
72.903,0.013529408767739892,-0.013529408767739892
72.90400000000001,0.02410302531969588,0.02410302531969588
72.905,0.0496354709151543,0.0496354709151543
72.906,0.05835187299579725,0.05835187299579725
72.90700000000001,0.0489057135818578,0.0489057135818578
72.908,0.02343753004794702,0.02343753004794702
72.909,0.013025045640224109,-0.013025045640224109
72.91000000000001,0.05366731321126883,-0.05366731321126883
72.911,0.09120586776951001,-0.09120586776951001
72.912,0.11916415173429751,-0.11916415173429751
72.91300000000001,0.132916281189002,-0.132916281189002
72.914,0.13039106942536083,-0.13039106942536083
72.915,0.11238554874665785,-0.11238554874665785
72.91600000000001,0.08246344680538731,-0.08246344680538731
72.917,0.046425793207722665,-0.046425793207722665
72.918,0.01136705868988086,-0.01136705868988086
72.91900000000001,0.015606903755279955,0.015606903755279955
72.92,0.028824392994770687,0.028824392994770687
72.921,0.025377873048893163,0.025377873048893163
72.92200000000001,0.005998822798929604,0.005998822798929604
72.923,0.024830995233496744,-0.024830995233496744
72.924,0.05969452542093334,-0.05969452542093334
72.92500000000001,0.08990325781330455,-0.08990325781330455
72.926,0.1076623195259887,-0.1076623195259887
72.927,0.10817983420997734,-0.10817983420997734
72.92800000000001,0.09110104213073811,-0.09110104213073811
72.929,0.06077886013796763,-0.06077886013796763
72.93,0.025201156636430078,-0.025201156636430078
72.93100000000001,0.006201188662748658,0.006201188662748658
72.932,0.025268664158694776,0.025268664158694776
72.933,0.02754120838171281,0.02754120838171281
72.93400000000001,0.013626921273079073,0.013626921273079073
72.935,0.010969250459197388,-0.010969250459197388
72.936,0.03756694758342494,-0.03756694758342494
72.93700000000001,0.05708911411526496,-0.05708911411526496
72.938,0.06303682595260929,-0.06303682595260929
72.93900000000001,0.05369692152505179,-0.05369692152505179
72.94000000000001,0.032831674916851905,-0.032831674916851905
72.941,0.008571035707597208,-0.008571035707597208
72.94200000000001,0.00918856125952261,0.00918856125952261
72.94300000000001,0.012070224923961925,0.012070224923961925
72.944,0.00387468772236943,-0.00387468772236943
72.94500000000001,0.0366063027719431,-0.0366063027719431
72.94600000000001,0.07843945000853902,-0.07843945000853902
72.947,0.11823417521542778,-0.11823417521542778
72.94800000000001,0.14476994229926088,-0.14476994229926088
72.94900000000001,0.15023885220951372,-0.15023885220951372
72.95,0.13273582505289472,-0.13273582505289472
72.95100000000001,0.09693444634636295,-0.09693444634636295
72.95200000000001,0.05271746345974582,-0.05271746345974582
72.953,0.012190741980866338,-0.012190741980866338
72.95400000000001,0.013969307621596094,0.013969307621596094
72.95500000000001,0.019675100028223147,0.019675100028223147
72.956,0.005104981281220722,0.005104981281220722
72.95700000000001,0.02359849367424205,-0.02359849367424205
72.95800000000001,0.05645759837931996,-0.05645759837931996
72.959,0.08287795514282514,-0.08287795514282514
72.96000000000001,0.09488863190745767,-0.09488863190745767
72.96100000000001,0.08936776133082869,-0.08936776133082869
72.962,0.0685930526923414,-0.0685930526923414
72.96300000000001,0.03904072344240139,-0.03904072344240139
72.96400000000001,0.008945508151440906,-0.008945508151440906
72.965,0.014473189565189282,0.014473189565189282
72.96600000000001,0.027148230723324396,0.027148230723324396
72.96700000000001,0.028969079948804266,0.028969079948804266
72.968,0.02306852487425437,0.02306852487425437
72.96900000000001,0.013966661790358215,0.013966661790358215
72.97000000000001,0.005355173832576776,0.005355173832576776
72.971,0.0015833447104903753,-0.0015833447104903753
72.97200000000001,0.00864833006266219,-0.00864833006266219
72.97300000000001,0.01968689695098802,-0.01968689695098802
72.974,0.038603616591512124,-0.038603616591512124
72.97500000000001,0.06709265840247092,-0.06709265840247092
72.97600000000001,0.10301430978756543,-0.10301430978756543
72.977,0.14013996447106647,-0.14013996447106647
72.97800000000001,0.16951347400382588,-0.16951347400382588
72.979,0.1820868193995726,-0.1820868193995726
72.98,0.17179320238261653,-0.17179320238261653
72.98100000000001,0.1380010467286582,-0.1380010467286582
72.982,0.0864358157925329,-0.0864358157925329
72.983,0.028126084992775024,-0.028126084992775024
72.98400000000001,0.02342505430396713,0.02342505430396713
72.985,0.05603745750930167,0.05603745750930167
72.986,0.06245601871643691,0.06245601871643691
72.98700000000001,0.0426083204612151,0.0426083204612151
72.988,0.003761621517919478,0.003761621517919478
72.989,0.04152842567468751,-0.04152842567468751
72.99000000000001,0.07908885708621105,-0.07908885708621105
72.991,0.09731418138081271,-0.09731418138081271
72.992,0.09058842646435583,-0.09058842646435583
72.99300000000001,0.06090101555375638,-0.06090101555375638
72.994,0.017174545940918717,-0.017174545940918717
72.995,0.02746807502034687,0.02746807502034687
72.99600000000001,0.05963910952600471,0.05963910952600471
72.997,0.06961289886026822,0.06961289886026822
72.998,0.054063885726867156,0.054063885726867156
72.99900000000001,0.016832135693524375,0.016832135693524375
73.0,0.03243921497621749,-0.03243921497621749
73.001,0.08129541619585445,-0.08129541619585445
73.00200000000001,0.11811680043245099,-0.11811680043245099
73.003,0.13529533185244225,-0.13529533185244225
73.004,0.13102098770500692,-0.13102098770500692
73.00500000000001,0.1092392953621385,-0.1092392953621385
73.006,0.07793273332233963,-0.07793273332233963
73.007,0.046386477231473267,-0.046386477231473267
73.00800000000001,0.02236572198422715,-0.02236572198422715
73.009,0.010085916085147084,-0.010085916085147084
73.01,0.009532250680246768,-0.009532250680246768
73.01100000000001,0.0172033750114583,-0.0172033750114583
73.012,0.027883798874894228,-0.027883798874894228
73.013,0.036744167719963916,-0.036744167719963916
73.01400000000001,0.0410195518730726,-0.0410195518730726
73.015,0.04072353808077256,-0.04072353808077256
73.016,0.03823446860606583,-0.03823446860606583
73.01700000000001,0.0370006114809569,-0.0370006114809569
73.018,0.03991053253914312,-0.03991053253914312
73.019,0.04796545111883843,-0.04796545111883843
73.02000000000001,0.05975011922635354,-0.05975011922635354
73.021,0.07188655803986244,-0.07188655803986244
73.022,0.08028693464169967,-0.08028693464169967
73.02300000000001,0.08172948828160975,-0.08172948828160975
73.024,0.07516590058038208,-0.07516590058038208
73.025,0.06226677469402564,-0.06226677469402564
73.02600000000001,0.04698567157565414,-0.04698567157565414
73.027,0.03427301576439201,-0.03427301576439201
73.028,0.028375712438933554,-0.028375712438933554
73.02900000000001,0.031310936163405634,-0.031310936163405634
73.03,0.042051296432940144,-0.042051296432940144
73.031,0.05672190073994876,-0.05672190073994876
73.03200000000001,0.06976918016173328,-0.06976918016173328
73.033,0.07573264865986296,-0.07573264865986296
73.034,0.07104483167179076,-0.07104483167179076
73.03500000000001,0.05526992176312007,-0.05526992176312007
73.036,0.03137217705544071,-0.03137217705544071
73.037,0.004919578423116078,-0.004919578423116078
73.03800000000001,0.01752797665097816,0.01752797665097816
73.039,0.030336711918229398,0.030336711918229398
73.04,0.03042173692546668,0.03042173692546668
73.04100000000001,0.018075982328259244,0.018075982328259244
73.042,0.003231906396939155,-0.003231906396939155
73.043,0.027996086818651622,-0.027996086818651622
73.04400000000001,0.05036062611372205,-0.05036062611372205
73.045,0.06580704674036264,-0.06580704674036264
73.046,0.07231544322605665,-0.07231544322605665
73.04700000000001,0.07066345426912757,-0.07066345426912757
73.048,0.06382130585813361,-0.06382130585813361
73.049,0.05569857621012686,-0.05569857621012686
73.05000000000001,0.04970108170470777,-0.04970108170470777
73.051,0.04759952900663378,-0.04759952900663378
73.052,0.04908464235026566,-0.04908464235026566
73.05300000000001,0.052132450282208254,-0.052132450282208254
73.054,0.054015108875329454,-0.054015108875329454
73.055,0.05256532549886461,-0.05256532549886461
73.05600000000001,0.047213180404338084,-0.047213180404338084
73.057,0.03939331294379855,-0.03939331294379855
73.058,0.03214182926383047,-0.03214182926383047
73.05900000000001,0.028991750786279913,-0.028991750786279913
73.06,0.032535649684233614,-0.032535649684233614
73.061,0.043165146830005385,-0.043165146830005385
73.06200000000001,0.05846799603594832,-0.05846799603594832
73.063,0.07356859856042042,-0.07356859856042042
73.06400000000001,0.08239577901906048,-0.08239577901906048
73.06500000000001,0.07954790136729317,-0.07954790136729317
73.066,0.06220182223664572,-0.06220182223664572
73.06700000000001,0.031454679152777554,-0.031454679152777554
73.06800000000001,0.007378671150157778,0.007378671150157778
73.069,0.04569905338791491,0.04569905338791491
73.07000000000001,0.07361063291087455,0.07361063291087455
73.07100000000001,0.08246002262082275,0.08246002262082275
73.072,0.06723522500560497,0.06723522500560497
73.07300000000001,0.02814234182336861,0.02814234182336861
73.07400000000001,0.029112057269234826,-0.029112057269234826
73.075,0.09445279160656761,-0.09445279160656761
73.07600000000001,0.155708957499625,-0.155708957499625
73.07700000000001,0.20143522883133402,-0.20143522883133402
73.078,0.2235365505275556,-0.2235365505275556
73.07900000000001,0.21901011292636352,-0.21901011292636352
73.08000000000001,0.19037072919349263,-0.19037072919349263
73.081,0.14469657866138352,-0.14469657866138352
73.08200000000001,0.09161280402600114,-0.09161280402600114
73.08300000000001,0.04081021266746454,-0.04081021266746454
73.084,0.0002037253374200798,0.0002037253374200798
73.08500000000001,0.027528721065480877,0.027528721065480877
73.08600000000001,0.04114938341536334,0.04114938341536334
73.087,0.044099373326021096,0.044099373326021096
73.08800000000001,0.04087131756837903,0.04087131756837903
73.08900000000001,0.035634095468003446,0.035634095468003446
73.09,0.030839540442219704,0.030839540442219704
73.09100000000001,0.026638953206364224,0.026638953206364224
73.09200000000001,0.021242217311589373,0.021242217311589373
73.093,0.012032944641619858,0.012032944641619858
73.09400000000001,0.002995609079123218,-0.002995609079123218
73.09500000000001,0.02401865410839299,-0.02401865410839299
73.096,0.04882714610631378,-0.04882714610631378
73.09700000000001,0.0731681200396167,-0.0731681200396167
73.09800000000001,0.09189528575215222,-0.09189528575215222
73.099,0.10056544310790627,-0.10056544310790627
73.10000000000001,0.09695228176340753,-0.09695228176340753
73.10100000000001,0.08195790031935157,-0.08195790031935157
73.102,0.059583572342338575,-0.059583572342338575
73.10300000000001,0.035918735374871336,-0.035918735374871336
73.104,0.017426319547428237,-0.017426319547428237
73.105,0.009040285452075025,-0.009040285452075025
73.10600000000001,0.012668977560991612,-0.012668977560991612
73.107,0.026587032231671914,-0.026587032231671914
73.108,0.04593052657355645,-0.04593052657355645
73.10900000000001,0.06416717977068875,-0.06416717977068875
73.11,0.07510355316510053,-0.07510355316510053
73.111,0.07481362041998985,-0.07481362041998985
73.11200000000001,0.06288668819928989,-0.06288668819928989
73.113,0.042596489042636354,-0.042596489042636354
73.114,0.019925873160040908,-0.019925873160040908
73.11500000000001,0.0017395405502649286,-0.0017395405502649286
73.116,0.006332276800879333,0.006332276800879333
73.117,0.0016400759545631693,0.0016400759545631693
73.11800000000001,0.0146572309151769,-0.0146572309151769
73.119,0.03794711055361999,-0.03794711055361999
73.12,0.06159435241977218,-0.06159435241977218
73.12100000000001,0.07900248805235532,-0.07900248805235532
73.122,0.08565934474618953,-0.08565934474618953
73.123,0.08052299990104661,-0.08052299990104661
73.12400000000001,0.06631069946083601,-0.06631069946083601
73.125,0.048598874475732745,-0.048598874475732745
73.126,0.0340181017676624,-0.0340181017676624
73.12700000000001,0.028113460992450157,-0.028113460992450157
73.128,0.03354695695926291,-0.03354695695926291
73.129,0.04921050047065767,-0.04921050047065767
73.13000000000001,0.070529708276309,-0.070529708276309
73.131,0.0908622945197235,-0.0908622945197235
73.132,0.10354996780783543,-0.10354996780783543
73.13300000000001,0.10397903098474104,-0.10397903098474104
73.134,0.09100632811871379,-0.09100632811871379
73.135,0.06731193157356308,-0.06731193157356308
73.13600000000001,0.03858118005445599,-0.03858118005445599
73.137,0.011786466901205106,-0.011786466901205106
73.138,0.006883730232559282,0.006883730232559282
73.13900000000001,0.013801497780089766,0.013801497780089766
73.14,0.008841363323586204,0.008841363323586204
73.141,0.004778061390902089,-0.004778061390902089
73.14200000000001,0.021666002907137383,-0.021666002907137383
73.143,0.03604321817646183,-0.03604321817646183
73.144,0.043557215294515284,-0.043557215294515284
73.14500000000001,0.04256017189252348,-0.04256017189252348
73.146,0.034472446151691205,-0.034472446151691205
73.147,0.023159052654718515,-0.023159052654718515
73.14800000000001,0.01356175613857269,-0.01356175613857269
73.149,0.010053567307526157,-0.010053567307526157
73.15,0.015046904307437048,-0.015046904307437048
73.15100000000001,0.028277871980771918,-0.028277871980771918
73.152,0.04695074373218444,-0.04695074373218444
73.153,0.06664319294725718,-0.06664319294725718
73.15400000000001,0.08263936424621043,-0.08263936424621043
73.155,0.09124823881818966,-0.09124823881818966
73.156,0.0907072742310524,-0.0907072742310524
73.15700000000001,0.0814414356374239,-0.0814414356374239
73.158,0.06567897987227655,-0.06567897987227655
73.159,0.04663425025031398,-0.04663425025031398
73.16000000000001,0.0275837712392919,-0.0275837712392919
73.161,0.011151683285613445,-0.011151683285613445
73.162,0.001002195169604203,0.001002195169604203
73.16300000000001,0.008079819681019007,0.008079819681019007
73.164,0.009783566718221115,0.009783566718221115
73.165,0.005941559519087702,0.005941559519087702
73.16600000000001,0.00365442225290169,-0.00365442225290169
73.167,0.019089902880415788,-0.019089902880415788
73.168,0.03990450968031045,-0.03990450968031045
73.16900000000001,0.064606960353499,-0.064606960353499
73.17,0.09039507195227092,-0.09039507195227092
73.171,0.11330127313930327,-0.11330127313930327
73.17200000000001,0.12883957849316607,-0.12883957849316607
73.173,0.13303844660875452,-0.13303844660875452
73.174,0.1235765156495714,-0.1235765156495714
73.17500000000001,0.10065980138554731,-0.10065980138554731
73.176,0.0673240122172103,-0.0673240122172103
73.177,0.029004803950626767,-0.029004803950626767
73.17800000000001,0.0075587014231348615,0.0075587014231348615
73.179,0.035810609651094394,0.035810609651094394
73.18,0.050850928463236356,0.050850928463236356
73.18100000000001,0.05048987384546666,0.05048987384546666
73.182,0.03560726415222981,0.03560726415222981
73.183,0.009752655198524751,0.009752655198524751
73.18400000000001,0.021853368170018372,-0.021853368170018372
73.185,0.053593597496060075,-0.053593597496060075
73.186,0.08063156162527985,-0.08063156162527985
73.18700000000001,0.09969275612147366,-0.09969275612147366
73.188,0.10931419884568527,-0.10931419884568527
73.18900000000001,0.10961665838922152,-0.10961665838922152
73.19000000000001,0.1018004317557687,-0.1018004317557687
73.191,0.0876186818270136,-0.0876186818270136
73.19200000000001,0.06902976795299942,-0.06902976795299942
73.19300000000001,0.048100741346944975,-0.048100741346944975
73.194,0.027086513866233064,-0.027086513866233064
73.19500000000001,0.008507482531898258,-0.008507482531898258
73.19600000000001,0.004962534533579088,0.004962534533579088
73.197,0.010899070247250675,0.010899070247250675
73.19800000000001,0.007770391615885108,0.007770391615885108
73.19900000000001,0.004380755705846617,-0.004380755705846617
73.2,0.02350476834433879,-0.02350476834433879
73.20100000000001,0.04562318339868954,-0.04562318339868954
73.20200000000001,0.06553536390403358,-0.06553536390403358
73.203,0.07805581789030858,-0.07805581789030858
73.20400000000001,0.07946947577485242,-0.07946947577485242
73.20500000000001,0.06876151705824274,-0.06876151705824274
73.206,0.04818996077353788,-0.04818996077353788
73.20700000000001,0.022934573268072245,-0.022934573268072245
73.20800000000001,0.00016858359566462866,0.00016858359566462866
73.209,0.014497531813649323,0.014497531813649323
73.21000000000001,0.015586886868205196,0.015586886868205196
73.21100000000001,0.002544599111521828,0.002544599111521828
73.212,0.02152920734047936,-0.02152920734047936
73.21300000000001,0.05030680028869272,-0.05030680028869272
73.21400000000001,0.07600411662257434,-0.07600411662257434
73.215,0.09165850557069555,-0.09165850557069555
73.21600000000001,0.09323386442241322,-0.09323386442241322
73.21700000000001,0.08090260713724118,-0.08090260713724118
73.218,0.05908720221723651,-0.05908720221723651
73.21900000000001,0.03521374813643863,-0.03521374813643863
73.22000000000001,0.01752304952761019,-0.01752304952761019
73.221,0.012578693411076536,-0.012578693411076536
73.22200000000001,0.023214347642514066,-0.023214347642514066
73.22300000000001,0.04754079133320932,-0.04754079133320932
73.224,0.07932349531748395,-0.07932349531748395
73.22500000000001,0.10963811163339676,-0.10963811163339676
73.22600000000001,0.12933608437374433,-0.12933608437374433
73.227,0.1316176150951205,-0.1316176150951205
73.22800000000001,0.11398198816825367,-0.11398198816825367
73.229,0.07900969125616131,-0.07900969125616131
73.23,0.0337678792083792,-0.0337678792083792
73.23100000000001,0.011981380568385935,0.011981380568385935
73.232,0.04826474667965197,0.04826474667965197
73.233,0.06739378980193411,0.06739378980193411
73.23400000000001,0.06581428896713293,0.06581428896713293
73.235,0.04484779831409047,0.04484779831409047
73.236,0.010177606094200042,0.010177606094200042
73.23700000000001,0.029733222622236766,-0.029733222622236766
73.238,0.06583724804426039,-0.06583724804426039
73.239,0.0907248970176101,-0.0907248970176101
73.24000000000001,0.10031416852235886,-0.10031416852235886
73.241,0.09461595927499589,-0.09461595927499589
73.242,0.07743762882907324,-0.07743762882907324
73.24300000000001,0.05515854481043991,-0.05515854481043991
73.244,0.03493145503553052,-0.03493145503553052
73.245,0.022783735080208478,-0.022783735080208478
73.24600000000001,0.022092064471835093,-0.022092064471835093
73.247,0.03279160996505437,-0.03279160996505437
73.248,0.0514892729694153,-0.0514892729694153
73.24900000000001,0.07242761510256668,-0.07242761510256668
73.25,0.08904300278049282,-0.08904300278049282
73.251,0.09572293269645815,-0.09572293269645815
73.25200000000001,0.0893231281388348,-0.0893231281388348
73.253,0.07006426326118853,-0.07006426326118853
73.254,0.041578240568717284,-0.041578240568717284
73.25500000000001,0.010081546232310612,-0.010081546232310612
73.256,0.017129433726039922,0.017129433726039922
73.257,0.03349171124018491,0.03349171124018491
73.25800000000001,0.03484171685460824,0.03484171685460824
73.259,0.020505690216202632,0.020505690216202632
73.26,0.006474386781354147,-0.006474386781354147
73.26100000000001,0.04004866366133686,-0.04004866366133686
73.262,0.07262685333413188,-0.07262685333413188
73.263,0.09692897195409533,-0.09692897195409533
73.26400000000001,0.10774001081063622,-0.10774001081063622
73.265,0.10311629989492332,-0.10311629989492332
73.266,0.08474330928080964,-0.08474330928080964
73.26700000000001,0.05737909582659306,-0.05737909582659306
73.268,0.0275667081046973,-0.0275667081046973
73.269,0.0019895779434134786,-0.0019895779434134786
73.27000000000001,0.014079171469386642,0.014079171469386642
73.271,0.017839422866036125,0.017839422866036125
73.272,0.009313072049722315,0.009313072049722315
73.27300000000001,0.009023600449632796,-0.009023600449632796
73.274,0.03312303303180508,-0.03312303303180508
73.275,0.058442536849414806,-0.058442536849414806
73.27600000000001,0.08088629235252653,-0.08088629235252653
73.277,0.09738969504226325,-0.09738969504226325
73.278,0.10608886974984877,-0.10608886974984877
73.27900000000001,0.10618066537803494,-0.10618066537803494
73.28,0.09767508670635205,-0.09767508670635205
73.281,0.08123863664799957,-0.08123863664799957
73.28200000000001,0.05822995278933385,-0.05822995278933385
73.283,0.03088335937241482,-0.03088335937241482
73.284,0.0024675473371791323,-0.0024675473371791323
73.28500000000001,0.02280340230304634,0.02280340230304634
73.286,0.040270017717229045,0.040270017717229045
73.287,0.04574639945431058,0.04574639945431058
73.28800000000001,0.036670069601961286,0.036670069601961286
73.289,0.013136311538533674,0.013136311538533674
73.29,0.021578190703087974,-0.021578190703087974
73.29100000000001,0.06130045421338515,-0.06130045421338515
73.292,0.09812634528799402,-0.09812634528799402
73.293,0.12424843230389204,-0.12424843230389204
73.29400000000001,0.1339766674541265,-0.1339766674541265
73.295,0.12536013943072621,-0.12536013943072621
73.296,0.10088304159165862,-0.10088304159165862
73.29700000000001,0.06695419651828116,-0.06695419651828116
73.298,0.03226750746468854,-0.03226750746468854
73.299,0.005467635720305619,-0.005467635720305619
73.30000000000001,0.007208272329688681,0.007208272329688681
73.301,0.0036103390210124875,0.0036103390210124875
73.302,0.013833179208289081,-0.013833179208289081
73.30300000000001,0.038964225986338086,-0.038964225986338086
73.304,0.06381857301340788,-0.06381857301340788
73.305,0.08102700766965465,-0.08102700766965465
73.30600000000001,0.0859528398295687,-0.0859528398295687
73.307,0.077918866755599,-0.077918866755599
73.308,0.06017757665719725,-0.06017757665719725
73.30900000000001,0.038684776385864095,-0.038684776385864095
73.31,0.020113753985080307,-0.020113753985080307
73.311,0.009770754490773359,-0.009770754490773359
73.31200000000001,0.01007281722958775,-0.01007281722958775
73.313,0.020032752710880675,-0.020032752710880675
73.31400000000001,0.03584346822780393,-0.03584346822780393
73.31500000000001,0.052289419616078026,-0.052289419616078026
73.316,0.0644610377930207,-0.0644610377930207
73.31700000000001,0.06918934770010865,-0.06918934770010865
73.31800000000001,0.0657626485957502,-0.0657626485957502
73.319,0.0557728102150119,-0.0557728102150119
73.32000000000001,0.042255546721006065,-0.042255546721006065
73.32100000000001,0.02852068558572718,-0.02852068558572718
73.322,0.017135064285142443,-0.017135064285142443
73.32300000000001,0.00940724329577769,-0.00940724329577769
73.32400000000001,0.005483410904421393,-0.005483410904421393
73.325,0.0048980915507276235,-0.0048980915507276235
73.32600000000001,0.007239299157792534,-0.007239299157792534
73.32700000000001,0.012558781732219693,-0.012558781732219693
73.328,0.021294110966261992,-0.021294110966261992
73.32900000000001,0.03371347416926285,-0.03371347416926285
73.33000000000001,0.04914371999623757,-0.04914371999623757
73.331,0.06538975798084778,-0.06538975798084778
73.33200000000001,0.07872869625873602,-0.07872869625873602
73.33300000000001,0.08466208469734637,-0.08466208469734637
73.334,0.0793026403567354,-0.0793026403567354
73.33500000000001,0.06097424847832533,-0.06097424847832533
73.33600000000001,0.03143734925156749,-0.03143734925156749
73.337,0.003804275299276183,0.003804275299276183
73.33800000000001,0.036400199430192126,0.036400199430192126
73.33900000000001,0.057141100988835625,0.057141100988835625
73.34,0.05852432929972107,0.05852432929972107
73.34100000000001,0.0371257749591245,0.0371257749591245
73.34200000000001,0.005005076239288697,-0.005005076239288697
73.343,0.06045279167755513,-0.06045279167755513
73.34400000000001,0.11811837821286342,-0.11811837821286342
73.34500000000001,0.16604334186562442,-0.16604334186562442
73.346,0.19455627908495376,-0.19455627908495376
73.34700000000001,0.1987920426698272,-0.1987920426698272
73.34800000000001,0.1798112605018527,-0.1798112605018527
73.349,0.14398337938257344,-0.14398337938257344
73.35000000000001,0.1008491063697482,-0.1008491063697482
73.35100000000001,0.0601646614705903,-0.0601646614705903
73.352,0.02908645214129757,-0.02908645214129757
73.35300000000001,0.010392603755527974,-0.010392603755527974
73.354,0.0022767517429809203,-0.0022767517429809203
73.355,0.00028874387883326413,0.00028874387883326413
73.35600000000001,0.0031555551700983564,0.0031555551700983564
73.357,0.010448632532412683,0.010448632532412683
73.358,0.022782130944052348,0.022782130944052348
73.35900000000001,0.036883068281099884,0.036883068281099884
73.36,0.04676214949054369,0.04676214949054369
73.361,0.04602028551658588,0.04602028551658588
73.36200000000001,0.03046974863880547,0.03046974863880547
73.363,0.00012305120738376196,0.00012305120738376196
73.364,0.040194367817413146,-0.040194367817413146
73.36500000000001,0.08188756224462934,-0.08188756224462934
73.366,0.11500418663174705,-0.11500418663174705
73.367,0.13125078676703616,-0.13125078676703616
73.36800000000001,0.1266252584294707,-0.1266252584294707
73.369,0.10278501179534338,-0.10278501179534338
73.37,0.06667444946874024,-0.06667444946874024
73.37100000000001,0.028501435322316082,-0.028501435322316082
73.372,0.001308156350096068,0.001308156350096068
73.373,0.015214987310809613,0.015214987310809613
73.37400000000001,0.010748499793414412,0.010748499793414412
73.375,0.00891385767045827,-0.00891385767045827
73.376,0.036132570728002134,-0.036132570728002134
73.37700000000001,0.06135454438500165,-0.06135454438500165
73.378,0.07619462696015511,-0.07619462696015511
73.379,0.07606728443703736,-0.07606728443703736
73.38000000000001,0.061549354876333395,-0.061549354876333395
73.381,0.038075587394110655,-0.038075587394110655
73.382,0.014104731048319108,-0.014104731048319108
73.38300000000001,0.0016292600261496037,0.0016292600261496037
73.384,0.0028985213380430253,0.0028985213380430253
73.385,0.012068752220524392,-0.012068752220524392
73.38600000000001,0.04004558520520962,-0.04004558520520962
73.387,0.07379138537071206,-0.07379138537071206
73.388,0.10421324388130793,-0.10421324388130793
73.38900000000001,0.12301033167483766,-0.12301033167483766
73.39,0.12499712108541394,-0.12499712108541394
73.391,0.10944107774868372,-0.10944107774868372
73.39200000000001,0.08008278351125886,-0.08008278351125886
73.393,0.04391634900126895,-0.04391634900126895
73.394,0.00916467286049727,-0.00916467286049727
73.39500000000001,0.01691679001337465,0.01691679001337465
73.396,0.029779836387710423,0.029779836387710423
73.397,0.028429616448708783,0.028429616448708783
73.39800000000001,0.015240220562432238,0.015240220562432238
73.399,0.0050882724643368515,-0.0050882724643368515
73.4,0.027035885732304865,-0.027035885732304865
73.40100000000001,0.04575585880488098,-0.04575585880488098
73.402,0.058147700286018456,-0.058147700286018456
73.403,0.0632821124752676,-0.0632821124752676
73.40400000000001,0.0621702184709344,-0.0621702184709344
73.405,0.05705926063553757,-0.05705926063553757
73.406,0.050543097647436364,-0.050543097647436364
73.40700000000001,0.04477893010756706,-0.04477893010756706
73.408,0.04101699023633443,-0.04101699023633443
73.409,0.03951749669730786,-0.03951749669730786
73.41000000000001,0.039797429249071925,-0.039797429249071925
73.411,0.04105882735257793,-0.04105882735257793
73.412,0.04262106399770893,-0.04262106399770893
73.41300000000001,0.044209969582823416,-0.044209969582823416
73.414,0.04602693494766352,-0.04602693494766352
73.415,0.04860300595286071,-0.04860300595286071
73.41600000000001,0.052510283320197915,-0.052510283320197915
73.417,0.058038969645999416,-0.058038969645999416
73.418,0.06494880090687483,-0.06494880090687483
73.41900000000001,0.07237459571660698,-0.07237459571660698
73.42,0.07891955109815285,-0.07891955109815285
73.421,0.0829201057104525,-0.0829201057104525
73.42200000000001,0.08282364567232314,-0.08282364567232314
73.423,0.07759222631029794,-0.07759222631029794
73.424,0.0670355986923934,-0.0670355986923934
73.42500000000001,0.05198648066296019,-0.05198648066296019
73.426,0.03425949777298165,-0.03425949777298165
73.427,0.016379324482914348,-0.016379324482914348
73.42800000000001,0.001116585645653978,-0.001116585645653978
73.429,0.009078515192646242,0.009078515192646242
73.43,0.012618256619632229,0.012618256619632229
73.43100000000001,0.009159350071956673,0.009159350071956673
73.432,0.00028516612433027166,-0.00028516612433027166
73.433,0.013554418465027696,-0.013554418465027696
73.43400000000001,0.027837568925978995,-0.027837568925978995
73.435,0.04034800768377811,-0.04034800768377811
73.436,0.04900259236456217,-0.04900259236456217
73.43700000000001,0.05292071062835313,-0.05292071062835313
73.438,0.052597218862336814,-0.052597218862336814
73.43900000000001,0.049688893729105565,-0.049688893729105565
73.44000000000001,0.04646368967443848,-0.04646368967443848
73.441,0.04506406400702134,-0.04506406400702134
73.44200000000001,0.046798124694732435,-0.046798124694732435
73.44300000000001,0.05167378836800551,-0.05167378836800551
73.444,0.05832766509942067,-0.05832766509942067
73.44500000000001,0.06438810370104109,-0.06438810370104109
73.44600000000001,0.06718263274678715,-0.06718263274678715
73.447,0.06459229470101102,-0.06459229470101102
73.44800000000001,0.05580229679909465,-0.05580229679909465
73.44900000000001,0.04171771181165418,-0.04171771181165418
73.45,0.024901182602240834,-0.024901182602240834
73.45100000000001,0.009022745320057313,-0.009022745320057313
73.45200000000001,0.002047619198721984,0.002047619198721984
73.453,0.005266598957520685,0.005266598957520685
73.45400000000001,0.0007178769644727856,-0.0007178769644727856
73.45500000000001,0.015110526875743546,-0.015110526875743546
73.456,0.03506303398519395,-0.03506303398519395
73.45700000000001,0.05631427205861106,-0.05631427205861106
73.45800000000001,0.07422283506561755,-0.07422283506561755
73.459,0.08492719576750074,-0.08492719576750074
73.46000000000001,0.08632669653321812,-0.08632669653321812
73.46100000000001,0.07861644325226858,-0.07861644325226858
73.462,0.06422254720606324,-0.06422254720606324
73.46300000000001,0.04714282949080173,-0.04714282949080173
73.46400000000001,0.03186089779349455,-0.03186089779349455
73.465,0.022124488155907063,-0.022124488155907063
73.46600000000001,0.019926730982292584,-0.019926730982292584
73.46700000000001,0.02498445122511661,-0.02498445122511661
73.468,0.034877717594289814,-0.034877717594289814
73.46900000000001,0.04583063290515599,-0.04583063290515599
73.47000000000001,0.0539234588601305,-0.0539234588601305
73.471,0.05638499544324527,-0.05638499544324527
73.47200000000001,0.05256700353466992,-0.05256700353466992
73.47300000000001,0.044271559047394216,-0.044271559047394216
73.474,0.03527753900954045,-0.03527753900954045
73.47500000000001,0.030151023465424864,-0.030151023465424864
73.47600000000001,0.0326594948780391,-0.0326594948780391
73.477,0.044268329361608405,-0.044268329361608405
73.47800000000001,0.06322275169278768,-0.06322275169278768
73.479,0.08458700715094325,-0.08458700715094325
73.48,0.10134923024168263,-0.10134923024168263
73.48100000000001,0.1063737741118399,-0.1063737741118399
73.482,0.09468857859784141,-0.09468857859784141
73.483,0.0654296357535471,-0.0654296357535471
73.48400000000001,0.022793470206902144,-0.022793470206902144
73.485,0.024417100126557845,0.024417100126557845
73.486,0.06468145417776561,0.06468145417776561
73.48700000000001,0.08667729206183417,0.08667729206183417
73.488,0.0824672056347191,0.0824672056347191
73.489,0.050047385189765814,0.050047385189765814
73.49000000000001,0.005538309421251109,-0.005538309421251109
73.491,0.0729552048272406,-0.0729552048272406
73.492,0.13712461672934984,-0.13712461672934984
73.49300000000001,0.1829526369688691,-0.1829526369688691
73.494,0.19925560869078895,-0.19925560869078895
73.495,0.18179166324895435,-0.18179166324895435
73.49600000000001,0.13451937062320674,-0.13451937062320674
73.497,0.06868299202769279,-0.06868299202769279
73.498,6.500328414760226e-05,6.500328414760226e-05
73.49900000000001,0.05572885650393111,0.05572885650393111
73.5,0.08609869335993814,0.08609869335993814
73.501,0.08579763758195669,0.08579763758195669
73.50200000000001,0.05741291732160336,0.05741291732160336
73.503,0.010433390524233754,0.010433390524233754
73.504,0.041650316010208854,-0.041650316010208854
73.50500000000001,0.08520617205304681,-0.08520617205304681
73.506,0.11015229802957116,-0.11015229802957116
73.507,0.11243786630523334,-0.11243786630523334
73.50800000000001,0.09466530540279705,-0.09466530540279705
73.509,0.0647787849839121,-0.0647787849839121
73.51,0.03331685471622248,-0.03331685471622248
73.51100000000001,0.010125525072759989,-0.010125525072759989
73.512,0.0015372482863378334,-0.0015372482863378334
73.513,0.0088203641547826,-0.0088203641547826
73.51400000000001,0.028269180563477492,-0.028269180563477492
73.515,0.05278307274960303,-0.05278307274960303
73.516,0.07434028981204877,-0.07434028981204877
73.51700000000001,0.08654157047599609,-0.08654157047599609
73.518,0.08643898024661789,-0.08643898024661789
73.519,0.07514625139407127,-0.07514625139407127
73.52000000000001,0.057143614232741946,-0.057143614232741946
73.521,0.03860168386068463,-0.03860168386068463
73.522,0.025325965209112122,-0.025325965209112122
73.52300000000001,0.020989117384675016,-0.020989117384675016
73.524,0.026169175308772163,-0.026169175308772163
73.525,0.03841450007900993,-0.03841450007900993
73.52600000000001,0.05321837903605575,-0.05321837903605575
73.527,0.06551905543929515,-0.06551905543929515
73.528,0.0712219761214794,-0.0712219761214794
73.52900000000001,0.06829166265144782,-0.06829166265144782
73.53,0.057144910872356736,-0.057144910872356736
73.531,0.04031983545121787,-0.04031983545121787
73.53200000000001,0.02161181369828946,-0.02161181369828946
73.533,0.004992922946813416,-0.004992922946813416
73.534,0.006359360700583405,0.006359360700583405
73.53500000000001,0.010688489353049446,0.010688489353049446
73.536,0.00784644186240202,0.00784644186240202
73.537,0.0009133180057174783,-0.0009133180057174783
73.53800000000001,0.013402863076131921,-0.013402863076131921
73.539,0.027065682289982518,-0.027065682289982518
73.54,0.03950734184793259,-0.03950734184793259
73.54100000000001,0.04890939421062768,-0.04890939421062768
73.542,0.05429328870295891,-0.05429328870295891
73.543,0.05562746529821627,-0.05562746529821627
73.54400000000001,0.05377606067733409,-0.05377606067733409
73.545,0.05028695038731801,-0.05028695038731801
73.546,0.04702885399865442,-0.04702885399865442
73.54700000000001,0.04572137988083813,-0.04572137988083813
73.548,0.04745068457753776,-0.04745068457753776
73.549,0.052303832657472515,-0.052303832657472515
73.55000000000001,0.05925879577678472,-0.05925879577678472
73.551,0.06641595310234294,-0.06641595310234294
73.552,0.07155484650182353,-0.07155484650182353
73.55300000000001,0.07287651557445107,-0.07287651557445107
73.554,0.06969419856758063,-0.06969419856758063
73.555,0.0628102474431882,-0.0628102474431882
73.55600000000001,0.054390125306028714,-0.054390125306028714
73.557,0.04730447918854119,-0.04730447918854119
73.558,0.044108885120606955,-0.044108885120606955
73.55900000000001,0.04599570492784688,-0.04599570492784688
73.56,0.05211367122061039,-0.05211367122061039
73.561,0.05956923512380752,-0.05956923512380752
73.56200000000001,0.06421077541417852,-0.06421077541417852
73.563,0.06201635058521504,-0.06201635058521504
73.56400000000001,0.05065563752199853,-0.05065563752199853
73.56500000000001,0.030675084856846224,-0.030675084856846224
73.566,0.005822852755311914,-0.005822852755311914
73.56700000000001,0.017716775450617117,0.017716775450617117
73.56800000000001,0.033044254652945915,0.033044254652945915
73.569,0.03472970278289034,0.03472970278289034
73.57000000000001,0.020754594954194072,0.020754594954194072
73.57100000000001,0.006482169342887922,-0.006482169342887922
73.572,0.040525090377617645,-0.040525090377617645
73.57300000000001,0.07258596159614761,-0.07258596159614761
73.57400000000001,0.09415827983488567,-0.09415827983488567
73.575,0.09970992782190036,-0.09970992782190036
73.57600000000001,0.08855944139387373,-0.08855944139387373
73.57700000000001,0.06526167950948758,-0.06526167950948758
73.578,0.03829405586280732,-0.03829405586280732
73.57900000000001,0.017397363645065167,-0.017397363645065167
73.58000000000001,0.010396334954500097,-0.010396334954500097
73.581,0.020537623956564666,-0.020537623956564666
73.58200000000001,0.04525214062837524,-0.04525214062837524
73.58300000000001,0.07680509893739274,-0.07680509893739274
73.584,0.10468052935787298,-0.10468052935787298
73.58500000000001,0.11896173296980805,-0.11896173296980805
73.58600000000001,0.11361547716704368,-0.11361547716704368
73.587,0.08859226886682325,-0.08859226886682325
73.58800000000001,0.05002498379647091,-0.05002498379647091
73.58900000000001,0.008425885428806179,-0.008425885428806179
73.59,0.024556842204030316,0.024556842204030316
73.59100000000001,0.039780035752557064,0.039780035752557064
73.59200000000001,0.033462633973248224,0.033462633973248224
73.593,0.008331862694416658,0.008331862694416658
73.59400000000001,0.02730568946839651,-0.02730568946839651
73.59500000000001,0.06225010505631012,-0.06225010505631012
73.596,0.08596126924311076,-0.08596126924311076
73.59700000000001,0.09181855867277344,-0.09181855867277344
73.59800000000001,0.07904500734965947,-0.07904500734965947
73.599,0.05271569613765592,-0.05271569613765592
73.60000000000001,0.021913525363995046,-0.021913525363995046
73.60100000000001,0.0033002791989520386,0.0033002791989520386
73.602,0.01507141832779868,0.01507141832779868
73.60300000000001,0.010058982618617707,0.010058982618617707
73.604,0.009829970632037055,-0.009829970632037055
73.605,0.03841254066057642,-0.03841254066057642
73.60600000000001,0.06746879761605029,-0.06746879761605029
73.607,0.08941463789338444,-0.08941463789338444
73.608,0.09949276149221808,-0.09949276149221808
73.60900000000001,0.0968048679057506,-0.0968048679057506
73.61,0.0839673436823225,-0.0839673436823225
73.611,0.06567554907806772,-0.06567554907806772
73.61200000000001,0.0468239061721859,-0.0468239061721859
73.613,0.030925645811049396,-0.030925645811049396
73.614,0.019386216873737983,-0.019386216873737983
73.61500000000001,0.011795126137867928,-0.011795126137867928
73.616,0.006971885466392491,-0.006971885466392491
73.617,0.004202513337574376,-0.004202513337574376
73.61800000000001,0.004048593136115164,-0.004048593136115164
73.619,0.008318036574529786,-0.008318036574529786
73.62,0.019168637875406125,-0.019168637875406125
73.62100000000001,0.037716063929016386,-0.037716063929016386
73.622,0.06277244794401338,-0.06277244794401338
73.623,0.090341471930655,-0.090341471930655
73.62400000000001,0.11423121290440807,-0.11423121290440807
73.625,0.12771241179454362,-0.12771241179454362
73.626,0.12571266465974118,-0.12571266465974118
73.62700000000001,0.10676958069189646,-0.10676958069189646
73.628,0.0739825105439299,-0.0739825105439299
73.629,0.03451255857926827,-0.03451255857926827
73.63000000000001,0.0023181449805038667,0.0023181449805038667
73.631,0.027763805270933695,0.027763805270933695
73.632,0.03633099895944625,0.03633099895944625
73.63300000000001,0.027472569451127526,0.027472569451127526
73.634,0.0056879191204872726,0.0056879191204872726
73.635,0.021040814305939404,-0.021040814305939404
73.63600000000001,0.04396358807407341,-0.04396358807407341
73.637,0.056499106227401064,-0.056499106227401064
73.638,0.056370577387298115,-0.056370577387298115
73.63900000000001,0.04618858422037664,-0.04618858422037664
73.64,0.03227452389153418,-0.03227452389153418
73.641,0.022147118439169944,-0.022147118439169944
73.64200000000001,0.021581603290376505,-0.021581603290376505
73.643,0.03231761341730932,-0.03231761341730932
73.644,0.05127120759921888,-0.05127120759921888
73.64500000000001,0.07157127728004564,-0.07157127728004564
73.646,0.08507830096674895,-0.08507830096674895
73.647,0.08549114403756386,-0.08549114403756386
73.64800000000001,0.07090747969236844,-0.07090747969236844
73.649,0.04486909267730488,-0.04486909267730488
73.65,0.015444382616081276,-0.015444382616081276
73.65100000000001,0.007402283280814714,0.007402283280814714
73.652,0.015277058365882112,0.015277058365882112
73.653,0.004449803391411322,0.004449803391411322
73.65400000000001,0.02254573092738943,-0.02254573092738943
73.655,0.057435266885644154,-0.057435266885644154
73.656,0.08875590004367306,-0.08875590004367306
73.65700000000001,0.10562928517964254,-0.10562928517964254
73.658,0.10149940673824043,-0.10149940673824043
73.659,0.07655338628791075,-0.07655338628791075
73.66000000000001,0.03796004488859295,-0.03796004488859295
73.661,0.002217832011551568,0.002217832011551568
73.662,0.030798410070542737,0.030798410070542737
73.66300000000001,0.03772540016370507,0.03772540016370507
73.664,0.01938990564246801,0.01938990564246801
73.665,0.020072230269897462,-0.020072230269897462
73.66600000000001,0.06994900038668239,-0.06994900038668239
73.667,0.1162194088456272,-0.1162194088456272
73.668,0.14586570313770608,-0.14586570313770608
73.66900000000001,0.15084188838300194,-0.15084188838300194
73.67,0.13043442236150593,-0.13043442236150593
73.671,0.09128927626403427,-0.09128927626403427
73.67200000000001,0.04514738866445134,-0.04514738866445134
73.673,0.00507002853814964,-0.00507002853814964
73.674,0.018597130446741383,0.018597130446741383
73.67500000000001,0.021225518315190373,0.021225518315190373
73.676,0.004953362019966656,0.004953362019966656
73.677,0.02246711608908214,-0.02246711608908214
73.67800000000001,0.05054955361227231,-0.05054955361227231
73.679,0.06966138606212247,-0.06966138606212247
73.68,0.07411352546102923,-0.07411352546102923
73.68100000000001,0.06376338932292624,-0.06376338932292624
73.682,0.04367854989263398,-0.04367854989263398
73.683,0.022071311401970273,-0.022071311401970273
73.68400000000001,0.007279342984855219,-0.007279342984855219
73.685,0.004850131895099641,-0.004850131895099641
73.686,0.01570516084279372,-0.01570516084279372
73.68700000000001,0.035956189130868954,-0.035956189130868954
73.688,0.058369279049637846,-0.058369279049637846
73.68900000000001,0.07492208502890885,-0.07492208502890885
73.69000000000001,0.07955844341795626,-0.07955844341795626
73.691,0.07021556921393468,-0.07021556921393468
73.69200000000001,0.04947816156348295,-0.04947816156348295
73.69300000000001,0.023693213317311668,-0.023693213317311668
73.694,0.000890756842588103,-0.000890756842588103
73.69500000000001,0.011771322279508833,0.011771322279508833
73.69600000000001,0.010201355436365134,0.010201355436365134
73.697,0.005470192876936286,-0.005470192876936286
73.69800000000001,0.031079804695745894,-0.031079804695745894
73.69900000000001,0.059825492557710636,-0.059825492557710636
73.7,0.08435570380748081,-0.08435570380748081
73.70100000000001,0.0988605822652533,-0.0988605822652533
73.70200000000001,0.10052905920850608,-0.10052905920850608
73.703,0.08999089657226511,-0.08999089657226511
73.70400000000001,0.07071901978786599,-0.07071901978786599
73.70500000000001,0.04769879646666153,-0.04769879646666153
73.706,0.025870006455064987,-0.025870006455064987
73.70700000000001,0.008859647964064798,-0.008859647964064798
73.70800000000001,0.0016377398251634645,0.0016377398251634645
73.709,0.005740190301425141,0.005740190301425141
73.71000000000001,0.0046944672560675915,0.0046944672560675915
73.71100000000001,1.8602490325037024e-05,-1.8602490325037024e-05
73.712,0.007403761803328801,-0.007403761803328801
73.71300000000001,0.017222128649414747,-0.017222128649414747
73.71400000000001,0.029745266343876087,-0.029745266343876087
73.715,0.04514330670809796,-0.04514330670809796
73.71600000000001,0.06280837435090236,-0.06280837435090236
73.71700000000001,0.08094394479524514,-0.08094394479524514
73.718,0.0966514657965547,-0.0966514657965547
73.71900000000001,0.10655588292474016,-0.10655588292474016
73.72000000000001,0.10780089746777965,-0.10780089746777965
73.721,0.09908831812862318,-0.09908831812862318
73.72200000000001,0.08138963566501711,-0.08138963566501711
73.72300000000001,0.05803997084599477,-0.05803997084599477
73.724,0.0341097974764466,-0.0341097974764466
73.72500000000001,0.015179238992754529,-0.015179238992754529
73.72600000000001,0.005839740329992904,-0.005839740329992904
73.727,0.008354097907570468,-0.008354097907570468
73.72800000000001,0.021882885642681815,-0.021882885642681815
73.72900000000001,0.04253754740104865,-0.04253754740104865
73.73,0.06428994646844444,-0.06428994646844444
73.73100000000001,0.0805218628430534,-0.0805218628430534
73.732,0.08580752119311175,-0.08580752119311175
73.733,0.0774433912280803,-0.0774433912280803
