Czas,AbsSum,Sum
205.949,0.0004863963592447451,0.0004863963592447451
205.95,0.011308789419578247,0.011308789419578247
205.951,0.024521241803862504,0.024521241803862504
205.952,0.03639308880490555,0.03639308880490555
205.953,0.04394667726431356,0.04394667726431356
205.954,0.04583288019270704,0.04583288019270704
205.955,0.04265556507456747,0.04265556507456747
205.956,0.03665334935468767,0.03665334935468767
205.957,0.030859701191956912,0.030859701191956912
205.958,0.028032102558352534,0.028032102558352534
205.959,0.0297110324912222,0.0297110324912222
205.96,0.035717657772668554,0.035717657772668554
205.961,0.04424471829036403,0.04424471829036403
205.962,0.0524922253850455,0.0524922253850455
205.963,0.05761806746650433,0.05761806746650433
205.964,0.05767479122302377,0.05767479122302377
205.965,0.05221954937241913,0.05221954937241913
205.966,0.042406258919515105,0.042406258919515105
205.967,0.03055260738389909,0.03055260738389909
205.968,0.019354508944194437,0.019354508944194437
205.969,0.011034478454975849,0.011034478454975849
205.97,0.006720187176946446,0.006720187176946446
205.971,0.006254597234150117,0.006254597234150117
205.972,0.008475878161401829,0.008475878161401829
205.973,0.011833598813554502,0.011833598813554502
205.974,0.01508919628031502,0.01508919628031502
205.975,0.017825169591731083,0.017825169591731083
205.976,0.02056595743984313,0.02056595743984313
205.977,0.02446442469909993,0.02446442469909993
205.978,0.030675854823445592,0.030675854823445592
205.979,0.03966500133346185,0.03966500133346185
205.98,0.05072577164679015,0.05072577164679015
205.981,0.061924244019950114,0.061924244019950114
205.982,0.07052740108273459,0.07052740108273459
205.983,0.0738040462551881,0.0738040462551881
205.984,0.06994286711749265,0.06994286711749265
205.985,0.05877601853664993,0.05877601853664993
205.986,0.042046327507828885,0.042046327507828885
205.987,0.02309719561598378,0.02309719561598378
205.988,0.006050141101915152,0.006050141101915152
205.989,0.005296085108799198,-0.005296085108799198
205.99,0.008514994099074857,-0.008514994099074857
205.991,0.0032297777668237604,-0.0032297777668237604
205.992,0.008790693589948662,0.008790693589948662
205.993,0.024149175071559226,0.024149175071559226
205.994,0.03879591751404998,0.03879591751404998
205.995,0.049171491236091214,0.049171491236091214
205.996,0.05317955710345901,0.05317955710345901
205.997,0.05071043326949498,0.05071043326949498
205.998,0.04357650578821759,0.04357650578821759
205.999,0.03489743561462788,0.03489743561462788
206.0,0.028131791751929702,0.028131791751929702
206.001,0.026045555120278063,0.026045555120278063
206.002,0.02991250291404679,0.02991250291404679
206.003,0.03916074720793472,0.03916074720793472
206.004,0.05154277866193935,0.05154277866193935
206.005,0.06375681029173363,0.06375681029173363
206.006,0.07232873692650799,0.07232873692650799
206.007,0.07450744325704428,0.07450744325704428
206.008,0.0689415869942489,0.0689415869942489
206.009,0.05598193734764423,0.05598193734764423
206.01,0.037562727772714855,0.037562727772714855
206.011,0.016725170733742356,0.016725170733742356
206.012,0.003072616279667706,-0.003072616279667706
206.013,0.018679704665203634,-0.018679704665203634
206.014,0.0278439289069492,-0.0278439289069492
206.015,0.029555467597898732,-0.029555467597898732
206.016,0.02409791503992742,-0.02409791503992742
206.017,0.012833379860101912,-0.012833379860101912
206.018,0.0021968880986693584,0.0021968880986693584
206.019,0.018745487775282177,0.018745487775282177
206.02,0.034793156444818285,0.034793156444818285
206.021,0.048854769533021924,0.048854769533021924
206.022,0.060106794704693156,0.060106794704693156
206.023,0.06833245206742355,0.06833245206742355
206.024,0.07372479651321107,0.07372479651321107
206.025,0.07662050471531479,0.07662050471531479
206.026,0.07725140704574507,0.07725140704574507
206.027,0.0755930283232924,0.0755930283232924
206.028,0.07136032688721805,0.07136032688721805
206.029,0.06415642574031022,0.06415642574031022
206.03,0.05373122237750416,0.05373122237750416
206.031,0.04026694166987843,0.04026694166987843
206.032,0.02458980189678872,0.02458980189678872
206.033,0.008218932174799631,0.008218932174799631
206.034,0.006794835006969757,-0.006794835006969757
206.035,0.018226452665148107,-0.018226452665148107
206.036,0.024152945517827984,-0.024152945517827984
206.037,0.023424998146335585,-0.023424998146335585
206.038,0.01599838132870035,-0.01599838132870035
206.039,0.0030187324352694,-0.0030187324352694
206.04,0.013382685833581709,0.013382685833581709
206.041,0.030543079558457586,0.030543079558457586
206.042,0.04585849720534596,0.04585849720534596
206.043,0.05735339591460864,0.05735339591460864
206.044,0.06407469205366123,0.06407469205366123
206.045,0.06620471183859489,0.06620471183859489
206.046,0.0648691740326992,0.0648691740326992
206.047,0.06170565954472362,0.06170565954472362
206.048,0.0583270969682852,0.0583270969682852
206.049,0.05584201387882115,0.05584201387882115
206.05,0.05457048726201297,0.05457048726201297
206.051,0.05402983686260976,0.05402983686260976
206.052,0.05317855673277738,0.05317855673277738
206.053,0.05082842012652855,0.05082842012652855
206.054,0.04608775363304485,0.04608775363304485
206.055,0.03869709342037453,0.03869709342037453
206.056,0.029160099842216125,0.029160099842216125
206.057,0.018641905798907565,0.018641905798907565
206.058,0.008680009913599074,0.008680009913599074
206.059,0.000805693939183838,0.000805693939183838
206.06,0.003808661453976514,-0.003808661453976514
206.061,0.004581451281747473,-0.004581451281747473
206.062,0.0015857686506841606,-0.0015857686506841606
206.063,0.004545537097392582,0.004545537097392582
206.064,0.012819717814797071,0.012819717814797071
206.065,0.02211511170050362,0.02211511170050362
206.066,0.031377722763795024,0.031377722763795024
206.067,0.03974655941702965,0.03974655941702965
206.068,0.04660560650410339,0.04660560650410339
206.069,0.05158610477656467,0.05158610477656467
206.07,0.05455037071028035,0.05455037071028035
206.071,0.05557742833083035,0.05557742833083035
206.072,0.05494956083630065,0.05494956083630065
206.073,0.0531203571485348,0.0531203571485348
206.074,0.05064031917691669,0.05064031917691669
206.075,0.04803022183287653,0.04803022183287653
206.076,0.04562054509168001,0.04562054509168001
206.077,0.04340504943186563,0.04340504943186563
206.078,0.04097280111491819,0.04097280111491819
206.079,0.03757428188298606,0.03757428188298606
206.08,0.03234143815657431,0.03234143815657431
206.081,0.02462769778708851,0.02462769778708851
206.082,0.014380088942371527,0.014380088942371527
206.083,0.002422434178942723,0.002422434178942723
206.084,0.009467947734502546,-0.009467947734502546
206.085,0.01876302841958999,-0.01876302841958999
206.086,0.022663303158940606,-0.022663303158940606
206.087,0.018764480416704976,-0.018764480416704976
206.088,0.005753635388544787,-0.005753635388544787
206.089,0.016051861040426108,0.016051861040426108
206.09,0.04448581571247234,0.04448581571247234
206.091,0.0757264316270243,0.0757264316270243
206.092,0.10489128535936687,0.10489128535936687
206.093,0.12692129587188972,0.12692129587188972
206.094,0.1375652513091754,0.1375652513091754
206.095,0.13424831804896153,0.13424831804896153
206.096,0.11663375020479894,0.11663375020479894
206.097,0.08675797325931356,0.08675797325931356
206.098,0.048714946040338436,0.048714946040338436
206.099,0.007961056534281141,0.007961056534281141
206.1,0.02961553658512106,-0.02961553658512106
206.101,0.05868090934958092,-0.05868090934958092
206.102,0.07531927293361551,-0.07531927293361551
206.103,0.0776322743987955,-0.0776322743987955
206.104,0.06598606291327824,-0.06598606291327824
206.105,0.042880300020857076,-0.042880300020857076
206.106,0.012472031860744637,-0.012472031860744637
206.107,0.020162900339673717,0.020162900339673717
206.108,0.049910362532146424,0.049910362532146424
206.109,0.07249600903229503,0.07249600903229503
206.11,0.08521025529219228,0.08521025529219228
206.111,0.0873450725648075,0.0873450725648075
206.112,0.08024875232992357,0.08024875232992357
206.113,0.06697088767460246,0.06697088767460246
206.114,0.051552702001591344,0.051552702001591344
206.115,0.03810130601204276,0.03810130601204276
206.116,0.029848867802412915,0.029848867802412915
206.117,0.028417995695001474,0.028417995695001474
206.118,0.03347989248442418,0.03347989248442418
206.119,0.04290347956079321,0.04290347956079321
206.12,0.05336996971598884,0.05336996971598884
206.121,0.06130024123184574,0.06130024123184574
206.122,0.06384903629169147,0.06384903629169147
206.123,0.05969144060368037,0.05969144060368037
206.124,0.04937717889170923,0.04937717889170923
206.125,0.0351474463786321,0.0351474463786321
206.126,0.020265210191411143,0.020265210191411143
206.127,0.008057018507210634,0.008057018507210634
206.128,0.0009560331492755036,0.0009560331492755036
206.129,0.00015922569360504735,-0.00015922569360504735
206.13,0.0038764682352769864,0.0038764682352769864
206.131,0.010909796477602152,0.010909796477602152
206.132,0.018290355402405423,0.018290355402405423
206.133,0.023849481404238704,0.023849481404238704
206.134,0.026706839556373208,0.026706839556373208
206.135,0.0276203521169458,0.0276203521169458
206.136,0.028735598242329408,0.028735598242329408
206.137,0.032785397209800005,0.032785397209800005
206.138,0.04197828208753496,0.04197828208753496
206.139,0.05693483005894673,0.05693483005894673
206.14,0.07604125259918892,0.07604125259918892
206.141,0.09548142607818155,0.09548142607818155
206.142,0.11001013335928311,0.11001013335928311
206.143,0.11429981827385549,0.11429981827385549
206.144,0.10450116483924288,0.10450116483924288
206.145,0.0795656162123719,0.0795656162123719
206.146,0.04191831447438732,0.04191831447438732
206.147,0.0027638367696403154,-0.0027638367696403154
206.148,0.04666739546847154,-0.04666739546847154
206.149,0.08159258889656329,-0.08159258889656329
206.15,0.10088932432110576,-0.10088932432110576
206.151,0.10106257704775856,-0.10106257704775856
206.152,0.08260952548791567,-0.08260952548791567
206.153,0.0498554796564975,-0.0498554796564975
206.154,0.009828963046800032,-0.009828963046800032
206.155,0.029519558890818587,0.029519558890818587
206.156,0.06127156775995779,0.06127156775995779
206.157,0.08114037843956212,0.08114037843956212
206.158,0.0882960370512651,0.0882960370512651
206.159,0.08521768270402474,0.08521768270402474
206.16,0.07665242240615067,0.07665242240615067
206.161,0.06800978617850939,0.06800978617850939
206.162,0.06367262171804411,0.06367262171804411
206.163,0.06571608790675021,0.06571608790675021
206.164,0.0733946580734377,0.0733946580734377
206.165,0.08352270624502833,0.08352270624502833
206.166,0.0916069925694476,0.0916069925694476
206.167,0.09336809257739809,0.09336809257739809
206.168,0.08617748387230506,0.08617748387230506
206.169,0.06996949570144495,0.06996949570144495
206.17,0.04735201667280586,0.04735201667280586
206.171,0.0228866985569518,0.0228866985569518
206.172,0.0017637247656130395,0.0017637247656130395
206.173,0.01171900820297378,-0.01171900820297378
206.174,0.015403470638811867,-0.015403470638811867
206.175,0.009862135969952779,-0.009862135969952779
206.176,0.0018483943377320955,0.0018483943377320955
206.177,0.015190844072167975,0.015190844072167975
206.178,0.02559163508176998,0.02559163508176998
206.179,0.02987127307616433,0.02987127307616433
206.18,0.027208916841733988,0.027208916841733988
206.181,0.0193348890747993,0.0193348890747993
206.182,0.009888967855984587,0.009888967855984587
206.183,0.0031490543119570003,0.0031490543119570003
206.184,0.002539833362047883,0.002539833362047883
206.185,0.009407837983684386,0.009407837983684386
206.186,0.022470861922956775,0.022470861922956775
206.187,0.038137959677856825,0.038137959677856825
206.188,0.051616599338083935,0.051616599338083935
206.189,0.058464608989752476,0.058464608989752476
206.19,0.056090616168325,0.056090616168325
206.191,0.04471017505845887,0.04471017505845887
206.192,0.02742853496144604,0.02742853496144604
206.193,0.009395929851023999,0.009395929851023999
206.194,0.0037191613676087476,-0.0037191613676087476
206.195,0.007465965506228134,-0.007465965506228134
206.196,4.480358496317116e-06,-4.480358496317116e-06
206.197,0.017298043591088996,0.017298043591088996
206.198,0.040272489847891,0.040272489847891
206.199,0.06323940159934294,0.06323940159934294
206.2,0.08078045622350172,0.08078045622350172
206.201,0.08941956340010693,0.08941956340010693
206.202,0.08866225024109697,0.08866225024109697
206.203,0.08104230835615156,0.08104230835615156
206.204,0.07114503546444939,0.07114503546444939
206.205,0.06391469280451334,0.06391469280451334
206.206,0.0627995591694428,0.0627995591694428
206.207,0.06835836785010452,0.06835836785010452
206.208,0.07781948245435788,0.07781948245435788
206.209,0.08578692303382618,0.08578692303382618
206.21,0.0859177583071895,0.0859177583071895
206.211,0.073071307871305,0.073071307871305
206.212,0.045257558069067505,0.045257558069067505
206.213,0.004749025866074286,0.004749025866074286
206.214,0.0420404163154533,-0.0420404163154533
206.215,0.08593656610852718,-0.08593656610852718
206.216,0.11728670179797229,-0.11728670179797229
206.217,0.128501242258383,-0.128501242258383
206.218,0.1161245505863332,-0.1161245505863332
206.219,0.0818346823624585,-0.0818346823624585
206.22,0.032082335660958416,-0.032082335660958416
206.221,0.023525921526101,0.023525921526101
206.222,0.07463616426281772,0.07463616426281772
206.223,0.1126674885741541,0.1126674885741541
206.224,0.1327525050705043,0.1327525050705043
206.225,0.13459564840122717,0.13459564840122717
206.226,0.12207426082446649,0.12207426082446649
206.227,0.1017699482586194,0.1017699482586194
206.228,0.08090710244595312,0.08090710244595312
206.229,0.06531086315518353,0.06531086315518353
206.23,0.05794803286524486,0.05794803286524486
206.231,0.05840827682776184,0.05840827682776184
206.232,0.06339098812478672,0.06339098812478672
206.233,0.06797697878758191,0.06797697878758191
206.234,0.06726570588673098,0.06726570588673098
206.235,0.05789661425264647,0.05789661425264647
206.236,0.039050997957791767,0.039050997957791767
206.237,0.012710850759821923,0.012710850759821923
206.238,0.016829443587411674,-0.016829443587411674
206.239,0.04401009890931307,-0.04401009890931307
206.24,0.06330609519193497,-0.06330609519193497
206.241,0.07045315418906661,-0.07045315418906661
206.242,0.06333451547927316,-0.06333451547927316
206.243,0.04237762121203459,-0.04237762121203459
206.244,0.01043580507417019,-0.01043580507417019
206.245,0.027765427383941388,0.027765427383941388
206.246,0.06647307675328573,0.06647307675328573
206.247,0.09987412495818715,0.09987412495818715
206.248,0.12302505053932156,0.12302505053932156
206.249,0.13260769040436848,0.13260769040436848
206.25,0.12740874543770997,0.12740874543770997
206.251,0.10845819781223276,0.10845819781223276
206.252,0.07880683898107144,0.07880683898107144
206.253,0.042976747265429216,0.042976747265429216
206.254,0.006177118981351981,0.006177118981351981
206.255,0.026570201652724612,-0.026570201652724612
206.256,0.05122260535095846,-0.05122260535095846
206.257,0.0652633085210752,-0.0652633085210752
206.258,0.06789473939303103,-0.06789473939303103
206.259,0.05986110106486464,-0.05986110106486464
206.26,0.042984222940124495,-0.042984222940124495
206.261,0.019577510887010874,-0.019577510887010874
206.262,0.00806712994775416,0.00806712994775416
206.263,0.037959957212580386,0.037959957212580386
206.264,0.06839556915123501,0.06839556915123501
206.265,0.09769205060370934,0.09769205060370934
206.266,0.12384901672103599,0.12384901672103599
206.267,0.14433627578444597,0.14433627578444597
206.268,0.15619370914271347,0.15619370914271347
206.269,0.15651485893611894,0.15651485893611894
206.27,0.14323481981765096,0.14323481981765096
206.271,0.11600006228335502,0.11600006228335502
206.272,0.07681821318963133,0.07681821318963133
206.273,0.030205952494665622,0.030205952494665622
206.274,0.017323292248346056,-0.017323292248346056
206.275,0.058396116789542485,-0.058396116789542485
206.276,0.08630033314111474,-0.08630033314111474
206.277,0.09650429083095002,-0.09650429083095002
206.278,0.08775287874860249,-0.08775287874860249
206.279,0.062413395468532085,-0.062413395468532085
206.28,0.02594528795250084,-0.02594528795250084
206.281,0.01438482223802584,0.01438482223802584
206.282,0.051204034390995856,0.051204034390995856
206.283,0.07869246626469639,0.07869246626469639
206.284,0.09376103768011745,0.09376103768011745
206.285,0.09645588379598569,0.09645588379598569
206.286,0.08952856325220382,0.08952856325220382
206.287,0.07735199142789839,0.07735199142789839
206.288,0.0645379495648375,0.0645379495648375
206.289,0.054671548143933935,0.054671548143933935
206.29,0.0495087894714521,0.0495087894714521
206.291,0.048814737807208575,0.048814737807208575
206.292,0.05081131041557008,0.05081131041557008
206.293,0.05302388177088413,0.05302388177088413
206.294,0.053219066137904836,0.053219066137904836
206.295,0.0501352141260456,0.0501352141260456
206.296,0.04380863111405642,0.04380863111405642
206.297,0.03544948485550736,0.03544948485550736
206.298,0.026966987442423207,0.026966987442423207
206.299,0.020336827927351253,0.020336827927351253
206.3,0.017021523541703498,0.017021523541703498
206.301,0.01760199221738623,0.01760199221738623
206.302,0.021685567223934887,0.021685567223934887
206.303,0.02806126277233334,0.02806126277233334
206.304,0.03501073496298446,0.03501073496298446
206.305,0.04066836831434051,0.04066836831434051
206.306,0.0433498544723554,0.0433498544723554
206.307,0.04181305818588665,0.04181305818588665
206.308,0.03545131562037884,0.03545131562037884
206.309,0.024429705540987223,0.024429705540987223
206.31,0.009758148939596811,0.009758148939596811
206.311,0.006733088821868738,-0.006733088821868738
206.312,0.02256588945103155,-0.02256588945103155
206.313,0.034969036738077386,-0.034969036738077386
206.314,0.04139684638709673,-0.04139684638709673
206.315,0.04011962353641796,-0.04011962353641796
206.316,0.030730164316710495,-0.030730164316710495
206.317,0.014390553245651638,-0.014390553245651638
206.318,0.006311366294776022,0.006311366294776022
206.319,0.027919367920774762,0.027919367920774762
206.32,0.04696480098197475,0.04696480098197475
206.321,0.06088432317869863,0.06088432317869863
206.322,0.06870830933231864,0.06870830933231864
206.323,0.07127276425451434,0.07127276425451434
206.324,0.07084674875324204,0.07084674875324204
206.325,0.07026187049883226,0.07026187049883226
206.326,0.07181465743394644,0.07181465743394644
206.327,0.07631759291681184,0.07631759291681184
206.328,0.08265367975063764,0.08265367975063764
206.329,0.08803819525647749,0.08803819525647749
206.33,0.08895302928787707,0.08895302928787707
206.331,0.08247261720855747,0.08247261720855747
206.332,0.06753448487357971,0.06753448487357971
206.333,0.04568812820972257,0.04568812820972257
206.334,0.021001642373003726,0.021001642373003726
206.335,0.000923589330907304,-0.000923589330907304
206.336,0.014571126513328148,-0.014571126513328148
206.337,0.016261679451373134,-0.016261679451373134
206.338,0.005458018255952601,-0.005458018255952601
206.339,0.01484511358966012,0.01484511358966012
206.34,0.03883279054861055,0.03883279054861055
206.341,0.059510335607317,0.059510335607317
206.342,0.07078111180876401,0.07078111180876401
206.343,0.06930493024005324,0.06930493024005324
206.344,0.055530302032781975,0.055530302032781975
206.345,0.03354964176450492,0.03354964176450492
206.346,0.009807400560315704,0.009807400560315704
206.347,0.008929414186294338,-0.008929414186294338
206.348,0.017680016672474652,-0.017680016672474652
206.349,0.014748655899945673,-0.014748655899945673
206.35,0.002125290262420254,-0.002125290262420254
206.351,0.015332370235583648,0.015332370235583648
206.352,0.03164545200553248,0.03164545200553248
206.353,0.041785975345770554,0.041785975345770554
206.354,0.043363575798621934,0.043363575798621934
206.355,0.0373522338905663,0.0373522338905663
206.356,0.027616622699806914,0.027616622699806914
206.357,0.019415441750055384,0.019415441750055384
206.358,0.017415988609935873,0.017415988609935873
206.359,0.023926023771598803,0.023926023771598803
206.36,0.037974983330006706,0.037974983330006706
206.361,0.05558106998453338,0.05558106998453338
206.362,0.07112509868232264,0.07112509868232264
206.363,0.07935994773897215,0.07935994773897215
206.364,0.07735257418146158,0.07735257418146158
206.365,0.06566574370604084,0.06566574370604084
206.366,0.04833773984951528,0.04833773984951528
206.367,0.031626181928438024,0.031626181928438024
206.368,0.021908231200361783,0.021908231200361783
206.369,0.023428512161743242,0.023428512161743242
206.37,0.036655365892647174,0.036655365892647174
206.371,0.05782052907897128,0.05782052907897128
206.372,0.07983777474503961,0.07983777474503961
206.373,0.09434810260103821,0.09434810260103821
206.374,0.0942705368796255,0.0942705368796255
206.375,0.07606882889138422,0.07606882889138422
206.376,0.04102864502710735,0.04102864502710735
206.377,0.004853081179130192,-0.004853081179130192
206.378,0.052337005407327664,-0.052337005407327664
206.379,0.0913284270846183,-0.0913284270846183
206.38,0.11347831788192508,-0.11347831788192508
206.381,0.11425342149716833,-0.11425342149716833
206.382,0.09391657062992353,-0.09391657062992353
206.383,0.05720256417402936,-0.05720256417402936
206.384,0.011862717341404427,-0.011862717341404427
206.385,0.033438648249552116,0.033438648249552116
206.386,0.07124860352314633,0.07124860352314633
206.387,0.09689619252146664,0.09689619252146664
206.388,0.10914988911501289,0.10914988911501289
206.389,0.10990005371794731,0.10990005371794731
206.39,0.10308574530994141,0.10308574530994141
206.391,0.09326776399947634,0.09326776399947634
206.392,0.08429139042254197,0.08429139042254197
206.393,0.07838974145499833,0.07838974145499833
206.394,0.07589933357631251,0.07589933357631251
206.395,0.07556044367093095,0.07556044367093095
206.396,0.07521845774850178,0.07521845774850178
206.397,0.07266666891114437,0.07266666891114437
206.398,0.06638168697677282,0.06638168697677282
206.399,0.05597761580475025,0.05597761580475025
206.4,0.04230778624961351,0.04230778624961351
206.401,0.027237838106490164,0.027237838106490164
206.402,0.013179347285733778,0.013179347285733778
206.403,0.0025041816325130917,0.0025041816325130917
206.404,0.0030355950610118088,-0.0030355950610118088
206.405,0.002767259719621218,-0.002767259719621218
206.406,0.0026614634582513563,0.0026614634582513563
206.407,0.011331662195803727,0.011331662195803727
206.408,0.02042284169062536,0.02042284169062536
206.409,0.02686959022617197,0.02686959022617197
206.41,0.02819232860487131,0.02819232860487131
206.411,0.023312017189546674,0.023312017189546674
206.412,0.013113536670615433,0.013113536670615433
206.413,0.0005384754203556774,0.0005384754203556774
206.414,0.009919864350275587,-0.009919864350275587
206.415,0.013288896178150655,-0.013288896178150655
206.416,0.005542026682893719,-0.005542026682893719
206.417,0.014990620408132038,0.014990620408132038
206.418,0.046655733823657064,0.046655733823657064
206.419,0.0843182325596803,0.0843182325596803
206.42,0.12018077627488455,0.12018077627488455
206.421,0.14547618874638957,0.14547618874638957
206.422,0.152649960012192,0.152649960012192
206.423,0.1374601852444748,0.1374601852444748
206.424,0.10039073836898282,0.10039073836898282
206.425,0.04692476867523365,0.04692476867523365
206.426,0.013473717178189015,-0.013473717178189015
206.427,0.06945695026780496,-0.06945695026780496
206.428,0.11043634952701198,-0.11043634952701198
206.429,0.12906624797389077,-0.12906624797389077
206.43,0.12289663388780958,-0.12289663388780958
206.431,0.09475639021990934,-0.09475639021990934
206.432,0.05179227992095936,-0.05179227992095936
206.433,0.003471576481561156,-0.003471576481561156
206.434,0.040860045615869645,0.040860045615869645
206.435,0.07417452570754923,0.07417452570754923
206.436,0.09313129980551382,0.09313129980551382
206.437,0.09831974311893155,0.09831974311893155
206.438,0.09342500071434867,0.09342500071434867
206.439,0.08367917576667572,0.08367917576667572
206.44,0.07413425840993315,0.07413425840993315
206.441,0.06828497809376533,0.06828497809376533
206.442,0.06739607723519092,0.06739607723519092
206.443,0.07062051872920039,0.07062051872920039
206.444,0.07573077503290526,0.07573077503290526
206.445,0.08011377665761876,0.08011377665761876
206.446,0.08165098208955746,0.08165098208955746
206.447,0.07921331012015775,0.07921331012015775
206.448,0.07269187355236939,0.07269187355236939
206.449,0.06267881727201363,0.06267881727201363
206.45,0.05003288862672162,0.05003288862672162
206.451,0.035570367929761426,0.035570367929761426
206.452,0.020020641441845566,0.020020641441845566
206.453,0.004227496168436762,0.004227496168436762
206.454,0.010565468079536844,-0.010565468079536844
206.455,0.02256965676661793,-0.02256965676661793
206.456,0.029623575917228306,-0.029623575917228306
206.457,0.029718712669859038,-0.029718712669859038
206.458,0.02173948509807644,-0.02173948509807644
206.459,0.006141310219330287,-0.006141310219330287
206.46,0.014742034821349392,0.014742034821349392
206.461,0.03697543725093366,0.03697543725093366
206.462,0.05590038205587766,0.05590038205587766
206.463,0.06740026677015942,0.06740026677015942
206.464,0.06916408682561959,0.06916408682561959
206.465,0.06151140501608787,0.06151140501608787
206.466,0.0474502290485852,0.0474502290485852
206.467,0.031877235536177384,0.031877235536177384
206.468,0.020119266195506302,0.020119266195506302
206.469,0.01625520297551919,0.01625520297551919
206.47,0.021759642671002277,0.021759642671002277
206.471,0.034930848297033856,0.034930848297033856
206.472,0.05132445409815345,0.05132445409815345
206.473,0.06508844902412525,0.06508844902412525
206.474,0.07079343859585441,0.07079343859585441
206.475,0.06517895025236209,0.06517895025236209
206.476,0.04825334202455811,0.04825334202455811
206.477,0.023388995123745593,0.023388995123745593
206.478,0.0036211273066432126,-0.0036211273066432126
206.479,0.026243469251801543,-0.026243469251801543
206.48,0.03908360891670293,-0.03908360891670293
206.481,0.0393735631790465,-0.0393735631790465
206.482,0.027615018503711952,-0.027615018503711952
206.483,0.007212859785543202,-0.007212859785543202
206.484,0.016734197119931737,0.016734197119931737
206.485,0.03905320775405263,0.03905320775405263
206.486,0.05598255470656177,0.05598255470656177
206.487,0.06605436197030334,0.06605436197030334
206.488,0.07013418369580893,0.07013418369580893
206.489,0.07067764622721961,0.07067764622721961
206.49,0.0705269725879607,0.0705269725879607
206.491,0.07170812958808037,0.07170812958808037
206.492,0.0746593902678565,0.0746593902678565
206.493,0.07814246935217373,0.07814246935217373
206.494,0.0798280753095808,0.0798280753095808
206.495,0.07730408790919618,0.07730408790919618
206.496,0.06911258433379164,0.06911258433379164
206.497,0.05542792809531605,0.05542792809531605
206.498,0.0381337095200438,0.0381337095200438
206.499,0.02028339787081168,0.02028339787081168
206.5,0.005153052031647842,0.005153052031647842
206.501,0.0047661091557659185,-0.0047661091557659185
206.502,0.008479018063218935,-0.008479018063218935
206.503,0.006665981047483949,-0.006665981047483949
206.504,0.0012940786046647945,-0.0012940786046647945
206.505,0.005170682358949907,0.005170682358949907
206.506,0.010647817589063413,0.010647817589063413
206.507,0.014102641462041765,0.014102641462041765
206.508,0.015760903917380498,0.015760903917380498
206.509,0.016831498189245897,0.016831498189245897
206.51,0.018874289355454543,0.018874289355454543
206.511,0.02307372066849478,0.02307372066849478
206.512,0.029699716591399028,0.029699716591399028
206.513,0.03795237053624434,0.03795237053624434
206.514,0.04623235828038763,0.04623235828038763
206.515,0.05271582868075342,0.05271582868075342
206.516,0.05600241566986064,0.05600241566986064
206.517,0.05558739504983068,0.05558739504983068
206.518,0.05198692087675427,0.05198692087675427
206.519,0.04648547219406485,0.04648547219406485
206.52,0.04062132096370785,0.04062132096370785
206.521,0.03562248991846606,0.03562248991846606
206.522,0.03201659267879009,0.03201659267879009
206.523,0.02956126665281733,0.02956126665281733
206.524,0.027509468325530584,0.027509468325530584
206.525,0.025088336533412248,0.025088336533412248
206.526,0.021984523967786274,0.021984523967786274
206.527,0.018625763445706323,0.018625763445706323
206.528,0.01612867719067279,0.01612867719067279
206.529,0.015915151436398656,0.015915151436398656
206.53,0.01913299889106823,0.01913299889106823
206.531,0.02610000724597783,0.02610000724597783
206.532,0.035991871958977795,0.035991871958977795
206.533,0.046912908109950635,0.046912908109950635
206.534,0.056353705951503574,0.056353705951503574
206.535,0.061901277296053214,0.061901277296053214
206.536,0.061974845127953815,0.061974845127953815
206.537,0.056346856503633136,0.056346856503633136
206.538,0.046277698649731525,0.046277698649731525
206.539,0.03421820932483932,0.03421820932483932
206.54,0.02317154916705788,0.02317154916705788
206.541,0.015908306636678082,0.015908306636678082
206.542,0.014263533690882513,0.014263533690882513
206.543,0.01870488299930151,0.01870488299930151
206.544,0.028266443286073972,0.028266443286073972
206.545,0.04082983077374025,0.04082983077374025
206.546,0.05364176641175611,0.05364176641175611
206.547,0.06391299155822971,0.06391299155822971
206.548,0.06935345158480066,0.06935345158480066
206.549,0.0685489330544149,0.0685489330544149
206.55,0.06114787663233545,0.06114787663233545
206.551,0.0478768954960298,0.0478768954960298
206.552,0.030423937576121274,0.030423937576121274
206.553,0.01122032622968705,0.01122032622968705
206.554,0.006867030992451895,-0.006867030992451895
206.555,0.020932768303555505,-0.020932768303555505
206.556,0.028505319550966912,-0.028505319550966912
206.557,0.028041397088666598,-0.028041397088666598
206.558,0.01934227623210749,-0.01934227623210749
206.559,0.003761821804586729,-0.003761821804586729
206.56,0.0159105581144805,0.0159105581144805
206.561,0.03594210553448973,0.03594210553448973
206.562,0.052465651192519225,0.052465651192519225
206.563,0.0624297755393628,0.0624297755393628
206.564,0.06443286527247483,0.06443286527247483
206.565,0.059175581942897626,0.059175581942897626
206.566,0.04934809070397539,0.04934809070397539
206.567,0.03892501763487233,0.03892501763487233
206.568,0.03202751103791601,0.03202751103791601
206.569,0.03166658293473379,0.03166658293473379
206.57,0.0387482694866923,0.0387482694866923
206.571,0.0516679493645511,0.0516679493645511
206.572,0.06665640141681561,0.06665640141681561
206.573,0.07881116487969164,0.07881116487969164
206.574,0.0835260740540229,0.0835260740540229
206.575,0.07789345350101828,0.07789345350101828
206.576,0.061647076519015576,0.061647076519015576
206.577,0.037346714019097726,0.037346714019097726
206.578,0.009737342532621485,0.009737342532621485
206.579,0.0155263676773435,-0.0155263676773435
206.58,0.033401127091377214,-0.033401127091377214
206.581,0.04075882531210928,-0.04075882531210928
206.582,0.037085988274096926,-0.037085988274096926
206.583,0.024391607383098757,-0.024391607383098757
206.584,0.006392739223766375,-0.006392739223766375
206.585,0.012725029952318279,0.012725029952318279
206.586,0.02955176013565808,0.02955176013565808
206.587,0.04230139805277999,0.04230139805277999
206.588,0.051016475681752604,0.051016475681752604
206.589,0.057112275642375865,0.057112275642375865
206.59,0.06247095997491958,0.06247095997491958
206.591,0.06844268712256207,0.06844268712256207
206.592,0.07512826953420482,0.07512826953420482
206.593,0.08120419802338996,0.08120419802338996
206.594,0.08434912960858498,0.08434912960858498
206.595,0.08211379449983669,0.08211379449983669
206.596,0.07291962482684511,0.07291962482684511
206.597,0.05682793177807488,0.05682793177807488
206.598,0.03580298336431609,0.03580298336431609
206.599,0.013367014292710477,0.013367014292710477
206.6,0.006249892733155904,-0.006249892733155904
206.601,0.019197922749536023,-0.019197922749536023
206.602,0.02299698989757415,-0.02299698989757415
206.603,0.01713499522223816,-0.01713499522223816
206.604,0.0031190923946633475,-0.0031190923946633475
206.605,0.015997879679133797,0.015997879679133797
206.606,0.03643676371740123,0.03643676371740123
206.607,0.0545929842961792,0.0545929842961792
206.608,0.06776300130599289,0.06776300130599289
206.609,0.07452966590454912,0.07452966590454912
206.61,0.07477050600858548,0.07477050600858548
206.611,0.06937465913821828,0.06937465913821828
206.612,0.05982524161055691,0.05982524161055691
206.613,0.04780617517488439,0.04780617517488439
206.614,0.03493586511774338,0.03493586511774338
206.615,0.022646415874670422,0.022646415874670422
206.616,0.012155362886737686,0.012155362886737686
206.617,0.0044470920318799845,0.0044470920318799845
206.618,0.00020209510358482063,0.00020209510358482063
206.619,0.00033076301491941074,-0.00033076301491941074
206.62,0.002538313924519864,0.002538313924519864
206.621,0.007904239092159981,0.007904239092159981
206.622,0.01439978686251342,0.01439978686251342
206.623,0.020512690045872084,0.020512690045872084
206.624,0.025018932345838296,0.025018932345838296
206.625,0.027393930944753064,0.027393930944753064
206.626,0.028041014833780187,0.028041014833780187
206.627,0.028218786537972607,0.028218786537972607
206.628,0.029646446942881655,0.029646446942881655
206.629,0.03388589508005224,0.03388589508005224
206.63,0.041696136528218686,0.041696136528218686
206.631,0.052589113382021324,0.052589113382021324
206.632,0.064767716686986,0.064767716686986
206.633,0.07550772086730428,0.07550772086730428
206.634,0.08189447590007437,0.08189447590007437
206.635,0.08169548858629505,0.08169548858629505
206.636,0.0740896417599668,0.0740896417599668
206.637,0.060007756788946987,0.060007756788946987
206.638,0.04195928263086213,0.04195928263086213
206.639,0.023386573170526948,0.023386573170526948
206.64,0.007744244153901292,0.007744244153901292
206.641,0.002408085546059535,-0.002408085546059535
206.642,0.00601786222859757,-0.00601786222859757
206.643,0.003676277477292378,-0.003676277477292378
206.644,0.0027398192815715205,0.0027398192815715205
206.645,0.010776813063819723,0.010776813063819723
206.646,0.01821114433522153,0.01821114433522153
206.647,0.023683342614351455,0.023683342614351455
206.648,0.026965102097959548,0.026965102097959548
206.649,0.0288054629045027,0.0288054629045027
206.65,0.030453240552511085,0.030453240552511085
206.651,0.03305968237240564,0.03305968237240564
206.652,0.0371910345026365,0.0371910345026365
206.653,0.04261989748557782,0.04261989748557782
206.654,0.04844428468545847,0.04844428468545847
206.655,0.05345304508768489,0.05345304508768489
206.656,0.05656688506189855,0.05656688506189855
206.657,0.05716910313424295,0.05716910313424295
206.658,0.055202371409371676,0.055202371409371676
206.659,0.05101925012828934,0.05101925012828934
206.66,0.04508670099705392,0.04508670099705392
206.661,0.03771045872941037,0.03771045872941037
206.662,0.028934879217991538,0.028934879217991538
206.663,0.018690475452153743,0.018690475452153743
206.664,0.007138650585057693,0.007138650585057693
206.665,0.004946726980571414,-0.004946726980571414
206.666,0.0159686672015803,-0.0159686672015803
206.667,0.023633503276825674,-0.023633503276825674
206.668,0.025458853862111885,-0.025458853862111885
206.669,0.01954835710699543,-0.01954835710699543
206.67,0.0053837191428716125,-0.0053837191428716125
206.671,0.01566809608286701,0.01566809608286701
206.672,0.04037524011716287,0.04037524011716287
206.673,0.06427095604069022,0.06427095604069022
206.674,0.08276427998901736,0.08276427998901736
206.675,0.09241575060091933,0.09241575060091933
206.676,0.09197092937070162,0.09197092937070162
206.677,0.082789827267443,0.082789827267443
206.678,0.06848671912885029,0.06848671912885029
206.679,0.05384879108709262,0.05384879108709262
206.68,0.04334900179620571,0.04334900179620571
206.681,0.03972161741362212,0.03972161741362212
206.682,0.043070016820300205,0.043070016820300205
206.683,0.05081813197505647,0.05081813197505647
206.684,0.0585471712923169,0.0585471712923169
206.685,0.06146640117382485,0.06146640117382485
206.686,0.05604986316771243,0.05604986316771243
206.687,0.04130563476575677,0.04130563476575677
206.688,0.019255912048260715,0.019255912048260715
206.689,0.005540016592429975,-0.005540016592429975
206.69,0.027275817682361758,-0.027275817682361758
206.691,0.040591477341176074,-0.040591477341176074
206.692,0.04213055230729634,-0.04213055230729634
206.693,0.03147145789695216,-0.03147145789695216
206.694,0.011154118637550892,-0.011154118637550892
206.695,0.014176641673358858,0.014176641673358858
206.696,0.03920312766588574,0.03920312766588574
206.697,0.05945814843905084,0.05945814843905084
206.698,0.07244716453300382,0.07244716453300382
206.699,0.07803465082829075,0.07803465082829075
206.7,0.07802598128462046,0.07802598128462046
206.701,0.07515492798671386,0.07515492798671386
206.702,0.07188120444797108,0.07188120444797108
206.703,0.06944675817233925,0.06944675817233925
206.704,0.06752246798634931,0.06752246798634931
206.705,0.06454469001499641,0.06454469001499641
206.706,0.05857997477058885,0.05857997477058885
206.707,0.048361219452789594,0.048361219452789594
206.708,0.0340791279664181,0.0340791279664181
206.709,0.017608738417391745,0.017608738417391745
206.71,0.002065111077124815,0.002065111077124815
206.711,0.009164375653392898,-0.009164375653392898
206.712,0.013564296163423362,-0.013564296163423362
206.713,0.010392703354929367,-0.010392703354929367
206.714,0.0010016342836828285,-0.0010016342836828285
206.715,0.011556158587762821,0.011556158587762821
206.716,0.023511054092687278,0.023511054092687278
206.717,0.03161370451441692,0.03161370451441692
206.718,0.03419330895780037,0.03419330895780037
206.719,0.03166385220082746,0.03166385220082746
206.72,0.026297685611346377,0.026297685611346377
206.721,0.021343897684250823,0.021343897684250823
206.722,0.01980111785897276,0.01980111785897276
206.723,0.02327843144934616,0.02327843144934616
206.724,0.031349908096535595,0.031349908096535595
206.725,0.04163749282202378,0.04163749282202378
206.726,0.05060338445935364,0.05060338445935364
206.727,0.05478509468490378,0.05478509468490378
206.728,0.05205036881535108,0.05205036881535108
206.729,0.04243885167677797,0.04243885167677797
206.73,0.028295717225252037,0.028295717225252037
206.731,0.013641017038100944,0.013641017038100944
206.732,0.0029748654319812218,0.0029748654319812218
206.733,9.461094212281917e-05,-9.461094212281917e-05
206.734,0.0060414288856243115,0.0060414288856243115
206.735,0.020499176674491748,0.020499176674491748
206.736,0.04016575988839666,0.04016575988839666
206.737,0.06061534226997867,0.06061534226997867
206.738,0.0773685751958817,0.0773685751958817
206.739,0.08709104785547583,0.08709104785547583
206.74,0.08836811129533051,0.08836811129533051
206.741,0.08185201076162096,0.08185201076162096
206.742,0.06979376739282084,0.06979376739282084
206.743,0.05517075397857307,0.05517075397857307
206.744,0.04073522266161311,0.04073522266161311
206.745,0.028305141556669522,0.028305141556669522
206.746,0.01850505459297591,0.01850505459297591
206.747,0.01098737537485639,0.01098737537485639
206.748,0.004989442563879454,0.004989442563879454
206.749,2.9499418329304028e-05,-2.9499418329304028e-05
206.75,0.00393844793876541,-0.00393844793876541
206.751,0.005851430289755211,-0.005851430289755211
206.752,0.004440474553408569,-0.004440474553408569
206.753,0.0014810287689839274,0.0014810287689839274
206.754,0.012334417022875854,0.012334417022875854
206.755,0.02735782394748676,0.02735782394748676
206.756,0.04456659628456516,0.04456659628456516
206.757,0.061128570347369404,0.061128570347369404
206.758,0.07404334798008572,0.07404334798008572
206.759,0.08090848198702383,0.08090848198702383
206.76,0.08052679037103139,0.08052679037103139
206.761,0.07316574258094577,0.07316574258094577
206.762,0.06039964330813685,0.06039964330813685
206.763,0.04460459497640046,0.04460459497640046
206.764,0.02828623180827261,0.02828623180827261
206.765,0.013464360941700004,0.013464360941700004
206.766,0.0013046370070450841,0.0013046370070450841
206.767,0.007909496353821543,-0.007909496353821543
206.768,0.014494859757260725,-0.014494859757260725
206.769,0.018913177859859465,-0.018913177859859465
206.77,0.021332264969079362,-0.021332264969079362
206.771,0.021378207011988448,-0.021378207011988448
206.772,0.01817700804557376,-0.01817700804557376
206.773,0.010676281596940673,-0.010676281596940673
206.774,0.0018642863043394353,0.0018642863043394353
206.775,0.019386794445658495,0.019386794445658495
206.776,0.04072923397857853,0.04072923397857853
206.777,0.06362103211856152,0.06362103211856152
206.778,0.08500876411843383,0.08500876411843383
206.779,0.10164113238360528,0.10164113238360528
206.78,0.1107660843743361,0.1107660843743361
206.781,0.11076117407154462,0.11076117407154462
206.782,0.10153698678018097,0.10153698678018097
206.783,0.08461354479668359,0.08461354479668359
206.784,0.06285151455869897,0.06285151455869897
206.785,0.03990084836103858,0.03990084836103858
206.786,0.01948992662295912,0.01948992662295912
206.787,0.004707112247338108,0.004707112247338108
206.788,0.0025781619343245854,-0.0025781619343245854
206.789,0.0020408077049229867,-0.0020408077049229867
206.79,0.0050897461801717725,0.0050897461801717725
206.791,0.016335350873077914,0.016335350873077914
206.792,0.02853133174567457,0.02853133174567457
206.793,0.03853444010166118,0.03853444010166118
206.794,0.04393204834081432,0.04393204834081432
206.795,0.043598816059737144,0.043598816059737144
206.796,0.03796802029723367,0.03796802029723367
206.797,0.02893721976263297,0.02893721976263297
206.798,0.019406134810184827,0.019406134810184827
206.799,0.012534360711599968,0.012534360711599968
206.8,0.010886570654216055,0.010886570654216055
206.801,0.015679693036231068,0.015679693036231068
206.802,0.026341453060101827,0.026341453060101827
206.803,0.04052601520721133,0.04052601520721133
206.804,0.05462035790831288,0.05462035790831288
206.805,0.06464105271752163,0.06464105271752163
206.806,0.06730240183083214,0.06730240183083214
206.807,0.06097047817899126,0.06097047817899126
206.808,0.04622857428622962,0.04622857428622962
206.809,0.025871519951819133,0.025871519951819133
206.81,0.004298115443864825,0.004298115443864825
206.811,0.01355885825578751,-0.01355885825578751
206.812,0.02348700943561899,-0.02348700943561899
206.813,0.02309150408794236,-0.02309150408794236
206.814,0.012427535851526561,-0.012427535851526561
206.815,0.006014178235507428,0.006014178235507428
206.816,0.02796960372366941,0.02796960372366941
206.817,0.04852736353938503,0.04852736353938503
206.818,0.0634022020904792,0.0634022020904792
206.819,0.06999989575392962,0.06999989575392962
206.82,0.0679826036018496,0.0679826036018496
206.821,0.059193535387600305,0.059193535387600305
206.822,0.04698854732419089,0.04698854732419089
206.823,0.035192298000322975,0.035192298000322975
206.824,0.026996926935748178,0.026996926935748178
206.825,0.02412337710950907,0.02412337710950907
206.826,0.026472024417673268,0.026472024417673268
206.827,0.032332253198921634,0.032332253198921634
206.828,0.03905063760018268,0.03905063760018268
206.829,0.04392703623011118,0.04392703623011118
206.83,0.045055050965882026,0.045055050965882026
206.831,0.04185974855168628,0.04185974855168628
206.832,0.035194555955393225,0.035194555955393225
206.833,0.02700236412550039,0.02700236412550039
206.834,0.019676452987358095,0.019676452987358095
206.835,0.015335444966660505,0.015335444966660505
206.836,0.01523303314936686,0.01523303314936686
206.837,0.019462045500457714,0.019462045500457714
206.838,0.027008920339418596,0.027008920339418596
206.839,0.03610537761104826,0.03610537761104826
206.84,0.04474366070374569,0.04474366070374569
206.841,0.051191875465206316,0.051191875465206316
206.842,0.05436952233281955,0.05436952233281955
206.843,0.054005444017024784,0.054005444017024784
206.844,0.05057557992052564,0.05057557992052564
206.845,0.04507996725403007,0.04507996725403007
206.846,0.038749681077728804,0.038749681077728804
206.847,0.03277072632228184,0.03277072632228184
206.848,0.028082217359650663,0.028082217359650663
206.849,0.025267220305068117,0.025267220305068117
206.85,0.024523265270729233,0.024523265270729233
206.851,0.025686018805851196,0.025686018805851196
206.852,0.028284271776277237,0.028284271776277237
206.853,0.03161886987633977,0.03161886987633977
206.854,0.03487033182684951,0.03487033182684951
206.855,0.037240018368196015,0.037240018368196015
206.856,0.038115575217367414,0.038115575217367414
206.857,0.03722941231045396,0.03722941231045396
206.858,0.0347614897443258,0.0347614897443258
206.859,0.031337010714227675,0.031337010714227675
206.86,0.027891952971093037,0.027891952971093037
206.861,0.025420798490177532,0.025420798490177532
206.862,0.02466766265878184,0.02466766265878184
206.863,0.02585552495334964,0.02585552495334964
206.864,0.028552044879987193,0.028552044879987193
206.865,0.03173777652517207,0.03173777652517207
206.866,0.034080427452696016,0.034080427452696016
206.867,0.034346663505304464,0.034346663505304464
206.868,0.031826642107851244,0.031826642107851244
206.869,0.02662866726933122,0.02662866726933122
206.87,0.019732671137660418,0.019732671137660418
206.871,0.01276492986373845,0.01276492986373845
206.872,0.0075495427103013935,0.0075495427103013935
206.873,0.005572753056314772,0.005572753056314772
206.874,0.007534327449757017,0.007534327449757017
206.875,0.013139391258546018,0.013139391258546018
206.876,0.021208067203233094,0.021208067203233094
206.877,0.030072898082144084,0.030072898082144084
206.878,0.038132002207847515,0.038132002207847515
206.879,0.04436601622219616,0.04436601622219616
206.88,0.04863277806485877,0.04863277806485877
206.881,0.05162664347670498,0.05162664347670498
206.882,0.054506546550577184,0.054506546550577184
206.883,0.05831860037976466,0.05831860037976466
206.884,0.06342177985465236,0.06342177985465236
206.885,0.06913738540919301,0.06913738540919301
206.886,0.073776502977011,0.073776502977011
206.887,0.075074034643267,0.075074034643267
206.888,0.07091440076139555,0.07091440076139555
206.889,0.06012220666712054,0.06012220666712054
206.89,0.04305161575925487,0.04305161575925487
206.891,0.021757983334991904,0.021757983334991904
206.892,0.0003387270146636423,-0.0003387270146636423
206.893,0.019227069349801562,-0.019227069349801562
206.894,0.03129748825911316,-0.03129748825911316
206.895,0.03426185724760178,-0.03426185724760178
206.896,0.027721927744039587,-0.027721927744039587
206.897,0.013217081994509772,-0.013217081994509772
206.898,0.006254435609997389,0.006254435609997389
206.899,0.027080933269432172,0.027080933269432172
206.9,0.04597725983890988,0.04597725983890988
206.901,0.06072622692789609,0.06072622692789609
206.902,0.07050511761362666,0.07050511761362666
206.903,0.07572884860294016,0.07572884860294016
206.904,0.07750918577835075,0.07750918577835075
206.905,0.07695905508634326,0.07695905508634326
206.906,0.07461753306256647,0.07461753306256647
206.907,0.07021851921215005,0.07021851921215005
206.908,0.06289300308196588,0.06289300308196588
206.909,0.0517282430847823,0.0517282430847823
206.91,0.03646626091524374,0.03646626091524374
206.911,0.018059625973452897,0.018059625973452897
206.912,0.0011608584821900525,-0.0011608584821900525
206.913,0.017824753035474705,-0.017824753035474705
206.914,0.02830962655150815,-0.02830962655150815
206.915,0.029756756480009194,-0.029756756480009194
206.916,0.020998768624957864,-0.020998768624957864
206.917,0.0030910299461544,-0.0030910299461544
206.918,0.020750484021526905,0.020750484021526905
206.919,0.04582303404757648,0.04582303404757648
206.92,0.06705147824983215,0.06705147824983215
206.921,0.08023381880212366,0.08023381880212366
206.922,0.08306630729192,0.08306630729192
206.923,0.07566294299888576,0.07566294299888576
206.924,0.06043678281270726,0.06043678281270726
206.925,0.04139912641997556,0.04139912641997556
206.926,0.023097033438146397,0.023097033438146397
206.927,0.009499417031205715,0.009499417031205715
206.928,0.0031330331225154495,0.0031330331225154495
206.929,0.0046710908436000675,0.0046710908436000675
206.93,0.013026587093775799,0.013026587093775799
206.931,0.025851958507471462,0.025851958507471462
206.932,0.04024447489095162,0.04024447489095162
206.933,0.053431097139684525,0.053431097139684525
206.934,0.06325694976368568,0.06325694976368568
206.935,0.0684013949629576,0.0684013949629576
206.936,0.06835322574858194,0.06835322574858194
206.937,0.06325121164973968,0.06325121164973968
206.938,0.05371377841122604,0.05371377841122604
206.939,0.04074201519663845,0.04074201519663845
206.94,0.025706562168456903,0.025706562168456903
206.941,0.01035722585026888,0.01035722585026888
206.942,0.003241627187938634,-0.003241627187938634
206.943,0.012928686804041578,-0.012928686804041578
206.944,0.016828407480389718,-0.016828407480389718
206.945,0.013822738001033952,-0.013822738001033952
206.946,0.003964512164845391,-0.003964512164845391
206.947,0.011335043921015808,0.011335043921015808
206.948,0.029465362018902264,0.029465362018902264
206.949,0.047138893321789554,0.047138893321789554
206.95,0.06116641469267625,0.06116641469267625
206.951,0.06927082787355676,0.06927082787355676
206.952,0.07068571627012799,0.07068571627012799
206.953,0.06633158948888518,0.06633158948888518
206.954,0.058486521201534414,0.058486521201534414
206.955,0.05003114219947058,0.05003114219947058
206.956,0.04349608724469811,0.04349608724469811
206.957,0.040220058481065024,0.040220058481065024
206.958,0.039906347102698136,0.039906347102698136
206.959,0.040745846401825325,0.040745846401825325
206.96,0.04009080653299768,0.04009080653299768
206.961,0.03547525826520759,0.03547525826520759
206.962,0.02564903803348373,0.02564903803348373
206.963,0.011269203683345053,0.011269203683345053
206.964,0.005012066485660771,-0.005012066485660771
206.965,0.01913709580067069,-0.01913709580067069
206.966,0.02676388035206556,-0.02676388035206556
206.967,0.0245912822645582,-0.0245912822645582
206.968,0.011478504908041032,-0.011478504908041032
206.969,0.011003922843488168,0.011003922843488168
206.97,0.03879003012779392,0.03879003012779392
206.971,0.06626790072851207,0.06626790072851207
206.972,0.08770338995901583,0.08770338995901583
206.973,0.09872981469882447,0.09872981469882447
206.974,0.09747135448077104,0.09747135448077104
206.975,0.08497661934884948,0.08497661934884948
206.976,0.06484603695567448,0.06484603695567448
206.977,0.042177198977427555,0.042177198977427555
206.978,0.02215110097668349,0.02215110097668349
206.979,0.0086785825182496,0.0086785825182496
206.98,0.0034928449200504197,0.0034928449200504197
206.981,0.005924664266459434,0.005924664266459434
206.982,0.013381698106464501,0.013381698106464501
206.983,0.022341046434514178,0.022341046434514178
206.984,0.029520526734719388,0.029520526734719388
206.985,0.0328604765852214,0.0328604765852214
206.986,0.03202954917208123,0.03202954917208123
206.987,0.028333720398841633,0.028333720398841633
206.988,0.024101438189677804,0.024101438189677804
206.989,0.021777392490328173,0.021777392490328173
206.99,0.02303466122928488,0.02303466122928488
206.991,0.02819043230984075,0.02819043230984075
206.992,0.03609775552357508,0.03609775552357508
206.993,0.04452548041984716,0.04452548041984716
206.994,0.05088385643379412,0.05088385643379412
206.995,0.053052310684395865,0.053052310684395865
206.996,0.050046825872517964,0.050046825872517964
206.997,0.042327755610494844,0.042327755610494844
206.998,0.03166967214293881,0.03166967214293881
206.999,0.02065174166090178,0.02065174166090178
207.0,0.01193704510771254,0.01193704510771254
207.001,0.007560778159869663,0.007560778159869663
207.002,0.008429436380167799,0.008429436380167799
207.003,0.01415707429543156,0.01415707429543156
207.004,0.023258296572433057,0.023258296572433057
207.005,0.03361506521604918,0.03361506521604918
207.006,0.043065337406954285,0.043065337406954285
207.007,0.049942529182517514,0.049942529182517514
207.008,0.053425800635553244,0.053425800635553244
207.009,0.05362760789865639,0.05362760789865639
207.01,0.05142395655585297,0.05142395655585297
207.011,0.048100936842705,0.048100936842705
207.012,0.044931398137782574,0.044931398137782574
207.013,0.04280120141358901,0.04280120141358901
207.014,0.04197890807259985,0.04197890807259985
207.015,0.042077036954499825,0.042077036954499825
207.016,0.04220122083400124,0.04220122083400124
207.017,0.04123858904594768,0.04123858904594768
207.018,0.03820732783224323,0.03820732783224323
207.019,0.03257948002775035,0.03257948002775035
207.02,0.02449813286972624,0.02449813286972624
207.021,0.014834703945114214,0.014834703945114214
207.022,0.00506687522784266,0.00506687522784266
207.023,0.003003257684086491,-0.003003257684086491
207.024,0.007634738582420142,-0.007634738582420142
207.025,0.007553858761995436,-0.007553858761995436
207.026,0.0022865054774962035,-0.0022865054774962035
207.027,0.007668321657944288,0.007668321657944288
207.028,0.02087845507231645,0.02087845507231645
207.029,0.03523929786503999,0.03523929786503999
207.03,0.04840823144743278,0.04840823144743278
207.031,0.05831738568224809,0.05831738568224809
207.032,0.06364145619683903,0.06364145619683903
207.033,0.06409956865267263,0.06409956865267263
207.034,0.06050548452776128,0.06050548452776128
207.035,0.05454199167158702,0.05454199167158702
207.036,0.04830794450536846,0.04830794450536846
207.037,0.04375026418774941,0.04375026418774941
207.038,0.042129444382801085,0.042129444382801085
207.039,0.04366377042331293,0.04366377042331293
207.04,0.04745356033009762,0.04745356033009762
207.041,0.05171315368445928,0.05171315368445928
207.042,0.05425507441263,0.05425507441263
207.043,0.05310112229691444,0.05310112229691444
207.044,0.047058933012535276,0.047058933012535276
207.045,0.03611016872029782,0.03611016872029782
207.046,0.021505811835631494,0.021505811835631494
207.047,0.005541074402994894,0.005541074402994894
207.048,0.008934310116593513,-0.008934310116593513
207.049,0.019147845569908672,-0.019147845569908672
207.05,0.02302247188185025,-0.02302247188185025
207.051,0.019633592749040862,-0.019633592749040862
207.052,0.009402155659264388,-0.009402155659264388
207.053,0.00601108602788214,0.00601108602788214
207.054,0.024072823414708067,0.024072823414708067
207.055,0.041910510401434786,0.041910510401434786
207.056,0.05688518631465911,0.05688518631465911
207.057,0.06707800051271251,0.06707800051271251
207.058,0.07159379250668652,0.07159379250668652
207.059,0.07063283192258263,0.07063283192258263
207.06,0.06533540392278647,0.06533540392278647
207.061,0.057451098292375935,0.057451098292375935
207.062,0.04891636398644361,0.04891636398644361
207.063,0.04143556005327942,0.04143556005327942
207.064,0.036152309646505065,0.036152309646505065
207.065,0.03347301836482308,0.03347301836482308
207.066,0.03306892321842225,0.03306892321842225
207.067,0.03404417612749899,0.03404417612749899
207.068,0.035222616246432414,0.035222616246432414
207.069,0.03548170698027553,0.03548170698027553
207.07,0.034053570896586116,0.034053570896586116
207.071,0.030722381823568012,0.030722381823568012
207.072,0.02587318635882907,0.02587318635882907
207.073,0.020384208966591322,0.020384208966591322
207.074,0.0153942408953891,0.0153942408953891
207.075,0.012008711402617722,0.012008711402617722
207.076,0.011023515963899166,0.011023515963899166
207.077,0.012739594658749187,0.012739594658749187
207.078,0.016914519324859212,0.016914519324859212
207.079,0.022857150067761012,0.022857150067761012
207.08,0.0296295345351667,0.0296295345351667
207.081,0.03628957403711519,0.03628957403711519
207.082,0.04209848729159238,0.04209848729159238
207.083,0.046632177298210786,0.046632177298210786
207.084,0.04977062538791244,0.04977062538791244
207.085,0.05158288638603081,0.05158288638603081
207.086,0.05216236108943617,0.05216236108943617
207.087,0.051484706566507166,0.051484706566507166
207.088,0.04935228654771229,0.04935228654771229
207.089,0.04545670728251694,0.04545670728251694
207.09,0.039545507339324715,0.039545507339324715
207.091,0.03163630732007494,0.03163630732007494
207.092,0.02219715773125741,0.02219715773125741
207.093,0.012215096335965514,0.012215096335965514
207.094,0.0031062575346378907,0.0031062575346378907
207.095,0.0035293122271644606,-0.0035293122271644606
207.096,0.006252981165258631,-0.006252981165258631
207.097,0.004141166205241076,-0.004141166205241076
207.098,0.0029532455865342033,0.0029532455865342033
207.099,0.014309446626371791,0.014309446626371791
207.1,0.028447792759842327,0.028447792759842327
207.101,0.04341342752304156,0.04341342752304156
207.102,0.05716048395333506,0.05716048395333506
207.103,0.06793824495455825,0.06793824495455825
207.104,0.07458593334114338,0.07458593334114338
207.105,0.07667465640133853,0.07667465640133853
207.106,0.07448166484358465,0.07448166484358465
207.107,0.06882779066522637,0.06882779066522637
207.108,0.0608396748648945,0.0608396748648945
207.109,0.05170652044990631,0.05170652044990631
207.11,0.04248740027604203,0.04248740027604203
207.111,0.03399773183315524,0.03399773183315524
207.112,0.02677411394158913,0.02677411394158913
207.113,0.02109584513982199,0.02109584513982199
207.114,0.017034597369372628,0.017034597369372628
207.115,0.014509805152221888,0.014509805152221888
207.116,0.013339971075336576,0.013339971075336576
207.117,0.013291055663821494,0.013291055663821494
207.118,0.014126345324036782,0.014126345324036782
207.119,0.015656582854924883,0.015656582854924883
207.12,0.01777897627335756,0.01777897627335756
207.121,0.02048641220061964,0.02048641220061964
207.122,0.023830558546172664,0.023830558546172664
207.123,0.027836904097758852,0.027836904097758852
207.124,0.03239219485317668,0.03239219485317668
207.125,0.037145890595070785,0.037145890595070785
207.126,0.04147619089883592,0.04147619089883592
207.127,0.04456013345450893,0.04456013345450893
207.128,0.04555593858481655,0.04555593858481655
207.129,0.04386273784097061,0.04386273784097061
207.13,0.03938335211920885,0.03938335211920885
207.131,0.03269649971997768,0.03269649971997768
207.132,0.025057072077558473,0.025057072077558473
207.133,0.018187676582177348,0.018187676582177348
207.134,0.01388995227277845,0.01388995227277845
207.135,0.013569263753553606,0.013569263753553606
207.136,0.017807823875542583,0.017807823875542583
207.137,0.026121689453326047,0.026121689453326047
207.138,0.03699211918405876,0.03699211918405876
207.139,0.048183017211467005,0.048183017211467005
207.14,0.05726803709718831,0.05726803709718831
207.141,0.062222780355917884,0.062222780355917884
207.142,0.06191347521026658,0.06191347521026658
207.143,0.05634340887209954,0.05634340887209954
207.144,0.04659360895377773,0.04659360895377773
207.145,0.03449010166261668,0.03449010166261668
207.146,0.022113967944860757,0.022113967944860757
207.147,0.011313472937836133,0.011313472937836133
207.148,0.0033650350317244726,0.0033650350317244726
207.149,0.0011331616091192487,-0.0011331616091192487
207.15,0.0021410616515443737,-0.0021410616515443737
207.151,8.0268122977456e-05,8.0268122977456e-05
207.152,0.005227319982648471,0.005227319982648471
207.153,0.013088768850519017,0.013088768850519017
207.154,0.023491452419058367,0.023491452419058367
207.155,0.03608243770239694,0.03608243770239694
207.156,0.050054285429419476,0.050054285429419476
207.157,0.0639623938163505,0.0639623938163505
207.158,0.07576517087304313,0.07576517087304313
207.159,0.08314282360141201,0.08314282360141201
207.16,0.08404402176484282,0.08404402176484282
207.161,0.07731047119653778,0.07731047119653778
207.162,0.06317597921918572,0.06317597921918572
207.163,0.04345251631605307,0.04345251631605307
207.164,0.021300347767604366,0.021300347767604366
207.165,0.0006066692600135148,0.0006066692600135148
207.166,0.014875208530510498,-0.014875208530510498
207.167,0.02239058539444838,-0.02239058539444838
207.168,0.020807311892743652,-0.020807311892743652
207.169,0.010824302511909245,-0.010824302511909245
207.17,0.005283499204370656,0.005283499204370656
207.171,0.024291439626478173,0.024291439626478173
207.172,0.04282365940204369,0.04282365940204369
207.173,0.05808668007952367,0.05808668007952367
207.174,0.06834232885898506,0.06834232885898506
207.175,0.07302717868187725,0.07302717868187725
207.176,0.07255086635573016,0.07255086635573016
207.177,0.06790708216241037,0.06790708216241037
207.178,0.06027318234677037,0.06027318234677037
207.179,0.050745429380143925,0.050745429380143925
207.18,0.04027278887300145,0.04027278887300145
207.181,0.0297502013667561,0.0297502013667561
207.182,0.020155860374719614,0.020155860374719614
207.183,0.012598725692343882,0.012598725692343882
207.184,0.008190368117731328,0.008190368117731328
207.185,0.007749212616894097,0.007749212616894097
207.186,0.011444586638896137,0.011444586638896137
207.187,0.018547418494898826,0.018547418494898826
207.188,0.027442852535559448,0.027442852535559448
207.189,0.03597439372641653,0.03597439372641653
207.19,0.04205778036699526,0.04205778036699526
207.191,0.04437613176407895,0.04437613176407895
207.192,0.04289998324928046,0.04289998324928046
207.193,0.03900242803541576,0.03900242803541576
207.194,0.03506236101722604,0.03506236101722604
207.195,0.033631292914291455,0.033631292914291455
207.196,0.036417455247699904,0.036417455247699904
207.197,0.04344573357518189,0.04344573357518189
207.198,0.0527348615824077,0.0527348615824077
207.199,0.06068681810043186,0.06068681810043186
207.2,0.06314755970992669,0.06314755970992669
207.201,0.056849995678198706,0.056849995678198706
207.202,0.040778074946235865,0.040778074946235865
207.203,0.01696401705982198,0.01696401705982198
207.204,0.009627933892485396,-0.009627933892485396
207.205,0.03220301859881969,-0.03220301859881969
207.206,0.043970365893269525,-0.043970365893269525
207.207,0.040191782807108445,-0.040191782807108445
207.208,0.01981279776127276,-0.01981279776127276
207.209,0.013869129111107048,0.013869129111107048
207.21,0.0537738183043579,0.0537738183043579
207.211,0.09074555603823886,0.09074555603823886
207.212,0.11593937420949563,0.11593937420949563
207.213,0.12320063348986432,0.12320063348986432
207.214,0.11073562056675401,0.11073562056675401
207.215,0.08157535984113418,0.08157535984113418
207.216,0.04269837131012166,0.04269837131012166
207.217,0.00308549481795084,0.00308549481795084
207.218,0.028699643828522192,-0.028699643828522192
207.219,0.046680373928590146,-0.046680373928590146
207.22,0.048762679031366774,-0.048762679031366774
207.221,0.03682754504442887,-0.03682754504442887
207.222,0.015681119793775067,-0.015681119793775067
207.223,0.008720052699331848,0.008720052699331848
207.224,0.031146106924485606,0.031146106924485606
207.225,0.04845972989332559,0.04845972989332559
207.226,0.06007099520265635,0.06007099520265635
207.227,0.06742044039521988,0.06742044039521988
207.228,0.07277401546522189,0.07277401546522189
207.229,0.07784371944130974,0.07784371944130974
207.23,0.08278648485023843,0.08278648485023843
207.231,0.08597217244826183,0.08597217244826183
207.232,0.08461089927437349,0.08461089927437349
207.233,0.07599994179214997,0.07599994179214997
207.234,0.05890986256538189,0.05890986256538189
207.235,0.034564353399471726,0.034564353399471726
207.236,0.006801930843459925,0.006801930843459925
207.237,0.018707068452374687,-0.018707068452374687
207.238,0.03597842034740428,-0.03597842034740428
207.239,0.04048834431246062,-0.04048834431246062
207.24,0.030619386485116307,-0.030619386485116307
207.241,0.008287241852336868,-0.008287241852336868
207.242,0.021478962822713443,0.021478962822713443
207.243,0.05188836432183064,0.05188836432183064
207.244,0.07625326462345017,0.07625326462345017
207.245,0.0897849809482889,0.0897849809482889
207.246,0.0907693674904182,0.0907693674904182
207.247,0.08078291878062238,0.08078291878062238
207.248,0.06392906009356225,0.06392906009356225
207.249,0.04538999726357229,0.04538999726357229
207.25,0.029796363636157563,0.029796363636157563
207.251,0.019948617425664228,0.019948617425664228
207.252,0.016275970320168476,0.016275970320168476
207.253,0.01714740041744056,0.01714740041744056
207.254,0.019852219031839313,0.019852219031839313
207.255,0.02184766833775842,0.02184766833775842
207.256,0.021801121040281757,0.021801121040281757
207.257,0.020053319316440055,0.020053319316440055
207.258,0.018356240519244338,0.018356240519244338
207.259,0.0190107477033723,0.0190107477033723
207.26,0.023748325874489273,0.023748325874489273
207.261,0.032792101494777626,0.032792101494777626
207.262,0.04446592246624803,0.04446592246624803
207.263,0.05552296419492819,0.05552296419492819
207.264,0.062108321485397466,0.062108321485397466
207.265,0.061043459183893756,0.061043459183893756
207.266,0.05100171940545084,0.05100171940545084
207.267,0.03317205874179052,0.03317205874179052
207.268,0.011170871375518088,0.011170871375518088
207.269,0.009797665132178945,-0.009797665132178945
207.27,0.024294652322271792,-0.024294652322271792
207.271,0.028117034229654725,-0.028117034229654725
207.272,0.019459218023658353,-0.019459218023658353
207.273,0.0005599005910308374,0.0005599005910308374
207.274,0.028136273869859618,0.028136273869859618
207.275,0.05769643792440604,0.05769643792440604
207.276,0.08321922647713054,0.08321922647713054
207.277,0.09960418229772339,0.09960418229772339
207.278,0.10374719764570295,0.10374719764570295
207.279,0.09509414210080047,0.09509414210080047
207.28,0.0756002275706702,0.0756002275706702
207.281,0.049174893879395,0.049174893879395
207.282,0.02079720761984505,0.02079720761984505
207.283,0.0044747012918081586,-0.0044747012918081586
207.284,0.022399891688534956,-0.022399891688534956
207.285,0.030218175190811714,-0.030218175190811714
207.286,0.027013908013355015,-0.027013908013355015
207.287,0.013770601235890134,-0.013770601235890134
207.288,0.0068581339790265705,0.0068581339790265705
207.289,0.031018493581473905,0.031018493581473905
207.29,0.054311631995753507,0.054311631995753507
207.291,0.07255844937826428,0.07255844937826428
207.292,0.08256893682564015,0.08256893682564015
207.293,0.08278202259631895,0.08278202259631895
207.294,0.07363170961024657,0.07363170961024657
207.295,0.0575217731254809,0.0575217731254809
207.296,0.03836161899265256,0.03836161899265256
207.297,0.02072012644229959,0.02072012644229959
207.298,0.00876549136837479,0.00876549136837479
207.299,0.005241056597406812,0.005241056597406812
207.3,0.010747140802729094,0.010747140802729094
207.301,0.02354077297428514,0.02354077297428514
207.302,0.03993760014247183,0.03993760014247183
207.303,0.05523622001561579,0.05523622001561579
207.304,0.06493325181794662,0.06493325181794662
207.305,0.06590584910290676,0.06590584910290676
207.306,0.05723867946607797,0.05723867946607797
207.307,0.04046808376783528,0.04046808376783528
207.308,0.01918016859799554,0.01918016859799554
207.309,0.0019174209578386447,-0.0019174209578386447
207.31,0.018184297470425714,-0.018184297470425714
207.311,0.026166142305881324,-0.026166142305881324
207.312,0.024347436863815686,-0.024347436863815686
207.313,0.013362044158162334,-0.013362044158162334
207.314,0.00434921478928052,0.00434921478928052
207.315,0.025287596342882024,0.025287596342882024
207.316,0.04580450992176566,0.04580450992176566
207.317,0.06290344294926964,0.06290344294926964
207.318,0.07473529969661152,0.07473529969661152
207.319,0.08070595993026908,0.08070595993026908
207.32,0.08124491804136924,0.08124491804136924
207.321,0.07738100767318201,0.07738100767318201
207.322,0.07030654235145617,0.07030654235145617
207.323,0.06107948590248302,0.06107948590248302
207.324,0.050533046834566386,0.050533046834566386
207.325,0.03936740088742963,0.03936740088742963
207.326,0.02832538304571086,0.02832538304571086
207.327,0.01832831861104678,0.01832831861104678
207.328,0.010475670287436012,0.010475670287436012
207.329,0.005878559521078852,0.005878559521078852
207.33,0.005374396452533903,0.005374396452533903
207.331,0.00922714588772644,0.00922714588772644
207.332,0.016933396480902196,0.016933396480902196
207.333,0.027223145807211857,0.027223145807211857
207.334,0.03827851535173643,0.03827851535173643
207.335,0.048118234047218156,0.048118234047218156
207.336,0.05503816745480172,0.05503816745480172
207.337,0.05797855067984514,0.05797855067984514
207.338,0.05671279145990904,0.05671279145990904
207.339,0.05181101314705239,0.05181101314705239
207.34,0.04440284494247271,0.04440284494247271
207.341,0.03582398341136939,0.03582398341136939
207.342,0.027260726748295605,0.027260726748295605
207.343,0.019498441244648168,0.019498441244648168
207.344,0.01283922635762802,0.01283922635762802
207.345,0.00719637871386114,0.00719637871386114
207.346,0.0023179603576213292,0.0023179603576213292
207.347,0.0019446690177757908,-0.0019446690177757908
207.348,0.005416352840101779,-0.005416352840101779
207.349,0.007500493854639023,-0.007500493854639023
207.35,0.007241956579113085,-0.007241956579113085
207.351,0.0035438329788584078,-0.0035438329788584078
207.352,0.0045090016567936875,0.0045090016567936875
207.353,0.01729506666435454,0.01729506666435454
207.354,0.03435827147349668,0.03435827147349668
207.355,0.054250592025565814,0.054250592025565814
207.356,0.07457899310120664,0.07457899310120664
207.357,0.09228528913403555,0.09228528913403555
207.358,0.10414101409903487,0.10414101409903487
207.359,0.1073866161252599,0.1073866161252599
207.36,0.10039505976715102,0.10039505976715102
207.361,0.08320750983352698,0.08320750983352698
207.362,0.05778725696796605,0.05778725696796605
207.363,0.02787724918545509,0.02787724918545509
207.364,0.0015734313713294812,-0.0015734313713294812
207.365,0.0253413599870973,-0.0253413599870973
207.366,0.03903717415005792,-0.03903717415005792
207.367,0.040131686553159684,-0.040131686553159684
207.368,0.028625270976919026,-0.028625270976919026
207.369,0.007148282811273443,-0.007148282811273443
207.37,0.01958623176063079,0.01958623176063079
207.371,0.04588222740744574,0.04588222740744574
207.372,0.06645139902618635,0.06645139902618635
207.373,0.07772827730201559,0.07772827730201559
207.374,0.07873802010831765,0.07873802010831765
207.375,0.0712523931922655,0.0712523931922655
207.376,0.05916544885803665,0.05916544885803665
207.377,0.04725107692945385,0.04725107692945385
207.378,0.03965975079112871,0.03965975079112871
207.379,0.0386071022760488,0.0386071022760488
207.38,0.04366568153913075,0.04366568153913075
207.381,0.051898402817555755,0.051898402817555755
207.382,0.05881575354159785,0.05881575354159785
207.383,0.059876791444294586,0.059876791444294586
207.384,0.05207024639481017,0.05207024639481017
207.385,0.03506938306493246,0.03506938306493246
207.386,0.011572390859328596,0.011572390859328596
207.387,0.013312814445737953,-0.013312814445737953
207.388,0.0334794255151587,-0.0334794255151587
207.389,0.043608697929316875,-0.043608697929316875
207.39,0.04078072346066475,-0.04078072346066475
207.391,0.02539749843376249,-0.02539749843376249
207.392,0.0011128178804918898,-0.0011128178804918898
207.393,0.02622740619904107,0.02622740619904107
207.394,0.050316068591183205,0.050316068591183205
207.395,0.06624979153929589,0.06624979153929589
207.396,0.07194011771509334,0.07194011771509334
207.397,0.06862065487697944,0.06862065487697944
207.398,0.06028409787223454,0.06028409787223454
207.399,0.05222491408041097,0.05222491408041097
207.4,0.04915375150457635,0.04915375150457635
207.401,0.05349423225300476,0.05349423225300476
207.402,0.06442334898335433,0.06442334898335433
207.403,0.07798657908101458,0.07798657908101458
207.404,0.08827945871351384,0.08827945871351384
207.405,0.08934561331871649,0.08934561331871649
207.406,0.07720554395785983,0.07720554395785983
207.407,0.05137623063595442,0.05137623063595442
207.408,0.015387244566827496,0.015387244566827496
207.409,0.023899825042328904,-0.023899825042328904
207.41,0.05799827199202645,-0.05799827199202645
207.411,0.07904544012747772,-0.07904544012747772
207.412,0.08194256082206863,-0.08194256082206863
207.413,0.06576285668454118,-0.06576285668454118
207.414,0.03402111108829042,-0.03402111108829042
207.415,0.006267183866328185,0.006267183866328185
207.416,0.046457065297125455,0.046457065297125455
207.417,0.07853225695304933,0.07853225695304933
207.418,0.09710834019272219,0.09710834019272219
207.419,0.10063061857070066,0.10063061857070066
207.42,0.0914654412181728,0.0914654412181728
207.421,0.07491185416625945,0.07491185416625945
207.422,0.05746827454693082,0.05746827454693082
207.423,0.04488681959353458,0.04488681959353458
207.424,0.04058243916906701,0.04058243916906701
207.425,0.04483211246372898,0.04483211246372898
207.426,0.05494734031551052,0.05494734031551052
207.427,0.06631055574461842,0.06631055574461842
207.428,0.07392062016742962,0.07392062016742962
207.429,0.07396383471306311,0.07396383471306311
207.43,0.06494661903831478,0.06494661903831478
207.431,0.04808065397925265,0.04808065397925265
207.432,0.02684831881443972,0.02684831881443972
207.433,0.005921622917677283,0.005921622917677283
207.434,0.010211148960831196,-0.010211148960831196
207.435,0.01849018893225074,-0.01849018893225074
207.436,0.018040862411006664,-0.018040862411006664
207.437,0.010247701579365276,-0.010247701579365276
207.438,0.0018348473084277561,0.0018348473084277561
207.439,0.014518159264540254,0.014518159264540254
207.44,0.024622447906230027,0.024622447906230027
207.441,0.030373533986884915,0.030373533986884915
207.442,0.03179319451114737,0.03179319451114737
207.443,0.030491328650025906,0.030491328650025906
207.444,0.028957640937261164,0.028957640937261164
207.445,0.029602570242305948,0.029602570242305948
207.446,0.033866471658572816,0.033866471658572816
207.447,0.041683756216426726,0.041683756216426726
207.448,0.05146753782156366,0.05146753782156366
207.449,0.06061010122732968,0.06061010122732968
207.45,0.06632937817876461,0.06632937817876461
207.451,0.06658333195099919,0.06658333195099919
207.452,0.060755989515105524,0.060755989515105524
207.453,0.04989544347530761,0.04989544347530761
207.454,0.03643011783461225,0.03643011783461225
207.455,0.02345769416071808,0.02345769416071808
207.456,0.01383717232958559,0.01383717232958559
207.457,0.009374840031501463,0.009374840031501463
207.458,0.01036023187834223,0.01036023187834223
207.459,0.015590183395926216,0.015590183395926216
207.46,0.022856899642564876,0.022856899642564876
207.461,0.029723421031492725,0.029723421031492725
207.462,0.034317952552826325,0.034317952552826325
207.463,0.03587825332337369,0.03587825332337369
207.464,0.03486898702944852,0.03486898702944852
207.465,0.03264757165022547,0.03264757165022547
207.466,0.030815192135864367,0.030815192135864367
207.467,0.03050293342435695,0.03050293342435695
207.468,0.03186764173310719,0.03186764173310719
207.469,0.033997458424271265,0.033997458424271265
207.47,0.035277124030168805,0.035277124030168805
207.471,0.03408974623951133,0.03408974623951133
207.472,0.02959667783566866,0.02959667783566866
207.473,0.022291153480646475,0.022291153480646475
207.474,0.014085411742907894,0.014085411742907894
207.475,0.007847745990918753,0.007847745990918753
207.476,0.0065037912097067885,0.0065037912097067885
207.477,0.011986452855802687,0.011986452855802687
207.478,0.02439847824136865,0.02439847824136865
207.479,0.0417067364384438,0.0417067364384438
207.48,0.060126011111358624,0.060126011111358624
207.481,0.0751222371900282,0.0751222371900282
207.482,0.08274649903594145,0.08274649903594145
207.483,0.0808784951471706,0.0808784951471706
207.484,0.0699623687227986,0.0699623687227986
207.485,0.05296468903204299,0.05296468903204299
207.486,0.03453073353510705,0.03453073353510705
207.487,0.019581502564936404,0.019581502564936404
207.488,0.011790122549548254,0.011790122549548254
207.489,0.012432709973723144,0.012432709973723144
207.49,0.02000071062104869,0.02000071062104869
207.491,0.0307198366760546,0.0307198366760546
207.492,0.03982243439530064,0.03982243439530064
207.493,0.043164704237213414,0.043164704237213414
207.494,0.038655457616435074,0.038655457616435074
207.495,0.027014904464524703,0.027014904464524703
207.496,0.0115973380927068,0.0115973380927068
207.497,0.0026785214022753134,-0.0026785214022753134
207.498,0.010946298680130195,-0.010946298680130195
207.499,0.01002008649276831,-0.01002008649276831
207.5,0.0005144631843372327,0.0005144631843372327
207.501,0.018121392936972347,0.018121392936972347
207.502,0.03811994521240725,0.03811994521240725
207.503,0.055213343113879265,0.055213343113879265
207.504,0.06523029835422234,0.06523029835422234
207.505,0.06648885729606402,0.06648885729606402
207.506,0.06031217929795374,0.06031217929795374
207.507,0.05050819426850839,0.05050819426850839
207.508,0.041976475868116925,0.041976475868116925
207.509,0.038907788764454,0.038907788764454
207.51,0.043191194110633324,0.043191194110633324
207.511,0.05358707925291095,0.05358707925291095
207.512,0.06597763122967493,0.06597763122967493
207.513,0.07464911663111162,0.07464911663111162
207.514,0.07421099392715425,0.07421099392715425
207.515,0.06153225230753123,0.06153225230753123
207.516,0.03705189098876893,0.03705189098876893
207.517,0.005008349092316511,0.005008349092316511
207.518,0.027527702525095732,-0.027527702525095732
207.519,0.05255138024106598,-0.05255138024106598
207.52,0.06338709664916198,-0.06338709664916198
207.521,0.05663142966742574,-0.05663142966742574
207.522,0.033185281231423946,-0.033185281231423946
207.523,0.0019341471494556117,0.0019341471494556117
207.524,0.04093727478762621,0.04093727478762621
207.525,0.07535045603887736,0.07535045603887736
207.526,0.09822511869657169,0.09822511869657169
207.527,0.10582982573139699,0.10582982573139699
207.528,0.09836840679441461,0.09836840679441461
207.529,0.07957930636592914,0.07957930636592914
207.53,0.05541084656026429,0.05541084656026429
207.531,0.03222682086065087,0.03222682086065087
207.532,0.015100246633098946,0.015100246633098946
207.533,0.006677875239019748,0.006677875239019748
207.534,0.006880349736446245,0.006880349736446245
207.535,0.013422250296472704,0.013422250296472704
207.536,0.02288697353210445,0.02288697353210445
207.537,0.03195062907086621,0.03195062907086621
207.538,0.03835267331504433,0.03835267331504433
207.539,0.04134425412257836,0.04134425412257836
207.54,0.041551812690148404,0.041551812690148404
207.541,0.040397247997506325,0.040397247997506325
207.542,0.03934831103117209,0.03934831103117209
207.543,0.039295644170582955,0.039295644170582955
207.544,0.04026895082109072,0.04026895082109072
207.545,0.04155404466893975,0.04155404466893975
207.546,0.04211501116273775,0.04211501116273775
207.547,0.04111890609783453,0.04111890609783453
207.548,0.03833903691974605,0.03833903691974605
207.549,0.03427807578543507,0.03427807578543507
207.55,0.0299735192575723,0.0299735192575723
207.551,0.026576270791943468,0.026576270791943468
207.552,0.024879762712741504,0.024879762712741504
207.553,0.02499159597510081,0.02499159597510081
207.554,0.026279978302220508,0.026279978302220508
207.555,0.02761868752780794,0.02761868752780794
207.556,0.027839193734552126,0.027839193734552126
207.557,0.026219909293331067,0.026219909293331067
207.558,0.022828234756650412,0.022828234756650412
207.559,0.0185845581403834,0.0185845581403834
207.56,0.015017405051685362,0.015017405051685362
207.561,0.013788354153211557,0.013788354153211557
207.562,0.01614505195979743,0.01614505195979743
207.563,0.022483721351407526,0.022483721351407526
207.564,0.03216308763145248,0.03216308763145248
207.565,0.04362586566401094,0.04362586566401094
207.566,0.05478329465436271,0.05478329465436271
207.567,0.06353746089716483,0.06353746089716483
207.568,0.06828113597938779,0.06828113597938779
207.569,0.06823405658524884,0.06823405658524884
207.57,0.06353738682243004,0.06353738682243004
207.571,0.05510994501910371,0.05510994501910371
207.572,0.04434166305314102,0.04434166305314102
207.573,0.032738697418569274,0.032738697418569274
207.574,0.021631091549684678,0.021631091549684678
207.575,0.012013903694288786,0.012013903694288786
207.576,0.004534266388964259,0.004534266388964259
207.577,0.0004175068272582738,-0.0004175068272582738
207.578,0.0025861319089151014,-0.0025861319089151014
207.579,0.0017720831035878959,-0.0017720831035878959
207.58,0.002160457781747338,0.002160457781747338
207.581,0.009187544817529147,0.009187544817529147
207.582,0.01898233663958382,0.01898233663958382
207.583,0.030790920383027665,0.030790920383027665
207.584,0.04339326416462552,0.04339326416462552
207.585,0.055191831028097216,0.055191831028097216
207.586,0.06443168409082056,0.06443168409082056
207.587,0.06951483447941875,0.06951483447941875
207.588,0.06934038053928737,0.06934038053928737
207.589,0.06358893554152334,0.06358893554152334
207.59,0.05287756037198932,0.05287756037198932
207.591,0.03873714978674325,0.03873714978674325
207.592,0.02340146736329407,0.02340146736329407
207.593,0.009437610304766197,0.009437610304766197
207.594,0.0007165129314886665,-0.0007165129314886665
207.595,0.005218070669944064,-0.005218070669944064
207.596,0.0031918595710287434,-0.0031918595710287434
207.597,0.00507448521005438,0.00507448521005438
207.598,0.018164506554712023,0.018164506554712023
207.599,0.03380090303658778,0.03380090303658778
207.6,0.04929879611895416,0.04929879611895416
207.601,0.06210824382996205,0.06210824382996205
207.602,0.07032192766370615,0.07032192766370615
207.603,0.07302573881605112,0.07302573881605112
207.604,0.07040519605880013,0.07040519605880013
207.605,0.06358314964996481,0.06358314964996481
207.606,0.05423837299222889,0.05423837299222889
207.607,0.04411870374988647,0.04411870374988647
207.608,0.034595111176185744,0.034595111176185744
207.609,0.02639109365344705,0.02639109365344705
207.61,0.019565493765573372,0.019565493765573372
207.611,0.013741806641099696,0.013741806641099696
207.612,0.00849053764512342,0.00849053764512342
207.613,0.003713384121946328,0.003713384121946328
207.614,0.00012832940981055696,-0.00012832940981055696
207.615,0.002047306032086804,-0.002047306032086804
207.616,0.0008378451231088047,-0.0008378451231088047
207.617,0.004437273787746054,0.004437273787746054
207.618,0.013954996167960143,0.013954996167960143
207.619,0.02683080895695311,0.02683080895695311
207.62,0.04115296172157268,0.04115296172157268
207.621,0.0543866398123829,0.0543866398123829
207.622,0.06404840373474974,0.06404840373474974
207.623,0.0684406195509415,0.0684406195509415
207.624,0.06719183745580004,0.06719183745580004
207.625,0.06139451754738312,0.06139451754738312
207.626,0.053257690519600276,0.053257690519600276
207.627,0.04536020881994318,0.04536020881994318
207.628,0.03974255702282381,0.03974255702282381
207.629,0.03715480559725104,0.03715480559725104
207.63,0.03674973444356011,0.03674973444356011
207.631,0.036374050762880916,0.036374050762880916
207.632,0.03340644294887474,0.03340644294887474
207.633,0.025886204688772008,0.025886204688772008
207.634,0.013543549614737582,0.013543549614737582
207.635,0.0016638727873868886,-0.0016638727873868886
207.636,0.015770810794981105,-0.015770810794981105
207.637,0.02380494203971184,-0.02380494203971184
207.638,0.021322612526101126,-0.021322612526101126
207.639,0.006023024583633463,-0.006023024583633463
207.64,0.0210917437170397,0.0210917437170397
207.641,0.05544764803824043,0.05544764803824043
207.642,0.08970878254914716,0.08970878254914716
207.643,0.11552510997716059,0.11552510997716059
207.644,0.12576759737650312,0.12576759737650312
207.645,0.11661437039306577,0.11661437039306577
207.646,0.08885439051876642,0.08885439051876642
207.647,0.047975665434585535,0.047975665434585535
207.648,0.0029486449648550295,0.0029486449648550295
207.649,0.035999774552125774,-0.035999774552125774
207.65,0.06001843357072523,-0.06001843357072523
207.651,0.06393313928603672,-0.06393313928603672
207.652,0.04756410400802691,-0.04756410400802691
207.653,0.015686457823017586,-0.015686457823017586
207.654,0.023347673679702252,0.023347673679702252
207.655,0.059921672232911005,0.059921672232911005
207.656,0.08573448862341371,0.08573448862341371
207.657,0.09591789779910442,0.09591789779910442
207.658,0.09011273500088679,0.09011273500088679
207.659,0.0722434268157981,0.0722434268157981
207.66,0.049113951452172566,0.049113951452172566
207.661,0.028282186178721913,0.028282186178721913
207.662,0.015856134770168895,0.015856134770168895
207.663,0.014845591050662854,0.014845591050662854
207.664,0.02450840014757616,0.02450840014757616
207.665,0.040818424811418286,0.040818424811418286
207.666,0.0578511563601507,0.0578511563601507
207.667,0.069631294408113,0.069631294408113
207.668,0.07188346911467192,0.07188346911467192
207.669,0.0631928499368084,0.0631928499368084
207.67,0.04528552277765319,0.04528552277765319
207.671,0.02240979785357422,0.02240979785357422
207.672,5.51047964760798e-05,5.51047964760798e-05
207.673,0.016587392680239677,-0.016587392680239677
207.674,0.023979061143697855,-0.023979061143697855
207.675,0.02104783680530109,-0.02104783680530109
207.676,0.00928564939443266,-0.00928564939443266
207.677,0.007836980942351746,0.007836980942351746
207.678,0.02592504193837719,0.02592504193837719
207.679,0.040863095742940114,0.040863095742940114
207.68,0.04984132530515373,0.04984132530515373
207.681,0.051953051228932345,0.051953051228932345
207.682,0.04824703727601287,0.04824703727601287
207.683,0.041267270883166285,0.041267270883166285
207.684,0.034238804624245445,0.034238804624245445
207.685,0.030132915612587796,0.030132915612587796
207.686,0.03085647920082657,0.03085647920082657
207.687,0.0367630877057743,0.0367630877057743
207.688,0.046593309863016685,0.046593309863016685
207.689,0.05784180882147494,0.05784180882147494
207.69,0.06744482075736391,0.06744482075736391
207.691,0.07260515227560216,0.07260515227560216
207.692,0.07153976428817344,0.07153976428817344
207.693,0.06395483758932152,0.06395483758932152
207.694,0.051121982953354905,0.051121982953354905
207.695,0.03553269985855256,0.03553269985855256
207.696,0.020222245338336498,0.020222245338336498
207.697,0.007949221598118728,0.007949221598118728
207.698,0.0004654328335358393,0.0004654328335358393
207.699,0.0019062639678644189,-0.0019062639678644189
207.7,0.0002514780251057225,-0.0002514780251057225
207.701,0.003403021338973078,0.003403021338973078
207.702,0.006865929376406621,0.006865929376406621
207.703,0.008620921746400834,0.008620921746400834
207.704,0.008445021243716377,0.008445021243716377
207.705,0.007574864189833441,0.007574864189833441
207.706,0.008325016554973086,0.008325016554973086
207.707,0.013242422179361002,0.013242422179361002
207.708,0.0240495905018423,0.0240495905018423
207.709,0.040728122364514174,0.040728122364514174
207.71,0.061083345711899995,0.061083345711899995
207.711,0.08100334993925262,0.08100334993925262
207.712,0.09541372350626776,0.09541372350626776
207.713,0.09969652645317995,0.09969652645317995
207.714,0.09116473039732642,0.09116473039732642
207.715,0.0701254102619786,0.0701254102619786
207.716,0.04015519875033258,0.04015519875033258
207.717,0.007431330339163766,0.007431330339163766
207.718,0.020752027520614225,-0.020752027520614225
207.719,0.037888725015136515,-0.037888725015136515
207.72,0.040039397780748276,-0.040039397780748276
207.721,0.026948002110306568,-0.026948002110306568
207.722,0.002141208199429867,-0.002141208199429867
207.723,0.028044407756997236,0.028044407756997236
207.724,0.0562356240470252,0.0562356240470252
207.725,0.0760744933426527,0.0760744933426527
207.726,0.08393574783367774,0.08393574783367774
207.727,0.07979629462658555,0.07979629462658555
207.728,0.06700553349667926,0.06700553349667926
207.729,0.05104776905298647,0.05104776905298647
207.73,0.037701872785762314,0.037701872785762314
207.731,0.03118779450001674,0.03118779450001674
207.732,0.0328851745149632,0.0328851745149632
207.733,0.04101799228821523,0.04101799228821523
207.734,0.05138352587893258,0.05138352587893258
207.735,0.0588667968636607,0.0588667968636607
207.736,0.05923246035961194,0.05923246035961194
207.737,0.050604580519503894,0.050604580519503894
207.738,0.03415521042198155,0.03415521042198155
207.739,0.013786527258508041,0.013786527258508041
207.74,0.005079668448358943,-0.005079668448358943
207.741,0.017204941318287537,-0.017204941318287537
207.742,0.019177912101630668,-0.019177912101630668
207.743,0.010476084727537471,-0.010476084727537471
207.744,0.0063804827205020676,0.0063804827205020676
207.745,0.026614371338819387,0.026614371338819387
207.746,0.04464869945806016,0.04464869945806016
207.747,0.05576873206184585,0.05576873206184585
207.748,0.05747095919443024,0.05747095919443024
207.749,0.05010066329564178,0.05010066329564178
207.75,0.03661626866886225,0.03661626866886225
207.751,0.02159495833963443,0.02159495833963443
207.752,0.009819615906885737,0.009819615906885737
207.753,0.004893699021653708,0.004893699021653708
207.754,0.008291997998711276,0.008291997998711276
207.755,0.019093420383988535,0.019093420383988535
207.756,0.034416958562641486,0.034416958562641486
207.757,0.05036961353676972,0.05036961353676972
207.758,0.06318092985146517,0.06318092985146517
207.759,0.07017783674236577,0.07017783674236577
207.76,0.07034095914392591,0.07034095914392591
207.761,0.06434020343764035,0.06434020343764035
207.762,0.054115688238828064,0.054115688238828064
207.763,0.042195067758941995,0.042195067758941995
207.764,0.03098575419619176,0.03098575419619176
207.765,0.022246128342662708,0.022246128342662708
207.766,0.016847007297848382,0.016847007297848382
207.767,0.014823242608338338,0.014823242608338338
207.768,0.01562562343460394,0.01562562343460394
207.769,0.018441775724548748,0.018441775724548748
207.77,0.02246671622305363,0.02246671622305363
207.771,0.027054278822478794,0.027054278822478794
207.772,0.031743326854141385,0.031743326854141385
207.773,0.03620125242472794,0.03620125242472794
207.774,0.040145892723233656,0.040145892723233656
207.775,0.043294958569481734,0.043294958569481734
207.776,0.04536178999764884,0.04536178999764884
207.777,0.04608598043577583,0.04608598043577583
207.778,0.045272231018141484,0.045272231018141484
207.779,0.04281592467746087,0.04281592467746087
207.78,0.03871307652210754,0.03871307652210754
207.781,0.03307170025810757,0.03307170025810757
207.782,0.026147335895466473,0.026147335895466473
207.783,0.018411046861129376,0.018411046861129376
207.784,0.010628579333489707,0.010628579333489707
207.785,0.0038994911683678524,0.0038994911683678524
207.786,0.0004067830382333826,-0.0004067830382333826
207.787,0.0008619083430252417,-0.0008619083430252417
207.788,0.0036693962142417824,0.0036693962142417824
207.789,0.013608560191547658,0.013608560191547658
207.79,0.02830200503376723,0.02830200503376723
207.791,0.04586777351112792,0.04586777351112792
207.792,0.06336426860597144,0.06336426860597144
207.793,0.07731008484339541,0.07731008484339541
207.794,0.08446977532604016,0.08446977532604016
207.795,0.08271486060619648,0.08271486060619648
207.796,0.07171203927348979,0.07171203927348979
207.797,0.053208533377204104,0.053208533377204104
207.798,0.030781090674251832,0.030781090674251832
207.799,0.009066281404638499,0.009066281404638499
207.8,0.007349941227023593,-0.007349941227023593
207.801,0.015088165770540729,-0.015088165770540729
207.802,0.012848978808116307,-0.012848978808116307
207.803,0.0017437226291737717,-0.0017437226291737717
207.804,0.015026122021677413,0.015026122021677413
207.805,0.0330591045138211,0.0330591045138211
207.806,0.047961425158301596,0.047961425158301596
207.807,0.056524036235101605,0.056524036235101605
207.808,0.05753093780078311,0.05753093780078311
207.809,0.051973192471747254,0.051973192471747254
207.81,0.042623657930430214,0.042623657930430214
207.811,0.03311867673876856,0.03311867673876856
207.812,0.026835292276093936,0.026835292276093936
207.813,0.025902920237179883,0.025902920237179883
207.814,0.030633963702964007,0.030633963702964007
207.815,0.039519349674996374,0.039519349674996374
207.816,0.0497588925273722,0.0497588925273722
207.817,0.05813903931981623,0.05813903931981623
207.818,0.06197942533898804,0.06197942533898804
207.819,0.05986866941115854,0.05986866941115854
207.82,0.051992980053172655,0.051992980053172655
207.821,0.039996434261599045,0.039996434261599045
207.822,0.026453406110626076,0.026453406110626076
207.823,0.014137738932003652,0.014137738932003652
207.824,0.0053119646794170805,0.0053119646794170805
207.825,0.001228634420993746,0.001228634420993746
207.826,0.0019524661195051696,0.0019524661195051696
207.827,0.006508423242882699,0.006508423242882699
207.828,0.013270867813328868,0.013270867813328868
207.829,0.020457151265105944,0.020457151265105944
207.83,0.026584071379348595,0.026584071379348595
207.831,0.030780060217581173,0.030780060217581173
207.832,0.03290158973274693,0.03290158973274693
207.833,0.03345846427039545,0.03345846427039545
207.834,0.03339396467449185,0.03339396467449185
207.835,0.0337860731716535,0.0337860731716535
207.836,0.03553796874694437,0.03553796874694437
207.837,0.0391171949340412,0.0391171949340412
207.838,0.044390489000150524,0.044390489000150524
207.839,0.05058811782875017,0.05058811782875017
207.84,0.05641578382694168,0.05641578382694168
207.841,0.060309757206819414,0.060309757206819414
207.842,0.06080020884793047,0.06080020884793047
207.843,0.05691304432256161,0.05691304432256161
207.844,0.048512643246289455,0.048512643246289455
207.845,0.03648069826911593,0.03648069826911593
207.846,0.02265067513822383,0.02265067513822383
207.847,0.009474622820796252,0.009474622820796252
207.848,0.0005225921229570218,-0.0005225921229570218
207.849,0.005370356296458767,-0.005370356296458767
207.85,0.004183257319831157,-0.004183257319831157
207.851,0.002575418598556256,0.002575418598556256
207.852,0.013203880215749253,0.013203880215749253
207.853,0.02524189247610198,0.02524189247610198
207.854,0.03619447446656987,0.03619447446656987
207.855,0.044279895184465845,0.044279895184465845
207.856,0.04895515332723699,0.04895515332723699
207.857,0.051027257081037725,0.051027257081037725
207.858,0.05228555568888971,0.05228555568888971
207.859,0.05475153866968441,0.05475153866968441
207.86,0.059784488192325735,0.059784488192325735
207.861,0.0673526135726672,0.0673526135726672
207.862,0.07574877455539997,0.07574877455539997
207.863,0.08189980665906926,0.08189980665906926
207.864,0.08222603825033614,0.08222603825033614
207.865,0.0738145670943895,0.0738145670943895
207.866,0.05554250189017895,0.05554250189017895
207.867,0.028772618188126042,0.028772618188126042
207.868,0.002644398129355685,-0.002644398129355685
207.869,0.033120060769095905,-0.033120060769095905
207.87,0.056651672826764754,-0.056651672826764754
207.871,0.06834948247776407,-0.06834948247776407
207.872,0.0657184039326073,-0.0657184039326073
207.873,0.049308136848073336,-0.049308136848073336
207.874,0.022533653371353157,-0.022533653371353157
207.875,0.009277473324787566,0.009277473324787566
207.876,0.04031590221933423,0.04031590221933423
207.877,0.06576036976461075,0.06576036976461075
207.878,0.08284544094047752,0.08284544094047752
207.879,0.09122693790432113,0.09122693790432113
207.88,0.09258125268579254,0.09258125268579254
207.881,0.08962720639449118,0.08962720639449118
207.882,0.08494267712496284,0.08494267712496284
207.883,0.08000152344176836,0.08000152344176836
207.884,0.0747626236211314,0.0747626236211314
207.885,0.0679357958819562,0.0679357958819562
207.886,0.05780152619023915,0.05780152619023915
207.887,0.04325930680267964,0.04325930680267964
207.888,0.024693569638089663,0.024693569638089663
207.889,0.0043069429242492685,0.0043069429242492685
207.89,0.014242741813160986,-0.014242741813160986
207.891,0.026817075373094634,-0.026817075373094634
207.892,0.03007517940921689,-0.03007517940921689
207.893,0.022626428027811896,-0.022626428027811896
207.894,0.005654210820791317,-0.005654210820791317
207.895,0.017228212988869673,0.017228212988869673
207.896,0.04087919798269968,0.04087919798269968
207.897,0.060026182594384636,0.060026182594384636
207.898,0.07073017543626414,0.07073017543626414
207.899,0.07146041214377541,0.07146041214377541
207.9,0.06344392965134293,0.06344392965134293
207.901,0.050185683427124816,0.050185683427124816
207.902,0.03631871848118151,0.03631871848118151
207.903,0.026154219459282535,0.026154219459282535
207.904,0.022390054133458515,0.022390054133458515
207.905,0.025376615994156637,0.025376615994156637
207.906,0.033152419555110724,0.033152419555110724
207.907,0.04221193512528476,0.04221193512528476
207.908,0.04873675387546261,0.04873675387546261
207.909,0.04988235056148116,0.04988235056148116
207.91,0.04470830422016325,0.04470830422016325
207.911,0.03446688340128001,0.03446688340128001
207.912,0.02217812673893782,0.02217812673893782
207.913,0.011647639783065822,0.011647639783065822
207.914,0.006253089027445702,0.006253089027445702
207.915,0.007885468745282731,0.007885468745282731
207.916,0.016367712960815517,0.016367712960815517
207.917,0.029512216763440735,0.029512216763440735
207.918,0.043775935607212935,0.043775935607212935
207.919,0.05529261167636079,0.05529261167636079
207.92,0.06096047310271202,0.06096047310271202
207.921,0.05926659408355017,0.05926659408355017
207.922,0.05062775313439194,0.05062775313439194
207.923,0.037184625400533244,0.037184625400533244
207.924,0.022148957081650433,0.022148957081650433
207.925,0.0089222163109135,0.0089222163109135
207.926,0.0002474983902041039,0.0002474983902041039
207.927,0.002381026939034081,-0.002381026939034081
207.928,0.001075039250676868,0.001075039250676868
207.929,0.009379045555946597,0.009379045555946597
207.93,0.02048439407602176,0.02048439407602176
207.931,0.03211877186678658,0.03211877186678658
207.932,0.04231700649704995,0.04231700649704995
207.933,0.04977631801490845,0.04977631801490845
207.934,0.05398013250709632,0.05398013250709632
207.935,0.05511055103930751,0.05511055103930751
207.936,0.05382258167164955,0.05382258167164955
207.937,0.05097353244103364,0.05097353244103364
207.938,0.04738929578450368,0.04738929578450368
207.939,0.04371638040577386,0.04371638040577386
207.94,0.04036970818993568,0.04036970818993568
207.941,0.037555130857755525,0.037555130857755525
207.942,0.035330263483096314,0.035330263483096314
207.943,0.033668305253854,0.033668305253854
207.944,0.03250200170143969,0.03250200170143969
207.945,0.03174123045580335,0.03174123045580335
207.946,0.03127112124896936,0.03127112124896936
207.947,0.03094443531436819,0.03094443531436819
207.948,0.030581879168572357,0.030581879168572357
207.949,0.029989251693202323,0.029989251693202323
207.95,0.028993620398606756,0.028993620398606756
207.951,0.027494150275827245,0.027494150275827245
207.952,0.02551763309753685,0.02551763309753685
207.953,0.023264376420604416,0.023264376420604416
207.954,0.021127365130048092,0.021127365130048092
207.955,0.019667835790108112,0.019667835790108112
207.956,0.019535546488230304,0.019535546488230304
207.957,0.02133346716559914,0.02133346716559914
207.958,0.025443676514373736,0.025443676514373736
207.959,0.031850212598635075,0.031850212598635075
207.96,0.04000906711991825,0.04000906711991825
207.961,0.04881820458907926,0.04881820458907926
207.962,0.056726304822340756,0.056726304822340756
207.963,0.06198769981950503,0.06198769981950503
207.964,0.0630289347529498,0.0630289347529498
207.965,0.058851284579968466,0.058851284579968466
207.966,0.04936740788119742,0.04936740788119742
207.967,0.03557060631649778,0.03557060631649778
207.968,0.019466260228116594,0.019466260228116594
207.969,0.0037515814158142202,0.0037515814158142202
207.97,0.00870260855920224,-0.00870260855920224
207.971,0.015455451790574726,-0.015455451790574726
207.972,0.015040763691168024,-0.015040763691168024
207.973,0.007315763328137659,-0.007315763328137659
207.974,0.006477640047737321,0.006477640047737321
207.975,0.02395841049160974,0.02395841049160974
207.976,0.042100310042329614,0.042100310042329614
207.977,0.05785443983184679,0.05785443983184679
207.978,0.06875317497579525,0.06875317497579525
207.979,0.07336093974411217,0.07336093974411217
207.98,0.07148396977207638,0.07148396977207638
207.981,0.06411590912174292,0.06411590912174292
207.982,0.05315870665532718,0.05315870665532718
207.983,0.04100162247617667,0.04100162247617667
207.984,0.030056427583019074,0.030056427583019074
207.985,0.022335708791717535,0.022335708791717535
207.986,0.019133653743186985,0.019133653743186985
207.987,0.0208382601183017,0.0208382601183017
207.988,0.026881504937918077,0.026881504937918077
207.989,0.035823618738099805,0.035823618738099805
207.99,0.0455653387738999,0.0455653387738999
207.991,0.05367887824814477,0.05367887824814477
207.992,0.05783560375892294,0.05783560375892294
207.993,0.056283057897617894,0.056283057897617894
207.994,0.04829182005191002,0.04829182005191002
207.995,0.03446742345483478,0.03446742345483478
207.996,0.016820557612565512,0.016820557612565512
207.997,0.0014781305495680241,-0.0014781305495680241
207.998,0.016663754621010662,-0.016663754621010662
207.999,0.025178534618851778,-0.025178534618851778
208.0,0.02453850213739306,-0.02453850213739306
208.001,0.014044897284516078,-0.014044897284516078
208.002,0.004871931550209041,0.004871931550209041
208.003,0.028813426859471525,0.028813426859471525
208.004,0.05308858283906437,0.05308858283906437
208.005,0.07276870084634557,0.07276870084634557
208.006,0.08386466665054604,0.08386466665054604
208.007,0.08431546104156773,0.08431546104156773
208.008,0.07451049353010974,0.07451049353010974
208.009,0.057187078055477736,0.057187078055477736
208.01,0.03671659433132701,0.03671659433132701
208.011,0.017968232572665332,0.017968232572665332
208.012,0.005063747470978708,0.005063747470978708
208.013,0.0003702522614932313,0.0003702522614932313
208.014,0.004008159378267484,0.004008159378267484
208.015,0.013997837931029045,0.013997837931029045
208.016,0.026978264823205533,0.026978264823205533
208.017,0.03926303129120101,0.03926303129120101
208.018,0.047905911756216835,0.047905911756216835
208.019,0.0514583250929157,0.0514583250929157
208.02,0.05020966680393091,0.05020966680393091
208.021,0.04587219259964015,0.04587219259964015
208.022,0.04084878478633858,0.04084878478633858
208.023,0.03734740306765438,0.03734740306765438
208.024,0.036641034129040406,0.036641034129040406
208.025,0.03870786669674531,0.03870786669674531
208.026,0.04234761119914565,0.04234761119914565
208.027,0.04570501501230395,0.04570501501230395
208.028,0.04699681482932827,0.04699681482932827
208.029,0.045178106024903686,0.045178106024903686
208.03,0.04031642653413714,0.04031642653413714
208.031,0.033552769056064635,0.033552769056064635
208.032,0.02667774422576974,0.02667774422576974
208.033,0.021485662743277345,0.021485662743277345
208.034,0.01914312059220058,0.01914312059220058
208.035,0.019797602823559357,0.019797602823559357
208.036,0.02256150404123569,0.02256150404123569
208.037,0.02587098446341063,0.02587098446341063
208.038,0.028085716777101144,0.028085716777101144
208.039,0.028111471814886047,0.028111471814886047
208.04,0.025821282177068028,0.025821282177068028
208.041,0.022123644898525807,0.022123644898525807
208.042,0.018651448886475297,0.018651448886475297
208.043,0.01717881302494817,0.01717881302494817
208.044,0.018968403335890338,0.018968403335890338
208.045,0.024276566789193543,0.024276566789193543
208.046,0.032190104852477974,0.032190104852477974
208.047,0.04085599967414333,0.04085599967414333
208.048,0.04803296116076439,0.04803296116076439
208.049,0.0517863283488158,0.0517863283488158
208.05,0.05110118768638694,0.05110118768638694
208.051,0.046216835305656456,0.046216835305656456
208.052,0.038577713925899815,0.038577713925899815
208.053,0.030419638950849093,0.030419638950849093
208.054,0.02412407817166562,0.02412407817166562
208.055,0.02154091207030695,0.02154091207030695
208.056,0.023481752867561267,0.023481752867561267
208.057,0.02952438510939359,0.02952438510939359
208.058,0.038167475346402746,0.038167475346402746
208.059,0.04726816904490283,0.04726816904490283
208.06,0.05461759827289381,0.05461759827289381
208.061,0.05848274509750939,0.05848274509750939
208.062,0.05797122865636739,0.05797122865636739
208.063,0.05314396612942751,0.05314396612942751
208.064,0.04488313869584082,0.04488313869584082
208.065,0.03459148442207627,0.03459148442207627
208.066,0.023833490326552464,0.023833490326552464
208.067,0.014023325272702447,0.014023325272702447
208.068,0.006226638977621768,0.006226638977621768
208.069,0.0010918898532874532,0.0010918898532874532
208.07,0.001117871247079516,-0.001117871247079516
208.071,0.0004448893715428559,-0.0004448893715428559
208.072,0.002842737591535638,0.002842737591535638
208.073,0.008303719918383967,0.008303719918383967
208.074,0.015352373258566532,0.015352373258566532
208.075,0.023287142474206712,0.023287142474206712
208.076,0.03134547368309337,0.03134547368309337
208.077,0.038796575545143375,0.038796575545143375
208.078,0.04505849909944937,0.04505849909944937
208.079,0.0498036279246592,0.0498036279246592
208.08,0.053008924004536606,0.053008924004536606
208.081,0.05491972481163554,0.05491972481163554
208.082,0.05592531890030594,0.05592531890030594
208.083,0.056379956017648114,0.056379956017648114
208.084,0.0564299053378301,0.0564299053378301
208.085,0.05591353012152123,0.05591353012152123
208.086,0.05438235243497824,0.05438235243497824
208.087,0.05125165052697578,0.05125165052697578
208.088,0.046042404119902125,0.046042404119902125
208.089,0.03863910167686879,0.03863910167686879
208.09,0.029474221875980033,0.029474221875980033
208.091,0.01956640021109468,0.01956640021109468
208.092,0.01038130220855571,0.01038130220855571
208.093,0.0035388051895972605,0.0035388051895972605
208.094,0.00043939154066552355,0.00043939154066552355
208.095,0.0019104181551428123,0.0019104181551428123
208.096,0.007970079933582896,0.007970079933582896
208.097,0.017774560773853088,0.017774560773853088
208.098,0.02976278990314385,0.02976278990314385
208.099,0.041959805879031586,0.041959805879031586
208.1,0.0523603408442217,0.0523603408442217
208.101,0.0592997376808333,0.0592997376808333
208.102,0.061731797559606116,0.061731797559606116
208.103,0.05936591797426605,0.05936591797426605
208.104,0.05265644203602471,0.05265644203602471
208.105,0.04267206361759812,0.04267206361759812
208.106,0.030892776651707088,0.030892776651707088
208.107,0.018983319214446404,0.018983319214446404
208.108,0.008579379728627545,0.008579379728627545
208.109,0.0011045483366394215,0.0011045483366394215
208.11,0.0023787682628569895,-0.0023787682628569895
208.111,0.0012866050318325328,-0.0012866050318325328
208.112,0.00440352442139158,0.00440352442139158
208.113,0.014115904793893241,0.014115904793893241
208.114,0.026705680587198355,0.026705680587198355
208.115,0.04057152212497184,0.04057152212497184
208.116,0.05385628951319288,0.05385628951319288
208.117,0.06471759613968109,0.06471759613968109
208.118,0.0716259853682335,0.0716259853682335
208.119,0.07363179848372425,0.07363179848372425
208.12,0.07054020556967866,0.07054020556967866
208.121,0.06294992797912236,0.06294992797912236
208.122,0.05214141995476429,0.05214141995476429
208.123,0.03983613593781299,0.03983613593781299
208.124,0.02787929856262661,0.02787929856262661
208.125,0.01791521908579008,0.01791521908579008
208.126,0.011122341322019613,0.011122341322019613
208.127,0.008056453519509343,0.008056453519509343
208.128,0.008621743553942851,0.008621743553942851
208.129,0.012159789994997228,0.012159789994997228
208.13,0.017624436734689386,0.017624436734689386
208.131,0.023800307344016502,0.023800307344016502
208.132,0.029524172254740355,0.029524172254740355
208.133,0.033877276588627936,0.033877276588627936
208.134,0.0363273635753949,0.0363273635753949
208.135,0.036807089422729256,0.036807089422729256
208.136,0.03571967675795995,0.03571967675795995
208.137,0.033865343843791695,0.033865343843791695
208.138,0.03228753606664014,0.03228753606664014
208.139,0.03204975595513426,0.03204975595513426
208.14,0.03397197542602548,0.03397197542602548
208.141,0.03837582903593417,0.03837582903593417
208.142,0.044902042855663016,0.044902042855663016
208.143,0.05246316884573643,0.05246316884573643
208.144,0.059374146123905236,0.059374146123905236
208.145,0.06366339075143435,0.06366339075143435
208.146,0.06351652110317296,0.06351652110317296
208.147,0.05775788177804242,0.05775788177804242
208.148,0.04624781643203968,0.04624781643203968
208.149,0.030078341444421675,0.030078341444421675
208.15,0.01148988320138411,0.01148988320138411
208.151,0.006500667703514096,-0.006500667703514096
208.152,0.020692693726851674,-0.020692693726851674
208.153,0.028382288570452663,-0.028382288570452663
208.154,0.027965035447370057,-0.027965035447370057
208.155,0.019308116738881775,-0.019308116738881775
208.156,0.0037943241368270098,-0.0037943241368270098
208.157,0.015975344816692605,0.015975344816692605
208.158,0.036744988944804824,0.036744988944804824
208.159,0.055289652479321605,0.055289652479321605
208.16,0.06905306368058417,0.06905306368058417
208.161,0.07658704694714613,0.07658704694714613
208.162,0.07770325599153804,0.07770325599153804
208.163,0.07332978833842785,0.07332978833842785
208.164,0.06514314130801546,0.06514314130801546
208.165,0.05509719918759348,0.05509719918759348
208.166,0.04498235479027857,0.04498235479027857
208.167,0.036119600053845735,0.036119600053845735
208.168,0.02923912679289442,0.02923912679289442
208.169,0.024530943489116552,0.024530943489116552
208.17,0.021806909365979843,0.021806909365979843
208.171,0.020693463296953984,0.020693463296953984
208.172,0.020785249062746702,0.020785249062746702
208.173,0.021723609750955886,0.021723609750955886
208.174,0.02320481839313726,0.02320481839313726
208.175,0.024953964309422982,0.024953964309422982
208.176,0.026709879382253332,0.026709879382253332
208.177,0.028252100544231995,0.028252100544231995
208.178,0.029470375617158595,0.029470375617158595
208.179,0.030445074215650347,0.030445074215650347
208.18,0.031488315936392564,0.031488315936392564
208.181,0.033100526416440346,0.033100526416440346
208.182,0.0358257621395035,0.0358257621395035
208.183,0.040031707601466904,0.040031707601466904
208.184,0.04568026160118421,0.04568026160118421
208.185,0.05217505532593303,0.05217505532593303
208.186,0.058362116032672606,0.058362116032672606
208.187,0.06271897107866864,0.06271897107866864
208.188,0.06370716764953244,0.06370716764953244
208.189,0.06020312323878252,0.06020312323878252
208.19,0.0518837910486043,0.0518837910486043
208.191,0.03944237060355915,0.03944237060355915
208.192,0.02454907735848333,0.02454907735848333
208.193,0.009542916543741065,0.009542916543741065
208.194,0.0030785509150537127,-0.0030785509150537127
208.195,0.011238959451078445,-0.011238959451078445
208.196,0.013771857402612997,-0.013771857402612997
208.197,0.010677982521688278,-0.010677982521688278
208.198,0.003074680353538972,-0.003074680353538972
208.199,0.007149607872088293,0.007149607872088293
208.2,0.01787528789290982,0.01787528789290982
208.201,0.02732690993967135,0.02732690993967135
208.202,0.034513852218351015,0.034513852218351015
208.203,0.03940730302411244,0.03940730302411244
208.204,0.042805140905926686,0.042805140905926686
208.205,0.04593236790856792,0.04593236790856792
208.206,0.04990679710639001,0.04990679710639001
208.207,0.05524248639953688,0.05524248639953688
208.208,0.061553607349394746,0.061553607349394746
208.209,0.06756167856347162,0.06756167856347162
208.21,0.07141713940655836,0.07141713940655836
208.211,0.07124953423093361,0.07124953423093361
208.212,0.06578794736208149,0.06578794736208149
208.213,0.05486640300146606,0.05486640300146606
208.214,0.039655860147575606,0.039655860147575606
208.215,0.02253765133190999,0.02253765133190999
208.216,0.006631958109792446,0.006631958109792446
208.217,0.004908629324858693,-0.004908629324858693
208.218,0.00966308017385964,-0.00966308017385964
208.219,0.0065661519511095445,-0.0065661519511095445
208.22,0.003771768470852699,0.003771768470852699
208.221,0.01913798790791965,0.01913798790791965
208.222,0.03617417592296701,0.03617417592296701
208.223,0.051111170130497596,0.051111170130497596
208.224,0.060608790208454,0.060608790208454
208.225,0.06250347260199862,0.06250347260199862
208.226,0.056290999861421165,0.056290999861421165
208.227,0.04323693878586643,0.04323693878586643
208.228,0.02609623712429454,0.02609623712429454
208.229,0.008513485665918363,0.008513485665918363
208.23,0.005754793859593321,-0.005754793859593321
208.231,0.013620255856450103,-0.013620255856450103
208.232,0.013277167351616104,-0.013277167351616104
208.233,0.004528250764521791,-0.004528250764521791
208.234,0.01123089888482287,0.01123089888482287
208.235,0.03134431984818664,0.03134431984818664
208.236,0.052454259834913364,0.052454259834913364
208.237,0.07115401268408972,0.07115401268408972
208.238,0.0845950672258462,0.0845950672258462
208.239,0.09093242792134415,0.09093242792134415
208.24,0.08953930658078924,0.08953930658078924
208.241,0.08097984779865564,0.08097984779865564
208.242,0.0667813847215799,0.0667813847215799
208.243,0.04908363359345835,0.04908363359345835
208.244,0.03025438490584187,0.03025438490584187
208.245,0.012549673022858254,0.012549673022858254
208.246,0.0021324669103951477,-0.0021324669103951477
208.247,0.012391126193456281,-0.012391126193456281
208.248,0.017371864003315363,-0.017371864003315363
208.249,0.01676091288194348,-0.01676091288194348
208.25,0.010759034224469222,-0.010759034224469222
208.251,5.519238428475237e-05,-5.519238428475237e-05
208.252,0.014201686387430357,0.014201686387430357
208.253,0.030453947504200052,0.030453947504200052
208.254,0.04683852969094371,0.04683852969094371
208.255,0.06136360429732135,0.06136360429732135
208.256,0.07215742224102639,0.07215742224102639
208.257,0.0777585862349699,0.0777585862349699
208.258,0.07739059729615971,0.07739059729615971
208.259,0.07115103311688831,0.07115103311688831
208.26,0.06005387722907862,0.06005387722907862
208.261,0.04589265562162126,0.04589265562162126
208.262,0.030935404509588205,0.030935404509588205
208.263,0.01750800164059374,0.01750800164059374
208.264,0.007556233476318619,0.007556233476318619
208.265,0.0022879992043505215,0.0022879992043505215
208.266,0.001980535887577961,0.001980535887577961
208.267,0.005996989159941624,0.005996989159941624
208.268,0.013003026591454248,0.013003026591454248
208.269,0.021322754139032396,0.021322754139032396
208.27,0.02933883743616339,0.02933883743616339
208.271,0.03583433021829463,0.03583433021829463
208.272,0.040195034056973,0.040195034056973
208.273,0.042434342835604655,0.042434342835604655
208.274,0.04305407606747935,0.04305407606747935
208.275,0.04279918104923697,0.04279918104923697
208.276,0.042388510350904296,0.042388510350904296
208.277,0.04230199344095342,0.04230199344095342
208.278,0.04267871003170387,0.04267871003170387
208.279,0.043340341415045947,0.043340341415045947
208.28,0.043913900669462436,0.043913900669462436
208.281,0.043999528309018876,0.043999528309018876
208.282,0.043321560272066906,0.043321560272066906
208.283,0.04181472707694933,0.04181472707694933
208.284,0.03962570495832085,0.03962570495832085
208.285,0.03704220736582875,0.03704220736582875
208.286,0.034385817428462806,0.034385817428462806
208.287,0.03191292534257695,0.03191292534257695
208.288,0.029758876323371375,0.029758876323371375
208.289,0.027938765872649096,0.027938765872649096
208.29,0.026393663512624066,0.026393663512624066
208.291,0.025053478817362418,0.025053478817362418
208.292,0.023884002508556934,0.023884002508556934
208.293,0.022896769499185732,0.022896769499185732
208.294,0.022121018393986613,0.022121018393986613
208.295,0.021557830742183315,0.021557830742183315
208.296,0.021147927273863942,0.021147927273863942
208.297,0.020780711380523842,0.020780711380523842
208.298,0.020353486023454437,0.020353486023454437
208.299,0.019863394494754383,0.019863394494754383
208.3,0.019491721209726975,0.019491721209726975
208.301,0.01963172900728094,0.01963172900728094
208.302,0.02082345583033618,0.02082345583033618
208.303,0.023590280803856167,0.023590280803856167
208.304,0.028212932806144675,0.028212932806144675
208.305,0.03451203791264601,0.03451203791264601
208.306,0.04172528203822057,0.04172528203822057
208.307,0.048550444866919173,0.048550444866919173
208.308,0.05338144782504339,0.05338144782504339
208.309,0.05470253043482365,0.05470253043482365
208.31,0.051545116802786506,0.051545116802786506
208.311,0.04387422895999604,0.04387422895999604
208.312,0.032772473257882906,0.032772473257882906
208.313,0.02033421499970567,0.02033421499970567
208.314,0.009260924798392578,0.009260924798392578
208.315,0.0022389408144107836,0.0022389408144107836
208.316,0.0012551726043263933,0.0012551726043263933
208.317,0.007039480453876923,0.007039480453876923
208.318,0.018800748977054305,0.018800748977054305
208.319,0.03434974237828459,0.03434974237828459
208.32,0.05059514153698541,0.05059514153698541
208.321,0.06429066446098242,0.06429066446098242
208.322,0.07283400825348818,0.07283400825348818
208.323,0.07489742923447285,0.07489742923447285
208.324,0.07071352130093533,0.07071352130093533
208.325,0.061936822941712544,0.061936822941712544
208.326,0.05112410983034166,0.05112410983034166
208.327,0.040986995188937,0.040986995188937
208.328,0.03363599363995173,0.03363599363995173
208.329,0.03003522143035897,0.03003522143035897
208.33,0.029821161143358754,0.029821161143358754
208.331,0.03152749885396644,0.03152749885396644
208.332,0.03313521480324244,0.03313521480324244
208.333,0.03277063205571218,0.03277063205571218
208.334,0.02933339842643079,0.02933339842643079
208.335,0.022863219939084578,0.022863219939084578
208.336,0.014539212554741443,0.014539212554741443
208.337,0.006321567016732477,0.006321567016732477
208.338,0.0003552011459853066,0.0003552011459853066
208.339,0.001674921464549728,-0.001674921464549728
208.34,0.0009620433837245201,0.0009620433837245201
208.341,0.007845136802553832,0.007845136802553832
208.342,0.01754981399090494,0.01754981399090494
208.343,0.028082970430004073,0.028082970430004073
208.344,0.037459754487945585,0.037459754487945585
208.345,0.0442400618435399,0.0442400618435399
208.346,0.04786419092919392,0.04786419092919392
208.347,0.0486981241157165,0.0486981241157165
208.348,0.04779457448212554,0.04779457448212554
208.349,0.046464681572492283,0.046464681572492283
208.35,0.0458090268594622,0.0458090268594622
208.351,0.04636000198806833,0.04636000198806833
208.352,0.04794209803842597,0.04794209803842597
208.353,0.04977977786418086,0.04977977786418086
208.354,0.050800982754134694,0.050800982754134694
208.355,0.05002483558356885,0.05002483558356885
208.356,0.04690277018430433,0.04690277018430433
208.357,0.041506848648718675,0.041506848648718675
208.358,0.03451634307218576,0.03451634307218576
208.359,0.02702243752390343,0.02702243752390343
208.36,0.020227394997328618,0.020227394997328618
208.361,0.015140774957890457,0.015140774957890457
208.362,0.01236493035031283,0.01236493035031283
208.363,0.01202179942463455,0.01202179942463455
208.364,0.013819597004659734,0.013819597004659734
208.365,0.017211473760465612,0.017211473760465612
208.366,0.021574641970914854,0.021574641970914854
208.367,0.026344369623630515,0.026344369623630515
208.368,0.031067679192200437,0.031067679192200437
208.369,0.035382576164664226,0.035382576164664226
208.37,0.03896284076326251,0.03896284076326251
208.371,0.04148191160044945,0.04148191160044945
208.372,0.04263695730100148,0.04263695730100148
208.373,0.04224129448302638,0.04224129448302638
208.374,0.04035377798387074,0.04035377798387074
208.375,0.037384666389493226,0.037384666389493226
208.376,0.03411223697906873,0.03411223697906873
208.377,0.031567679366108825,0.031567679366108825
208.378,0.030791109454312293,0.030791109454312293
208.379,0.03251342366226084,0.03251342366226084
208.38,0.03685797589336026,0.03685797589336026
208.381,0.04316672799259402,0.04316672799259402
208.382,0.050030775673162164,0.050030775673162164
208.383,0.055550186280048486,0.055550186280048486
208.384,0.057778845708726934,0.057778845708726934
208.385,0.05524815277238471,0.05524815277238471
208.386,0.04742920152825225,0.04742920152825225
208.387,0.03499874392971769,0.03499874392971769
208.388,0.019819734926250776,0.019819734926250776
208.389,0.004620352763086366,0.004620352763086366
208.39,0.007564647046344519,-0.007564647046344519
208.391,0.014062211114750478,-0.014062211114750478
208.392,0.013180211057721491,-0.013180211057721491
208.393,0.00462947181727813,-0.00462947181727813
208.394,0.010351871228373888,0.010351871228373888
208.395,0.02920135061596052,0.02920135061596052
208.396,0.04851726958328895,0.04851726958328895
208.397,0.06472020720609528,0.06472020720609528
208.398,0.07475189727915432,0.07475189727915432
208.399,0.07667097859497418,0.07667097859497418
208.4,0.07003205556760528,0.07003205556760528
208.401,0.05598083248946084,0.05598083248946084
208.402,0.037052610580585954,0.037052610580585954
208.403,0.016713940700219032,0.016713940700219032
