Czas,AbsSum,Sum
176.942,0.1173616425149584,0.1173616425149584
176.943,0.10915932956946173,0.10915932956946173
176.94400000000002,0.09044994652324068,0.09044994652324068
176.94500000000002,0.06705859607764353,0.06705859607764353
176.946,0.0456042247161943,0.0456042247161943
176.947,0.03143522453644998,0.03143522453644998
176.948,0.026900429760859046,0.026900429760859046
176.949,0.030559549473060388,0.030559549473060388
176.95000000000002,0.03765319402714806,0.03765319402714806
176.95100000000002,0.04173944463898427,0.04173944463898427
176.952,0.03699881012945161,0.03699881012945161
176.953,0.02045432975367678,0.02045432975367678
176.954,0.006655268512400059,-0.006655268512400059
176.955,0.03885957960314934,-0.03885957960314934
176.95600000000002,0.06787107383563895,-0.06787107383563895
176.95700000000002,0.0850245770890471,-0.0850245770890471
176.958,0.08397747029623259,-0.08397747029623259
176.959,0.06279449375839308,-0.06279449375839308
176.96,0.02472103613645571,-0.02472103613645571
176.961,0.022633039246208186,0.022633039246208186
176.96200000000002,0.06945719623870339,0.06945719623870339
176.96300000000002,0.10656266637393519,0.10656266637393519
176.964,0.1279527452566478,0.1279527452566478
176.965,0.1323120809606977,0.1323120809606977
176.966,0.12294753703989736,0.12294753703989736
176.967,0.10623419976610626,0.10623419976610626
176.96800000000002,0.08912466278214182,0.08912466278214182
176.96900000000002,0.07659555979146027,0.07659555979146027
176.97,0.06992293188069088,0.06992293188069088
176.971,0.06638899519062402,0.06638899519062402
176.972,0.06052386949027966,0.06052386949027966
176.973,0.04644652327670551,0.04644652327670551
176.97400000000002,0.02047488290323951,0.02047488290323951
176.975,0.0169366906169075,-0.0169366906169075
176.976,0.0606612959399947,-0.0606612959399947
176.977,0.10202415498282824,-0.10202415498282824
176.978,0.13127880567825845,-0.13127880567825845
176.979,0.14065042628775937,-0.14065042628775937
176.98000000000002,0.12694348246174736,-0.12694348246174736
176.981,0.0928272101851696,-0.0928272101851696
176.982,0.04632902036495312,-0.04632902036495312
176.983,0.0013534336666636282,0.0013534336666636282
176.984,0.03905861399165578,0.03905861399165578
176.985,0.05888366957268576,0.05888366957268576
176.98600000000002,0.05840869936127224,0.05840869936127224
176.987,0.041228135514951525,0.041228135514951525
176.988,0.015641312809449248,0.015641312809449248
176.989,0.00805349147550849,-0.00805349147550849
176.99,0.020775375285559727,-0.020775375285559727
176.991,0.017354809904222113,-0.017354809904222113
176.99200000000002,0.002132747160703774,0.002132747160703774
176.993,0.03276448154361655,0.03276448154361655
176.994,0.06668935950119059,0.06668935950119059
176.995,0.09586094437169956,0.09586094437169956
176.996,0.1146268106426207,0.1146268106426207
176.997,0.12129789573670857,0.12129789573670857
176.99800000000002,0.11819965870662141,0.11819965870662141
176.999,0.11025083099729449,0.11025083099729449
177.0,0.10263645941333266,0.10263645941333266
177.001,0.0984600801479274,0.0984600801479274
177.002,0.09726534243522411,0.09726534243522411
177.003,0.09500774731598205,0.09500774731598205
177.00400000000002,0.08553834873020949,0.08553834873020949
177.005,0.06311185433818811,0.06311185433818811
177.006,0.02504212235306147,0.02504212235306147
177.007,0.026463804189205686,-0.026463804189205686
177.008,0.08401885506975937,-0.08401885506975937
177.009,0.1365403016809934,-0.1365403016809934
177.01000000000002,0.1721344426743192,-0.1721344426743192
177.011,0.1815219308475372,-0.1815219308475372
177.012,0.1609279051803253,-0.1609279051803253
177.013,0.11349500579292893,-0.11349500579292893
177.014,0.04872307689974731,-0.04872307689974731
177.015,0.01994520866472871,0.01994520866472871
177.01600000000002,0.07868785645716514,0.07868785645716514
177.017,0.11694619489573466,0.11694619489573466
177.018,0.1300516639990117,0.1300516639990117
177.019,0.1200651732818272,0.1200651732818272
177.02,0.09462394798868545,0.09462394798868545
177.02100000000002,0.06421617930372481,0.06421617930372481
177.02200000000002,0.038785862399270066,0.038785862399270066
177.023,0.024755094380684683,0.024755094380684683
177.024,0.023383405892731357,0.023383405892731357
177.025,0.030923688045351838,0.030923688045351838
177.026,0.04043685095683025,0.04043685095683025
177.02700000000002,0.044590005140130895,0.044590005140130895
177.02800000000002,0.03846028605809093,0.03846028605809093
177.029,0.021393016217807315,0.021393016217807315
177.03,0.002696670617610808,-0.002696670617610808
177.031,0.026653858738118763,-0.026653858738118763
177.032,0.042570405310641046,-0.042570405310641046
177.03300000000002,0.04457053919415588,-0.04457053919415588
177.03400000000002,0.030947164855744114,-0.030947164855744114
177.035,0.004926202035465899,-0.004926202035465899
177.036,0.026201515533876618,0.026201515533876618
177.037,0.05329914728604801,0.05329914728604801
177.038,0.06822986376698159,0.06822986376698159
177.03900000000002,0.06640773440840819,0.06640773440840819
177.04000000000002,0.04823665391205578,0.04823665391205578
177.041,0.018989244441429243,0.018989244441429243
177.042,0.01281605170683231,-0.01281605170683231
177.043,0.03800527124416131,-0.03800527124416131
177.044,0.04947928842621363,-0.04947928842621363
177.04500000000002,0.0442363636984201,-0.0442363636984201
177.04600000000002,0.024088699046723838,-0.024088699046723838
177.047,0.005094895119980514,0.005094895119980514
177.048,0.03532191466190393,0.03532191466190393
177.049,0.05893470765829778,0.05893470765829778
177.05,0.07081463731034487,0.07081463731034487
177.05100000000002,0.06967402615542051,0.06967402615542051
177.05200000000002,0.058100389600172164,0.058100389600172164
177.053,0.0414262206372602,0.0414262206372602
177.054,0.02585756189234334,0.02585756189234334
177.055,0.016494311712520693,0.016494311712520693
177.056,0.015861709955365733,0.015861709955365733
177.05700000000002,0.02336487640304452,0.02336487640304452
177.05800000000002,0.03575688457048698,0.03575688457048698
177.059,0.048386674074037295,0.048386674074037295
177.06,0.05676957099663893,0.05676957099663893
177.061,0.05796306041717414,0.05796306041717414
177.062,0.051338671246276224,0.051338671246276224
177.06300000000002,0.038567773854708776,0.038567773854708776
177.06400000000002,0.022901578487108276,0.022901578487108276
177.065,0.00803710600072094,0.00803710600072094
177.066,0.0030400909537533494,-0.0030400909537533494
177.067,0.00887821300953695,-0.00887821300953695
177.068,0.00982750643591912,-0.00982750643591912
177.06900000000002,0.007725969155138013,-0.007725969155138013
177.07000000000002,0.00515091516142463,-0.00515091516142463
177.071,0.004496892899891747,-0.004496892899891747
177.072,0.007163362855256872,-0.007163362855256872
177.073,0.013075884644161095,-0.013075884644161095
177.074,0.020652195919492744,-0.020652195919492744
177.07500000000002,0.02719879907256395,-0.02719879907256395
177.07600000000002,0.029619145783676193,-0.029619145783676193
177.077,0.02525189212471457,-0.02525189212471457
177.078,0.012641636645534082,-0.012641636645534082
177.079,0.007932077659632997,0.007932077659632997
177.08,0.034290724929182614,0.034290724929182614
177.08100000000002,0.06261292925018958,0.06261292925018958
177.08200000000002,0.08808837752460752,0.08808837752460752
177.083,0.10586646503947139,0.10586646503947139
177.084,0.11212261155789638,0.11212261155789638
177.085,0.10501320125468472,0.10501320125468472
177.086,0.08527935170271528,0.08527935170271528
177.08700000000002,0.05630646051893273,0.05630646051893273
177.08800000000002,0.023554704559141992,0.023554704559141992
177.089,0.006570358111521624,-0.006570358111521624
177.09,0.028174743675351444,-0.028174743675351444
177.091,0.037305384357741,-0.037305384357741
177.092,0.032961385886909,-0.032961385886909
177.09300000000002,0.017375504029725652,-0.017375504029725652
177.09400000000002,0.0045610885419506975,0.0045610885419506975
177.095,0.026612868587027938,0.026612868587027938
177.096,0.0429033663632743,0.0429033663632743
177.097,0.04951799797413914,0.04951799797413914
177.098,0.045522675792063705,0.045522675792063705
177.09900000000002,0.033077969253703765,0.033077969253703765
177.1,0.0166062260724964,0.0166062260724964
177.101,0.001274730085698339,0.001274730085698339
177.102,0.00871082587425065,-0.00871082587425065
177.103,0.011435098199294336,-0.011435098199294336
177.104,0.007774880727490219,-0.007774880727490219
177.10500000000002,0.0009022559357763082,-0.0009022559357763082
177.106,0.005036116326009976,0.005036116326009976
177.107,0.006593085336457305,0.006593085336457305
177.108,0.0024404666131268016,0.0024404666131268016
177.109,0.005997656070904744,-0.005997656070904744
177.11,0.014957642250652547,-0.014957642250652547
177.11100000000002,0.01967843748539555,-0.01967843748539555
177.112,0.016208050119475237,-0.016208050119475237
177.113,0.003017336305743523,-0.003017336305743523
177.114,0.018193888231227806,0.018193888231227806
177.115,0.04284210396593924,0.04284210396593924
177.116,0.06488900862937941,0.06488900862937941
177.11700000000002,0.0788798769987793,0.0788798769987793
177.118,0.08186584912823469,0.08186584912823469
177.119,0.07448940863067333,0.07448940863067333
177.12,0.060784900220391735,0.060784900220391735
177.121,0.046700197140882915,0.046700197140882915
177.122,0.03782404781745696,0.03782404781745696
177.12300000000002,0.0371312339310379,0.0371312339310379
177.124,0.043604998014165064,0.043604998014165064
177.125,0.05232885064893544,0.05232885064893544
177.126,0.05613604580888887,0.05613604580888887
177.127,0.04833320400904961,0.04833320400904961
177.128,0.02557760589603708,0.02557760589603708
177.12900000000002,0.010148199810531167,-0.010148199810531167
177.13,0.05128727274123557,-0.05128727274123557
177.131,0.08646325181978698,-0.08646325181978698
177.132,0.10383479374876825,-0.10383479374876825
177.133,0.09505221554283694,-0.09505221554283694
177.134,0.05852743973654295,-0.05852743973654295
177.13500000000002,0.0008551776968002134,-0.0008551776968002134
177.136,0.06425109830414222,0.06425109830414222
177.137,0.11937591882433018,0.11937591882433018
177.138,0.1482700153602543,0.1482700153602543
177.139,0.14075226013379605,0.14075226013379605
177.14,0.096141051569274,0.096141051569274
177.14100000000002,0.024095968040608096,0.024095968040608096
177.142,0.0575023901357834,-0.0575023901357834
177.143,0.12712501107219498,-0.12712501107219498
177.144,0.16536715096512478,-0.16536715096512478
177.145,0.16029440280710727,-0.16029440280710727
177.14600000000002,0.11084445292974898,-0.11084445292974898
177.14700000000002,0.027322803271597196,-0.027322803271597196
177.148,0.07113932414972113,0.07113932414972113
177.149,0.16144510002157597,0.16144510002157597
177.15,0.2223678248763572,0.2223678248763572
177.151,0.2397979626124549,0.2397979626124549
177.15200000000002,0.21005979425522447,0.21005979425522447
177.15300000000002,0.14053354248993166,0.14053354248993166
177.154,0.04756422822227746,0.04756422822227746
177.155,0.04766837781274669,-0.04766837781274669
177.156,0.12418794419892143,-0.12418794419892143
177.157,0.1659148324511902,-0.1659148324511902
177.15800000000002,0.16496498412724414,-0.16496498412724414
177.15900000000002,0.12293762761335392,-0.12293762761335392
177.16,0.05009286671823976,-0.05009286671823976
177.161,0.037216915090131364,0.037216915090131364
177.162,0.1201867361994764,0.1201867361994764
177.163,0.1814704697864582,0.1814704697864582
177.16400000000002,0.20860785949405325,0.20860785949405325
177.16500000000002,0.19637053291140405,0.19637053291140405
177.166,0.1476524947965241,0.1476524947965241
177.167,0.07277669389345509,0.07277669389345509
177.168,0.012659657406150049,-0.012659657406150049
177.169,0.09103303984909505,-0.09103303984909505
177.17000000000002,0.1464465444217592,-0.1464465444217592
177.17100000000002,0.16824255460972348,-0.16824255460972348
177.172,0.1534909547548936,-0.1534909547548936
177.173,0.10779808068511376,-0.10779808068511376
177.174,0.044098026626104736,-0.044098026626104736
177.175,0.02044686367342008,0.02044686367342008
177.17600000000002,0.06879668360964253,0.06879668360964253
177.17700000000002,0.08858090406276609,0.08858090406276609
177.178,0.07561527079618657,0.07561527079618657
177.179,0.03532941145544455,0.03532941145544455
177.18,0.018450125003126927,-0.018450125003126927
177.181,0.06718943640903996,-0.06718943640903996
177.18200000000002,0.0928903428579737,-0.0928903428579737
177.18300000000002,0.08343583174041302,-0.08343583174041302
177.184,0.036459671915859415,-0.036459671915859415
177.185,0.03948497148567731,0.03948497148567731
177.186,0.12692617730050615,0.12692617730050615
177.187,0.20416547289747156,0.20416547289747156
177.18800000000002,0.25134068148087474,0.25134068148087474
177.18900000000002,0.25607378782170365,0.25607378782170365
177.19,0.21699831757268195,0.21699831757268195
177.191,0.1440807529806032,0.1440807529806032
177.192,0.055627835890674326,0.055627835890674326
177.193,0.027100234038748505,-0.027100234038748505
177.19400000000002,0.08600374677676392,-0.08600374677676392
177.19500000000002,0.11109885317724211,-0.11109885317724211
177.196,0.10281482908132078,-0.10281482908132078
177.197,0.07100191120626176,-0.07100191120626176
177.198,0.03108394294478689,-0.03108394294478689
177.199,0.0012994609801859625,0.0012994609801859625
177.20000000000002,0.015362654293565647,0.015362654293565647
177.20100000000002,0.008307547846353014,0.008307547846353014
177.202,0.014429108866104268,-0.014429108866104268
177.203,0.04176238977607194,-0.04176238977607194
177.204,0.061365515228811396,-0.061365515228811396
177.205,0.0642888467869338,-0.0642888467869338
177.20600000000002,0.04815951452854006,-0.04815951452854006
177.20700000000002,0.017872192245452445,-0.017872192245452445
177.208,0.01640584263763989,0.01640584263763989
177.209,0.04313440973225391,0.04313440973225391
177.21,0.05375840804109244,0.05375840804109244
177.211,0.04593564440791087,0.04593564440791087
177.21200000000002,0.024471786714541865,0.024471786714541865
177.21300000000002,0.00036438176904340924,-0.00036438176904340924
177.214,0.016528067963435644,-0.016528067963435644
177.215,0.014556212943766855,-0.014556212943766855
177.216,0.008967044557030901,0.008967044557030901
177.217,0.05006942603601172,0.05006942603601172
177.21800000000002,0.09863702162796573,0.09863702162796573
177.21900000000002,0.141783116182022,0.141783116182022
177.22,0.16812250082481395,0.16812250082481395
177.221,0.1714284606798977,0.1714284606798977
177.222,0.15239603536201063,0.15239603536201063
177.223,0.11793995090568998,0.11793995090568998
177.22400000000002,0.07835892031768088,0.07835892031768088
177.225,0.043468847037716474,0.043468847037716474
177.226,0.019164459478183682,0.019164459478183682
177.227,0.005682915170084568,0.005682915170084568
177.228,0.0018156152424061434,-0.0018156152424061434
177.229,0.01062179054236534,-0.01062179054236534
177.23000000000002,0.026861388199319602,-0.026861388199319602
177.231,0.05233492428432074,-0.05233492428432074
177.232,0.08310095246451277,-0.08310095246451277
177.233,0.11044072413230166,-0.11044072413230166
177.234,0.12393283738707062,-0.12393283738707062
177.235,0.11553501913058928,-0.11553501913058928
177.23600000000002,0.08313031183814856,-0.08313031183814856
177.237,0.032122793434281705,-0.032122793434281705
177.238,0.025665833427632512,0.025665833427632512
177.239,0.07557163673438994,0.07557163673438994
177.24,0.10497260885792126,0.10497260885792126
177.241,0.10776774055587701,0.10776774055587701
177.24200000000002,0.08678862914799823,0.08678862914799823
177.243,0.05314041631322408,0.05314041631322408
177.244,0.022522610808209942,0.022522610808209942
177.245,0.009666918338855357,0.009666918338855357
177.246,0.022762903857376005,0.022762903857376005
177.247,0.059849568552164945,0.059849568552164945
177.24800000000002,0.10856964584810136,0.10856964584810136
177.249,0.14959022980182612,0.14959022980182612
177.25,0.1627479075854854,0.1627479075854854
177.251,0.1340011996472361,0.1340011996472361
177.252,0.060908656180907794,0.060908656180907794
177.253,0.045261558952037984,-0.045261558952037984
177.25400000000002,0.1616555999720296,-0.1616555999720296
177.255,0.25971341253143343,-0.25971341253143343
177.256,0.3131066010299949,-0.3131066010299949
177.257,0.30534381053222637,-0.30534381053222637
177.258,0.23471588360322537,-0.23471588360322537
177.259,0.1150569283593127,-0.1150569283593127
177.26000000000002,0.027916178671263392,0.027916178671263392
177.261,0.16356865454733294,0.16356865454733294
177.262,0.2645097996485273,0.2645097996485273
177.263,0.3135290313417549,0.3135290313417549
177.264,0.3073279848889974,0.3073279848889974
177.265,0.2561165056240331,0.2561165056240331
177.26600000000002,0.17943726029089158,0.17943726029089158
177.267,0.09971159275072172,0.09971159275072172
177.268,0.035606582558770805,0.035606582558770805
177.269,0.0027603679887413524,-0.0027603679887413524
177.27,0.015477540149916869,-0.015477540149916869
177.27100000000002,0.011136594047393755,-0.011136594047393755
177.27200000000002,0.0026344832420811537,-0.0026344832420811537
177.273,0.0020708168363515744,-0.0020708168363515744
177.274,0.016490988480605595,-0.016490988480605595
177.275,0.045798270763230176,-0.045798270763230176
177.276,0.0833244381704864,-0.0833244381704864
177.27700000000002,0.11861439839805965,-0.11861439839805965
177.27800000000002,0.14126847011487986,-0.14126847011487986
177.279,0.1444249147371105,-0.1444249147371105
177.28,0.12671567000726935,-0.12671567000726935
177.281,0.09216945947785038,-0.09216945947785038
177.282,0.04831720209483403,-0.04831720209483403
177.28300000000002,0.0033865610721882655,-0.0033865610721882655
177.28400000000002,0.03626622797214174,0.03626622797214174
177.285,0.06752680115264975,0.06752680115264975
177.286,0.09028276896992304,0.09028276896992304
177.287,0.1058491173884053,0.1058491173884053
177.288,0.11489517068261601,0.11489517068261601
177.28900000000002,0.11592482490179523,0.11592482490179523
177.29000000000002,0.10514484345674435,0.10514484345674435
177.291,0.07798254104631974,0.07798254104631974
177.292,0.03179686655862968,0.03179686655862968
177.293,0.03126046537429861,-0.03126046537429861
177.294,0.10249857198127887,-0.10249857198127887
177.29500000000002,0.1670652128197182,-0.1670652128197182
177.29600000000002,0.20678550069021362,-0.20678550069021362
177.297,0.20492285987727588,-0.20492285987727588
177.298,0.15154672303936068,-0.15154672303936068
177.299,0.04779798672751101,-0.04779798672751101
177.3,0.09249835792999073,0.09249835792999073
177.30100000000002,0.24472553504350558,0.24472553504350558
177.30200000000002,0.37868246814346596,0.37868246814346596
177.303,0.46585487015974425,0.46585487015974425
177.304,0.48676404158750164,0.48676404158750164
177.305,0.4362572558034319,0.4362572558034319
177.306,0.32511488760364693,0.32511488760364693
177.30700000000002,0.17738822587068936,0.17738822587068936
177.30800000000002,0.024139213017167815,0.024139213017167815
177.309,0.10466000889832705,-0.10466000889832705
177.31,0.187739638295642,-0.187739638295642
177.311,0.217464537049049,-0.217464537049049
177.312,0.20070468974108135,-0.20070468974108135
177.31300000000002,0.15550121003206208,-0.15550121003206208
177.31400000000002,0.1046664601675551,-0.1046664601675551
177.315,0.06837611807338961,-0.06837611807338961
177.316,0.058076739276171185,-0.058076739276171185
177.317,0.07356073271075136,-0.07356073271075136
177.318,0.1040051182221442,-0.1040051182221442
177.31900000000002,0.1324739322089009,-0.1324739322089009
177.32000000000002,0.14226895321616218,-0.14226895321616218
177.321,0.12294339310006852,-0.12294339310006852
177.322,0.07395363775811847,-0.07395363775811847
177.323,0.004759075592260631,-0.004759075592260631
177.324,0.06859115732337484,0.06859115732337484
177.32500000000002,0.1291369417696524,0.1291369417696524
177.32600000000002,0.16492497264246775,0.16492497264246775
177.327,0.17305782309678253,0.17305782309678253
177.328,0.1604162785225567,0.1604162785225567
177.329,0.14076212935234955,0.14076212935234955
177.33,0.12921380515997427,0.12921380515997427
177.33100000000002,0.1360489214418581,0.1360489214418581
177.33200000000002,0.16208509201468524,0.16208509201468524
177.333,0.1974039047293954,0.1974039047293954
177.334,0.2240609895841934,0.2240609895841934
177.335,0.22203897164714448,0.22203897164714448
177.336,0.17652237001846038,0.17652237001846038
177.33700000000002,0.08401833812038562,0.08401833812038562
177.33800000000002,0.04487346259397074,-0.04487346259397074
177.339,0.18719301447741832,-0.18719301447741832
177.34,0.31352664869837776,-0.31352664869837776
177.341,0.3963400529441681,-0.3963400529441681
177.342,0.41811159188176905,-0.41811159188176905
177.34300000000002,0.37661882615411835,-0.37661882615411835
177.34400000000002,0.28559720896744045,-0.28559720896744045
177.345,0.17047347028615245,-0.17047347028615245
177.346,0.06049175432639731,-0.06049175432639731
177.347,0.020242628241617933,0.020242628241617933
177.348,0.05989247483691584,0.05989247483691584
177.34900000000002,0.06186274708713713,0.06186274708713713
177.35,0.04265732920950116,0.04265732920950116
177.351,0.025358940935839014,0.025358940935839014
177.352,0.030942763983093258,0.030942763983093258
177.353,0.07037436845711453,0.07037436845711453
177.354,0.14019569851934,0.14019569851934
177.35500000000002,0.22314321561278327,0.22314321561278327
177.356,0.29365295255621215,0.29365295255621215
177.357,0.32645337241555605,0.32645337241555605
177.358,0.3053855899327047,0.3053855899327047
177.359,0.22948187630780237,0.22948187630780237
177.36,0.1142179472238336,0.1142179472238336
177.36100000000002,0.012561373578850898,-0.012561373578850898
177.362,0.11878882321717754,-0.11878882321717754
177.363,0.17779928183038451,-0.17779928183038451
177.364,0.17635608466138164,-0.17635608466138164
177.365,0.11853308955871766,-0.11853308955871766
177.366,0.024262853394181993,-0.024262853394181993
177.36700000000002,0.07691519874685193,0.07691519874685193
177.368,0.15485566689284846,0.15485566689284846
177.369,0.18768906530424423,0.18768906530424423
177.37,0.1678484276140586,0.1678484276140586
177.371,0.10351171369016754,0.10351171369016754
177.372,0.015252143504352889,0.015252143504352889
177.37300000000002,0.07079601771375721,-0.07079601771375721
177.374,0.13093473753179707,-0.13093473753179707
177.375,0.15053406987515805,-0.15053406987515805
177.376,0.1273900859262872,-0.1273900859262872
177.377,0.07108894595394288,-0.07108894595394288
177.378,0.0010194971635149042,0.0010194971635149042
177.37900000000002,0.06962717008513852,0.06962717008513852
177.38,0.11905803368904966,0.11905803368904966
177.381,0.14096191689339976,0.14096191689339976
177.382,0.13526377965985192,0.13526377965985192
177.383,0.10853124843212902,0.10853124843212902
177.384,0.07074000490143373,0.07074000490143373
177.38500000000002,0.03177459588098852,0.03177459588098852
177.386,0.0011668122674131087,-0.0011668122674131087
177.387,0.024654885893929945,-0.024654885893929945
177.388,0.03866972548031955,-0.03866972548031955
177.389,0.0453840372501062,-0.0453840372501062
177.39,0.04783509514218509,-0.04783509514218509
177.39100000000002,0.0490264864694655,-0.0490264864694655
177.392,0.051577677228457075,-0.051577677228457075
177.393,0.057637346444837645,-0.057637346444837645
177.394,0.06861089233483697,-0.06861089233483697
177.395,0.08441535923749555,-0.08441535923749555
177.39600000000002,0.10238854455408752,-0.10238854455408752
177.39700000000002,0.11642641272470089,-0.11642641272470089
177.398,0.11714430611589433,-0.11714430611589433
177.399,0.09367226409920049,-0.09367226409920049
177.4,0.03709822822154141,-0.03709822822154141
177.401,0.05523796887368104,0.05523796887368104
177.40200000000002,0.176084923899976,0.176084923899976
177.40300000000002,0.3069579130991156,0.3069579130991156
177.404,0.4204030604456013,0.4204030604456013
177.405,0.4860127093551472,0.4860127093551472
177.406,0.47896484585857846,0.47896484585857846
177.407,0.38865440054249945,0.38865440054249945
177.40800000000002,0.22446913208631836,0.22446913208631836
177.40900000000002,0.016247523630471994,0.016247523630471994
177.41,0.19158753003134754,-0.19158753003134754
177.411,0.3511953307578102,-0.3511953307578102
177.412,0.42481752884434865,-0.42481752884434865
177.413,0.3964970121486696,-0.3964970121486696
177.41400000000002,0.278045471924127,-0.278045471924127
177.41500000000002,0.10681289101548008,-0.10681289101548008
177.416,0.06468247436324415,0.06468247436324415
177.417,0.18449727502634805,0.18449727502634805
177.418,0.21761987150624473,0.21761987150624473
177.419,0.1576433240361388,0.1576433240361388
177.42000000000002,0.02966520582414689,0.02966520582414689
177.42100000000002,0.1170135505980463,-0.1170135505980463
177.422,0.22451518736351095,-0.22451518736351095
177.423,0.24559725697039803,-0.24559725697039803
177.424,0.16027760578740635,-0.16027760578740635
177.425,0.015745576769304437,0.015745576769304437
177.42600000000002,0.2340446753644616,0.2340446753644616
177.42700000000002,0.4273396083956751,0.4273396083956751
177.428,0.530245470560101,0.530245470560101
177.429,0.5004293608397814,0.5004293608397814
177.43,0.33335405192969336,0.33335405192969336
177.431,0.06565259873156948,0.06565259873156948
177.43200000000002,0.23428557443746256,-0.23428557443746256
177.43300000000002,0.48585757169722865,-0.48585757169722865
177.434,0.6199687672374313,-0.6199687672374313
177.435,0.5995725223330388,-0.5995725223330388
177.436,0.4306188634408734,-0.4306188634408734
177.437,0.16002294439745712,-0.16002294439745712
177.43800000000002,0.13862770807656388,0.13862770807656388
177.43900000000002,0.3870522252425588,0.3870522252425588
177.44,0.5250173637370739,0.5250173637370739
177.441,0.5268227081736436,0.5268227081736436
177.442,0.4066723833088868,0.4066723833088868
177.443,0.21174169286934585,0.21174169286934585
177.44400000000002,0.005686890559309932,0.005686890559309932
177.44500000000002,0.15173773521988654,-0.15173773521988654
177.446,0.22232485660715906,-0.22232485660715906
177.447,0.19892432487095246,-0.19892432487095246
177.448,0.10436310023729789,-0.10436310023729789
177.449,0.0190807063768883,0.0190807063768883
177.45000000000002,0.12547961646036265,0.12547961646036265
177.45100000000002,0.18070332811657508,0.18070332811657508
177.452,0.17239957066464617,0.17239957066464617
177.453,0.11162134965407966,0.11162134965407966
177.454,0.02628321476419404,0.02628321476419404
177.455,0.050561471981183326,-0.050561471981183326
177.45600000000002,0.09304869706258745,-0.09304869706258745
177.45700000000002,0.09099921986216986,-0.09099921986216986
177.458,0.05185299297682466,-0.05185299297682466
177.459,0.004099965966456232,0.004099965966456232
177.46,0.05285590940467588,0.05285590940467588
177.461,0.07639358580883737,0.07639358580883737
177.46200000000002,0.0691548427802775,0.0691548427802775
177.46300000000002,0.03899019208656429,0.03899019208656429
177.464,0.0025256938197002476,0.0025256938197002476
177.465,0.022888587218711454,-0.022888587218711454
177.466,0.02719550560490336,-0.02719550560490336
177.467,0.01225288071619135,-0.01225288071619135
177.46800000000002,0.008882269387965103,0.008882269387965103
177.46900000000002,0.017773244910572306,0.017773244910572306
177.47,0.0007945505537901854,-0.0007945505537901854
177.471,0.050938609445052685,-0.050938609445052685
177.472,0.12186240270097326,-0.12186240270097326
177.473,0.1899388160585853,-0.1899388160585853
177.47400000000002,0.22628897616460697,-0.22628897616460697
177.475,0.2072911188484422,-0.2072911188484422
177.476,0.12420185969933817,-0.12420185969933817
177.477,0.011781584634777076,0.011781584634777076
177.478,0.17116997090523434,0.17116997090523434
177.479,0.3143342039381276,0.3143342039381276
177.48000000000002,0.4036053042351122,0.4036053042351122
177.481,0.4152826794030602,0.4152826794030602
177.482,0.34743980720961964,0.34743980720961964
177.483,0.220797515068212,0.220797515068212
177.484,0.07228678038717984,0.07228678038717984
177.485,0.056583789892499126,-0.056583789892499126
177.48600000000002,0.13268297137096996,-0.13268297137096996
177.487,0.14124991010589194,-0.14124991010589194
177.488,0.08970323952936332,-0.08970323952936332
177.489,0.004188373602646234,-0.004188373602646234
177.49,0.07975608235568488,0.07975608235568488
177.491,0.1291175910486484,0.1291175910486484
177.49200000000002,0.12389519783604075,0.12389519783604075
177.493,0.06280530242624871,0.06280530242624871
177.494,0.03735836845514584,-0.03735836845514584
177.495,0.14805962120747196,-0.14805962120747196
177.496,0.23853924831123507,-0.23853924831123507
177.497,0.2851376145177965,-0.2851376145177965
177.49800000000002,0.277401560095364,-0.277401560095364
177.499,0.21934294492619977,-0.21934294492619977
177.5,0.1260574116206883,-0.1260574116206883
177.501,0.017507985008391902,-0.017507985008391902
177.502,0.08793763505521057,0.08793763505521057
177.503,0.17788287553118742,0.17788287553118742
177.50400000000002,0.24697412212351155,0.24697412212351155
177.505,0.2949297002417155,0.2949297002417155
177.506,0.32301685378854894,0.32301685378854894
177.507,0.33096915319685927,0.33096915319685927
177.508,0.3159452213880687,0.3159452213880687
177.509,0.2740498251554744,0.2740498251554744
177.51000000000002,0.2036524097169492,0.2036524097169492
177.511,0.10880452279281627,0.10880452279281627
177.512,0.0008822818801630383,0.0008822818801630383
177.513,0.1027489304769641,-0.1027489304769641
177.514,0.18299987782995297,-0.18299987782995297
177.515,0.22489070196761063,-0.22489070196761063
177.51600000000002,0.22276699170622438,-0.22276699170622438
177.517,0.182752974709818,-0.182752974709818
177.518,0.1212258695656272,-0.1212258695656272
177.519,0.05958137780842521,-0.05958137780842521
177.52,0.01702911622111547,-0.01702911622111547
177.52100000000002,0.004018631605683276,-0.004018631605683276
177.52200000000002,0.018780251797305914,-0.018780251797305914
177.523,0.04837290201246047,-0.04837290201246047
177.524,0.07395134623553468,-0.07395134623553468
177.525,0.07833229704461142,-0.07833229704461142
177.526,0.052992009400009255,-0.052992009400009255
177.52700000000002,0.001761885309986,-0.001761885309986
177.52800000000002,0.06030973541449702,0.06030973541449702
177.529,0.11262155400518647,0.11262155400518647
177.53,0.13711625620124668,0.13711625620124668
177.531,0.12568503446223067,0.12568503446223067
177.532,0.08390455717306455,0.08390455717306455
177.53300000000002,0.029452289164757506,0.029452289164757506
177.53400000000002,0.0144284263273885,-0.0144284263273885
177.535,0.028069778047343674,-0.028069778047343674
177.536,0.0036328142874101355,-0.0036328142874101355
177.537,0.05086702181943581,0.05086702181943581
177.538,0.11363826102695485,0.11363826102695485
177.53900000000002,0.15689840882902661,0.15689840882902661
177.54000000000002,0.15771680042692093,0.15771680042692093
177.541,0.10789945931639733,0.10789945931639733
177.542,0.01898587033590937,0.01898587033590937
177.543,0.07998639124030194,-0.07998639124030194
177.544,0.1517206522915553,-0.1517206522915553
177.54500000000002,0.1640232151149157,-0.1640232151149157
177.54600000000002,0.10265677333696033,-0.10265677333696033
177.547,0.02110258003299581,0.02110258003299581
177.548,0.17141145287945858,0.17141145287945858
177.549,0.2976809054782501,0.2976809054782501
177.55,0.35051654582241976,0.35051654582241976
177.55100000000002,0.29869617014457095,0.29869617014457095
177.55200000000002,0.14144315020380338,0.14144315020380338
177.553,0.08844721669349054,-0.08844721669349054
177.554,0.33219389665928856,-0.33219389665928856
177.555,0.5213815138065214,-0.5213815138065214
177.556,0.5981658829084512,-0.5981658829084512
177.55700000000002,0.5330254515629399,-0.5330254515629399
177.55800000000002,0.3344148977746211,-0.3344148977746211
177.559,0.047200465357773225,-0.047200465357773225
177.56,0.2596947691993101,0.2596947691993101
177.561,0.5126117585402472,0.5126117585402472
177.562,0.6534936733316965,0.6534936733316965
177.56300000000002,0.6551157946561175,0.6551157946561175
177.56400000000002,0.5268651282172594,0.5268651282172594
177.565,0.30982883997183297,0.30982883997183297
177.566,0.0633060670871004,0.0633060670871004
177.567,0.15264089987202312,-0.15264089987202312
177.568,0.293106774082039,-0.293106774082039
177.56900000000002,0.33818912093706077,-0.33818912093706077
177.57000000000002,0.29454012168824195,-0.29454012168824195
177.571,0.18923562667050375,-0.18923562667050375
177.572,0.05891860932668325,-0.05891860932668325
177.573,0.061716900985897105,0.061716900985897105
177.574,0.14842500180693774,0.14842500180693774
177.57500000000002,0.19081310994657263,0.19081310994657263
177.57600000000002,0.1906864778101005,0.1906864778101005
177.577,0.15716224748109475,0.15716224748109475
177.578,0.10123020485722045,0.10123020485722045
177.579,0.032113017690261314,0.032113017690261314
177.58,0.04346551849842639,-0.04346551849842639
177.58100000000002,0.11956193652845437,-0.11956193652845437
177.58200000000002,0.1885009058685333,-0.1885009058685333
177.583,0.23955785521474582,-0.23955785521474582
177.584,0.26017534779279605,-0.26017534779279605
177.585,0.23972927207977202,-0.23972927207977202
177.586,0.17446037385125812,-0.17446037385125812
177.58700000000002,0.0713421003815844,-0.0713421003815844
177.58800000000002,0.05122568927812843,0.05122568927812843
177.589,0.16691844270496503,0.16691844270496503
177.59,0.24855021148980594,0.24855021148980594
177.591,0.27650510757014857,0.27650510757014857
177.592,0.24553555869220034,0.24553555869220034
177.59300000000002,0.16725317603651946,0.16725317603651946
177.59400000000002,0.06704576555885144,0.06704576555885144
177.595,0.02384633929604174,-0.02384633929604174
177.596,0.0785164914060249,-0.0785164914060249
177.597,0.08329335840908436,-0.08329335840908436
177.598,0.04213105368052794,-0.04213105368052794
177.59900000000002,0.025196205980526187,0.025196205980526187
177.6,0.09055074062723767,0.09055074062723767
177.601,0.12789953239869623,0.12789953239869623
177.602,0.1229847711606391,0.1229847711606391
177.603,0.07861138339546025,0.07861138339546025
177.604,0.013535049026048629,0.013535049026048629
177.60500000000002,0.04470876221003872,-0.04470876221003872
177.606,0.07041760822295096,-0.07041760822295096
177.607,0.04982187742928146,-0.04982187742928146
177.608,0.013158895141972327,0.013158895141972327
177.609,0.09776437991547482,0.09776437991547482
177.61,0.17365648836420688,0.17365648836420688
177.61100000000002,0.21198167745699537,0.21198167745699537
177.612,0.19613379823629962,0.19613379823629962
177.613,0.128156511924286,0.128156511924286
177.614,0.028298696028977943,0.028298696028977943
177.615,0.07221811212600027,-0.07221811212600027
177.616,0.14258918390482378,-0.14258918390482378
177.61700000000002,0.16371848339854478,-0.16371848339854478
177.618,0.13512030008135223,-0.13512030008135223
177.619,0.07473492341877619,-0.07473492341877619
177.62,0.011625214207576562,-0.011625214207576562
177.621,0.02573909593549062,0.02573909593549062
177.622,0.021128331989058058,0.021128331989058058
177.62300000000002,0.022453719909922287,-0.022453719909922287
177.624,0.08335736687022632,-0.08335736687022632
177.625,0.12953991389862618,-0.12953991389862618
177.626,0.13158291767924513,-0.13158291767924513
177.627,0.07557731836326331,-0.07557731836326331
177.628,0.029227848769354248,0.029227848769354248
177.62900000000002,0.1513849762336108,0.1513849762336108
177.63,0.24708568358139438,0.24708568358139438
177.631,0.2757817453021323,0.2757817453021323
177.632,0.21611263365976163,0.21611263365976163
177.633,0.0761963171959621,0.0761963171959621
177.634,0.10595306195978627,-0.10595306195978627
177.63500000000002,0.27276650021438653,-0.27276650021438653
177.636,0.3652640524955647,-0.3652640524955647
177.637,0.34308396771972194,-0.34308396771972194
177.638,0.19950198183726242,-0.19950198183726242
177.639,0.03402425686547339,0.03402425686547339
177.64,0.2958383223066159,0.2958383223066159
177.64100000000002,0.5123986124210287,0.5123986124210287
177.642,0.6211105940334045,0.6211105940334045
177.643,0.5901690597153313,0.5901690597153313
177.644,0.4287568294680961,0.4287568294680961
177.645,0.1841023947537912,0.1841023947537912
177.64600000000002,0.073704607438556,-0.073704607438556
177.64700000000002,0.2741118507354763,-0.2741118507354763
177.648,0.3682550374865339,-0.3682550374865339
177.649,0.3435099694825158,-0.3435099694825158
177.65,0.2257168267552513,-0.2257168267552513
177.651,0.0685738883176521,-0.0685738883176521
177.65200000000002,0.06593503996461902,0.06593503996461902
177.65300000000002,0.12921687113612212,0.12921687113612212
177.654,0.10238361094020165,0.10238361094020165
177.655,0.0017187274646757178,0.0017187274646757178
177.656,0.12834262890184944,-0.12834262890184944
177.657,0.23199962088788117,-0.23199962088788117
177.65800000000002,0.2625721503379944,-0.2625721503379944
177.65900000000002,0.19943977186292372,-0.19943977186292372
177.66,0.055547802241970534,-0.055547802241970534
177.661,0.12701095524360229,0.12701095524360229
177.662,0.29162265958762057,0.29162265958762057
177.663,0.38673252445524775,0.38673252445524775
177.66400000000002,0.3834807604342345,0.3834807604342345
177.66500000000002,0.28528983185853884,0.28528983185853884
177.666,0.12620695988049602,0.12620695988049602
177.667,0.04122657756033077,-0.04122657756033077
177.668,0.16418736081012264,-0.16418736081012264
177.669,0.20745375381661335,-0.20745375381661335
177.67000000000002,0.16480670946641796,-0.16480670946641796
177.67100000000002,0.06017639102050054,-0.06017639102050054
177.672,0.06160453307216529,0.06160453307216529
177.673,0.15099550398313433,0.15099550398313433
177.674,0.17115129886239133,0.17115129886239133
177.675,0.11054844615953541,0.11054844615953541
177.67600000000002,0.013328981914401461,-0.013328981914401461
177.67700000000002,0.16021949780308553,-0.16021949780308553
177.678,0.2808019672186648,-0.2808019672186648
177.679,0.3330371098799969,-0.3330371098799969
177.68,0.29559934570305435,-0.29559934570305435
177.681,0.17411113249506027,-0.17411113249506027
177.68200000000002,0.0014723675229364463,0.0014723675229364463
177.68300000000002,0.1869377875293452,0.1869377875293452
177.684,0.3375798287860394,0.3375798287860394
177.685,0.420959376787704,0.420959376787704
177.686,0.42468948558980424,0.42468948558980424
177.687,0.35731099647497677,0.35731099647497677
177.68800000000002,0.24282483546296274,0.24282483546296274
177.68900000000002,0.11150945511266275,0.11150945511266275
177.69,0.009424989211495705,-0.009424989211495705
177.691,0.10223590172517671,-0.10223590172517671
177.692,0.16050415329101453,-0.16050415329101453
177.693,0.1867648678122229,-0.1867648678122229
177.69400000000002,0.18778113568753585,-0.18778113568753585
177.69500000000002,0.16994772230112376,-0.16994772230112376
177.696,0.13684234308606902,-0.13684234308606902
177.697,0.08967182048716704,-0.08967182048716704
177.698,0.029883895179483644,-0.029883895179483644
177.699,0.03782063578350803,0.03782063578350803
177.70000000000002,0.1040036127949886,0.1040036127949886
177.70100000000002,0.15570374496024986,0.15570374496024986
177.702,0.1801921705313485,0.1801921705313485
177.703,0.1698087735122027,0.1698087735122027
177.704,0.12572860861063995,0.12572860861063995
177.705,0.0587645287501688,0.0587645287501688
177.70600000000002,0.01355131402975096,-0.01355131402975096
177.70700000000002,0.07279719427408649,-0.07279719427408649
177.708,0.1062496140569974,-0.1062496140569974
177.709,0.11155041288043688,-0.11155041288043688
177.71,0.09734894176832853,-0.09734894176832853
177.711,0.07932879486378164,-0.07932879486378164
177.71200000000002,0.07292007467338313,-0.07292007467338313
177.71300000000002,0.08551253229327804,-0.08551253229327804
177.714,0.11146905237821492,-0.11146905237821492
177.715,0.132410898054504,-0.132410898054504
177.716,0.12333112822782666,-0.12333112822782666
177.717,0.06276602159979572,-0.06276602159979572
177.71800000000002,0.056595219545040765,0.056595219545040765
177.71900000000002,0.221086335663917,0.221086335663917
177.72,0.3962655244986826,0.3962655244986826
177.721,0.5350539774765206,0.5350539774765206
177.722,0.5918226438250731,0.5918226438250731
177.723,0.538011828039556,0.538011828039556
177.72400000000002,0.373856471640857,0.373856471640857
177.725,0.13167384281133243,0.13167384281133243
177.726,0.1312344761020332,-0.1312344761020332
177.727,0.34852737850041127,-0.34852737850041127
177.728,0.464888592822274,-0.464888592822274
177.729,0.4537444740290786,-0.4537444740290786
177.73000000000002,0.32657501427856706,-0.32657501427856706
177.731,0.1302798896103693,-0.1302798896103693
177.732,0.06707465030537074,0.06707465030537074
177.733,0.19787290866313523,0.19787290866313523
177.734,0.21703109479030092,0.21703109479030092
177.735,0.11723778876499624,0.11723778876499624
177.73600000000002,0.06790268515952835,-0.06790268515952835
177.737,0.2741976278764531,-0.2741976278764531
177.738,0.427585684259399,-0.427585684259399
177.739,0.4686378453584956,-0.4686378453584956
177.74,0.3728244854927373,-0.3728244854927373
177.741,0.1597698500782292,-0.1597698500782292
177.74200000000002,0.11177613964613164,0.11177613964613164
177.743,0.3618754215616078,0.3618754215616078
177.744,0.5146255524102439,0.5146255524102439
177.745,0.5226001488809717,0.5226001488809717
177.746,0.3826109888942464,0.3826109888942464
177.747,0.13764359392299497,0.13764359392299497
177.74800000000002,0.13576053411460698,-0.13576053411460698
177.749,0.3507515762097475,-0.3507515762097475
177.75,0.43675739596064056,-0.43675739596064056
177.751,0.3611074668719121,-0.3611074668719121
177.752,0.13903903305068632,-0.13903903305068632
177.753,0.17084430791711225,0.17084430791711225
177.75400000000002,0.48401893579475486,0.48401893579475486
177.755,0.7148088028499913,0.7148088028499913
177.756,0.8008143142007744,0.8008143142007744
177.757,0.7197251651845247,0.7197251651845247
177.758,0.49386552775354375,0.49386552775354375
177.759,0.18176334704797537,0.18176334704797537
177.76000000000002,0.14000869839484964,-0.14000869839484964
177.761,0.3987493895668437,-0.3987493895668437
177.762,0.5446231304692806,-0.5446231304692806
177.763,0.5614534315522449,-0.5614534315522449
177.764,0.46695798628724294,-0.46695798628724294
177.765,0.3034728554999909,-0.3034728554999909
177.76600000000002,0.12298579724350811,-0.12298579724350811
177.767,0.028388626891717728,0.028388626891717728
177.768,0.12179388183319562,0.12179388183319562
177.769,0.15005249255273423,0.15005249255273423
177.77,0.12486240677360616,0.12486240677360616
177.77100000000002,0.06884877306174397,0.06884877306174397
177.77200000000002,0.005920140199050294,0.005920140199050294
177.773,0.046575947958375274,-0.046575947958375274
177.774,0.08154772383419262,-0.08154772383419262
177.775,0.10116277957649011,-0.10116277957649011
177.776,0.11238783867756552,-0.11238783867756552
177.77700000000002,0.12140163584725616,-0.12140163584725616
177.77800000000002,0.12934230304938732,-0.12934230304938732
177.779,0.13104723151350883,-0.13104723151350883
177.78,0.11709781481328263,-0.11709781481328263
177.781,0.07814105735860433,-0.07814105735860433
177.782,0.00962192604685208,-0.00962192604685208
177.78300000000002,0.08500511184421966,0.08500511184421966
177.78400000000002,0.19384664673033036,0.19384664673033036
177.785,0.2990846706967336,0.2990846706967336
177.786,0.3815093713413171,0.3815093713413171
177.787,0.4254738828073714,0.4254738828073714
177.788,0.42263665483839374,0.42263665483839374
177.78900000000002,0.37341638364003327,0.37341638364003327
177.79000000000002,0.2859828215593172,0.2859828215593172
177.791,0.17347746083419402,0.17347746083419402
177.792,0.05067258071588343,0.05067258071588343
177.793,0.06873118644206588,-0.06873118644206588
177.794,0.17345001366589707,-0.17345001366589707
177.79500000000002,0.2546059229161983,-0.2546059229161983
177.79600000000002,0.3050016128214813,-0.3050016128214813
177.797,0.3186134168266369,-0.3186134168266369
177.798,0.29105735756309614,-0.29105735756309614
177.799,0.2212180373000997,-0.2212180373000997
177.8,0.11352032965141168,-0.11352032965141168
177.80100000000002,0.020221344868485147,0.020221344868485147
177.80200000000002,0.1605694263856845,0.1605694263856845
177.803,0.28265422639091686,0.28265422639091686
177.804,0.36080500613927513,0.36080500613927513
177.805,0.37470278566595194,0.37470278566595194
177.806,0.31540179211677644,0.31540179211677644
177.80700000000002,0.18931894123805315,0.18931894123805315
177.80800000000002,0.01866248769190615,0.01866248769190615
177.809,0.16231327758821046,-0.16231327758821046
177.81,0.31464307002716474,-0.31464307002716474
177.811,0.4038781865266745,-0.4038781865266745
177.812,0.40883223460011053,-0.40883223460011053
177.81300000000002,0.32745378025372585,-0.32745378025372585
177.81400000000002,0.17810501221346475,-0.17810501221346475
177.815,0.004295152389690138,0.004295152389690138
177.816,0.1764444036202626,0.1764444036202626
177.817,0.29716395446883004,0.29716395446883004
177.818,0.3376085548141601,0.3376085548141601
177.81900000000002,0.28858985902437695,0.28858985902437695
177.82000000000002,0.1631358555827127,0.1631358555827127
177.821,0.0064000053695666415,-0.0064000053695666415
177.822,0.1760081434605376,-0.1760081434605376
177.823,0.30061719122399877,-0.30061719122399877
177.824,0.3450440484245777,-0.3450440484245777
177.82500000000002,0.2926469376090187,-0.2926469376090187
177.82600000000002,0.14958807358866477,-0.14958807358866477
177.827,0.05632738441285934,0.05632738441285934
177.828,0.28196523278705876,0.28196523278705876
177.829,0.4788202227661007,0.4788202227661007
177.83,0.6042318037180563,0.6042318037180563
177.83100000000002,0.6311654074482873,0.6311654074482873
177.83200000000002,0.5542128271354982,0.5542128271354982
177.833,0.3903887924282299,0.3903887924282299
177.834,0.17458595791401543,0.17458595791401543
177.835,0.04911629010755281,-0.04911629010755281
177.836,0.2380509816385995,-0.2380509816385995
177.83700000000002,0.36075828072749405,-0.36075828072749405
177.83800000000002,0.4034986695023739,-0.4034986695023739
177.839,0.3719078511480357,-0.3719078511480357
177.84,0.287552003565813,-0.287552003565813
177.841,0.1805492678250843,-0.1805492678250843
177.842,0.08050260161520884,-0.08050260161520884
177.84300000000002,0.008419476533882864,-0.008419476533882864
177.84400000000002,0.028065319973655134,0.028065319973655134
177.845,0.03490330196260705,0.03490330196260705
177.846,0.02746335674368594,0.02746335674368594
177.847,0.023545921458549612,0.023545921458549612
177.848,0.03603328847323661,0.03603328847323661
177.84900000000002,0.06772292440055905,0.06772292440055905
177.85,0.1101420976513956,0.1101420976513956
177.851,0.14677719256825705,0.14677719256825705
177.852,0.1596090029481605,0.1596090029481605
177.853,0.13664167243157843,0.13664167243157843
177.854,0.07767037747335315,0.07767037747335315
177.85500000000002,0.003966069801304095,-0.003966069801304095
177.856,0.08458743728561546,-0.08458743728561546
177.857,0.1375562937892324,-0.1375562937892324
177.858,0.14253143863627826,-0.14253143863627826
177.859,0.09345089026278974,-0.09345089026278974
177.86,0.002315395197378556,-0.002315395197378556
177.86100000000002,0.10292151956336548,0.10292151956336548
177.862,0.18615394536768348,0.18615394536768348
177.863,0.21445866333297614,0.21445866333297614
177.864,0.16945701681125036,0.16945701681125036
177.865,0.054932270840996944,0.054932270840996944
177.866,0.10209567521853202,-0.10209567521853202
177.86700000000002,0.25768306301845967,-0.25768306301845967
177.868,0.3631667658178912,-0.3631667658178912
177.869,0.37978311401914466,-0.37978311401914466
177.87,0.2912608242940633,-0.2912608242940633
177.871,0.11035745234025152,-0.11035745234025152
177.872,0.12298679225253961,0.12298679225253961
177.87300000000002,0.35170174691399647,0.35170174691399647
177.874,0.5171370342400221,0.5171370342400221
177.875,0.5756314208233164,0.5756314208233164
177.876,0.5111936551232676,0.5111936551232676
177.877,0.3404540640839029,0.3404540640839029
177.878,0.10830496771569509,0.10830496771569509
177.87900000000002,0.1245844575907632,-0.1245844575907632
177.88,0.2987631154839887,-0.2987631154839887
177.881,0.37253951349255077,-0.37253951349255077
177.882,0.33325317078569694,-0.33325317078569694
177.883,0.2000500013516846,-0.2000500013516846
177.884,0.017478442760466062,-0.017478442760466062
177.88500000000002,0.1580609705481686,0.1580609705481686
177.886,0.27491188071780126,0.27491188071780126
177.887,0.30089407222514786,0.30089407222514786
177.888,0.2319271283567943,0.2319271283567943
177.889,0.09220939840706865,0.09220939840706865
177.89,0.07383757457364859,-0.07383757457364859
177.89100000000002,0.2152411197035492,-0.2152411197035492
177.892,0.28959025153691076,-0.28959025153691076
177.893,0.2751389055567376,-0.2751389055567376
177.894,0.17649198176254,-0.17649198176254
177.895,0.022467446080910003,-0.022467446080910003
177.89600000000002,0.14294170964277964,0.14294170964277964
177.89700000000002,0.2736199966989483,0.2736199966989483
177.898,0.33447512828223047,0.33447512828223047
177.899,0.31090456785230747,0.31090456785230747
177.9,0.21204296003474377,0.21204296003474377
177.901,0.06715421201690552,0.06715421201690552
177.90200000000002,0.08347764765908594,-0.08347764765908594
177.90300000000002,0.20030499629983,-0.20030499629983
177.904,0.255460574749767,-0.255460574749767
177.905,0.23983950998922832,-0.23983950998922832
177.906,0.16452290274885706,-0.16452290274885706
177.907,0.05643848360193093,-0.05643848360193093
177.90800000000002,0.05021760239833695,0.05021760239833695
177.90900000000002,0.12416246836947975,0.12416246836947975
177.91,0.14586305619353856,0.14586305619353856
177.911,0.11260561227913124,0.11260561227913124
177.912,0.0385487704913543,0.0385487704913543
177.913,0.050030199912549866,-0.050030199912549866
177.91400000000002,0.12275860127511706,-0.12275860127511706
177.91500000000002,0.1540842520846033,-0.1540842520846033
177.916,0.13056138134093243,-0.13056138134093243
177.917,0.05453691102832103,-0.05453691102832103
177.918,0.0566631405618383,0.0566631405618383
177.919,0.17567567001547335,0.17567567001547335
177.92000000000002,0.2726793951854698,0.2726793951854698
177.92100000000002,0.32344926200818547,0.32344926200818547
177.922,0.3156708450643395,0.3156708450643395
177.923,0.2518540865496357,0.2518540865496357
177.924,0.14817757438256596,0.14817757438256596
177.925,0.029737122559622353,0.029737122559622353
177.92600000000002,0.07635460935785687,-0.07635460935785687
177.92700000000002,0.14803327623993034,-0.14803327623993034
177.928,0.173565561814071,-0.173565561814071
177.929,0.1536880620261588,-0.1536880620261588
177.93,0.10019441166369103,-0.10019441166369103
177.931,0.031599586032351135,-0.031599586032351135
177.93200000000002,0.032673954349089485,0.032673954349089485
177.93300000000002,0.07778454833002502,0.07778454833002502
177.934,0.09702470014874409,0.09702470014874409
177.935,0.09250681057996024,0.09250681057996024
177.936,0.07298961329914255,0.07298961329914255
177.937,0.04976122066171684,0.04976122066171684
177.93800000000002,0.03208310109004664,0.03208310109004664
177.93900000000002,0.02378511380964521,0.02378511380964521
177.94,0.02216262694740645,0.02216262694740645
177.941,0.019510080697466847,0.019510080697466847
177.942,0.0067020098141974405,0.0067020098141974405
177.943,0.022490073778522968,-0.022490073778522968
177.94400000000002,0.0679349517341078,-0.0679349517341078
177.94500000000002,0.121859086056052,-0.121859086056052
177.946,0.1703452070440804,-0.1703452070440804
177.947,0.19726461655056837,-0.19726461655056837
177.948,0.1894394143897128,-0.1894394143897128
177.949,0.1413572216240706,-0.1413572216240706
177.95000000000002,0.05783724338851226,-0.05783724338851226
177.95100000000002,0.04634119614482568,0.04634119614482568
177.952,0.14988124613647003,0.14988124613647003
177.953,0.23052766579378736,0.23052766579378736
177.954,0.27109168365588876,0.27109168365588876
177.955,0.26411782211361245,0.26411782211361245
177.95600000000002,0.21377932589677084,0.21377932589677084
177.95700000000002,0.13445046324823062,0.13445046324823062
177.958,0.0464362508370566,0.0464362508370566
177.959,0.029792403787063937,-0.029792403787063937
177.96,0.07908604910068562,-0.07908604910068562
177.961,0.09520291662008584,-0.09520291662008584
177.96200000000002,0.0815300669307637,-0.0815300669307637
177.96300000000002,0.04891751122276333,-0.04891751122276333
177.964,0.011511116199536042,-0.011511116199536042
177.965,0.01795279070739375,0.01795279070739375
177.966,0.03185848582913331,0.03185848582913331
177.967,0.029333081437779462,0.029333081437779462
177.96800000000002,0.015460339126691203,0.015460339126691203
177.96900000000002,0.0014007805829743258,-0.0014007805829743258
177.97,0.013076703170847304,-0.013076703170847304
177.971,0.014526067638932716,-0.014526067638932716
177.972,0.005269171009770202,-0.005269171009770202
177.973,0.011074062185832734,0.011074062185832734
177.97400000000002,0.028783659131616846,0.028783659131616846
177.975,0.04266470634489061,0.04266470634489061
177.976,0.05019604878903938,0.05019604878903938
177.977,0.052337372309082975,0.052337372309082975
177.978,0.05269338788466138,0.05269338788466138
177.979,0.055406607348062575,0.055406607348062575
177.98000000000002,0.06267588006648483,0.06267588006648483
177.981,0.07297682717882692,0.07297682717882692
177.982,0.08082186098279642,0.08082186098279642
177.983,0.07832527741679107,0.07832527741679107
177.984,0.05814056511424037,0.05814056511424037
177.985,0.016769145752950188,0.016769145752950188
177.98600000000002,0.04298467301501241,-0.04298467301501241
177.987,0.11142590617891102,-0.11142590617891102
177.988,0.1736750073105625,-0.1736750073105625
177.989,0.21332835631600922,-0.21332835631600922
177.99,0.21704877704130787,-0.21704877704130787
177.991,0.17869497471757734,-0.17869497471757734
177.99200000000002,0.10168039055237055,-0.10168039055237055
177.993,0.0012384253325630201,0.0012384253325630201
177.994,0.11076973602826667,0.11076973602826667
177.995,0.2057285039281176,0.2057285039281176
177.996,0.26820030707846887,0.26820030707846887
177.997,0.287775331503894,0.287775331503894
177.99800000000002,0.26370515104619785,0.26370515104619785
177.999,0.2044760179623295,0.2044760179623295
178.0,0.12505826538086584,0.12505826538086584
178.001,0.04274032737039413,0.04274032737039413
178.002,0.027204866317158127,-0.027204866317158127
178.003,0.0748278968492544,-0.0748278968492544
178.00400000000002,0.09699542738205413,-0.09699542738205413
178.005,0.09687873005391656,-0.09687873005391656
178.006,0.08184765905748181,-0.08184765905748181
178.007,0.0605919630760271,-0.0605919630760271
178.008,0.04041132494994093,-0.04041132494994093
178.009,0.025437674542902355,-0.025437674542902355
178.01000000000002,0.016167710944224978,-0.016167710944224978
178.011,0.010234915302740122,-0.010234915302740122
178.012,0.003985521832152172,-0.003985521832152172
178.013,0.005756835761536072,0.005756835761536072
178.014,0.020319198514743952,0.020319198514743952
178.015,0.038577314760611214,0.038577314760611214
178.01600000000002,0.05721690485767783,0.05721690485767783
178.017,0.07168795825053254,0.07168795825053254
178.018,0.07751406620355983,0.07751406620355983
178.019,0.07157627438548997,0.07157627438548997
178.02,0.053056972760177956,0.053056972760177956
178.02100000000002,0.023857064803155748,0.023857064803155748
178.02200000000002,0.011563727235033183,-0.011563727235033183
178.023,0.04686548236915944,-0.04686548236915944
178.024,0.07490002910930649,-0.07490002910930649
178.025,0.08901332302535214,-0.08901332302535214
178.026,0.08438999187240748,-0.08438999187240748
178.02700000000002,0.05922737393925215,-0.05922737393925215
178.02800000000002,0.015509024446377473,-0.015509024446377473
178.029,0.040840830206168244,0.040840830206168244
178.03,0.10057457914793755,0.10057457914793755
178.031,0.1525305300538624,0.1525305300538624
178.032,0.18566988846845178,0.18566988846845178
178.03300000000002,0.19138394631367528,0.19138394631367528
178.03400000000002,0.16557443183339804,0.16557443183339804
178.035,0.10998285455141588,0.10998285455141588
178.036,0.03236170237336622,0.03236170237336622
178.037,0.054670889222887875,-0.054670889222887875
178.038,0.13592930015660087,-0.13592930015660087
178.03900000000002,0.1966415918780965,-0.1966415918780965
178.04000000000002,0.22544582420559933,-0.22544582420559933
178.041,0.21670782065326388,-0.21670782065326388
178.042,0.1716261523445457,-0.1716261523445457
178.043,0.09789118963490306,-0.09789118963490306
178.044,0.008020717207287587,-0.008020717207287587
178.04500000000002,0.08319706389638681,0.08319706389638681
178.04600000000002,0.16154475501400256,0.16154475501400256
178.047,0.2158847967773223,0.2158847967773223
178.048,0.2398657617378177,0.2398657617378177
178.049,0.232594325470471,0.232594325470471
178.05,0.19829241867396274,0.19829241867396274
178.05100000000002,0.14515080774076528,0.14515080774076528
178.05200000000002,0.08368467810844105,0.08368467810844105
178.053,0.024897686905111627,0.024897686905111627
178.054,0.02149437990147507,-0.02149437990147507
178.055,0.048592128210786845,-0.048592128210786845
178.056,0.05344040299219721,-0.05344040299219721
178.05700000000002,0.037605800815552315,-0.037605800815552315
178.05800000000002,0.0070525339001744625,-0.0070525339001744625
178.059,0.028796984089557442,0.028796984089557442
178.06,0.058817781512861655,0.058817781512861655
178.061,0.07256474528415247,0.07256474528415247
178.062,0.06286622231060668,0.06286622231060668
178.06300000000002,0.028030216980657663,0.028030216980657663
178.06400000000002,0.026986388531258676,-0.026986388531258676
178.065,0.09095200366622747,-0.09095200366622747
178.066,0.14844415156117474,-0.14844415156117474
178.067,0.1833426341472062,-0.1833426341472062
178.068,0.182970056736656,-0.182970056736656
178.06900000000002,0.14181487974211937,-0.14181487974211937
178.07000000000002,0.06375237669866929,-0.06375237669866929
178.071,0.038011750381611975,0.038011750381611975
178.072,0.14347004946692787,0.14347004946692787
178.073,0.2303126171787897,0.2303126171787897
178.074,0.2792907278036987,0.2792907278036987
178.07500000000002,0.27902270542024166,0.27902270542024166
178.07600000000002,0.22891146917008842,0.22891146917008842
178.077,0.1393370893337731,0.1393370893337731
178.078,0.029049382917345268,0.029049382917345268
178.079,0.07951203108313343,-0.07951203108313343
178.08,0.16564885377178062,-0.16564885377178062
178.08100000000002,0.215069511645117,-0.215069511645117
178.08200000000002,0.2225407556679233,-0.2225407556679233
178.083,0.1919267876485098,-0.1919267876485098
178.084,0.1338378829092257,-0.1338378829092257
178.085,0.06183440129575002,-0.06183440129575002
178.086,0.011478234679648258,0.011478234679648258
178.08700000000002,0.07719874473127186,0.07719874473127186
178.08800000000002,0.13095955672626913,0.13095955672626913
178.089,0.17182541917556682,0.17182541917556682
178.09,0.19998532860235163,0.19998532860235163
178.091,0.21441450263798445,0.21441450263798445
178.092,0.21168219310031544,0.21168219310031544
178.09300000000002,0.18661559000741756,0.18661559000741756
178.09400000000002,0.134757358432688,0.134757358432688
178.095,0.05575124871400905,0.05575124871400905
178.096,0.043740525179861045,-0.043740525179861045
178.097,0.14902087017403387,-0.14902087017403387
178.098,0.23915968384836306,-0.23915968384836306
178.09900000000002,0.29160153446631465,-0.29160153446631465
178.1,0.28851915112231563,-0.28851915112231563
178.101,0.2230503388593097,-0.2230503388593097
178.102,0.10330642249641564,-0.10330642249641564
178.103,0.04751351201584164,0.04751351201584164
178.104,0.19550902054567199,0.19550902054567199
178.10500000000002,0.3041953448374748,0.3041953448374748
178.106,0.3443127445453089,0.3443127445453089
178.107,0.30255192703632305,0.30255192703632305
178.108,0.18649277545629817,0.18649277545629817
178.109,0.02397689792079971,0.02397689792079971
178.11,0.1433226019424556,-0.1433226019424556
178.11100000000002,0.27064931222669897,-0.27064931222669897
178.112,0.3223675344365142,-0.3223675344365142
178.113,0.28216999359731954,-0.28216999359731954
178.114,0.15825490418971955,-0.15825490418971955
178.115,0.01821711517081903,0.01821711517081903
178.116,0.20117321674687716,0.20117321674687716
178.11700000000002,0.3420661576463053,0.3420661576463053
178.118,0.4032439056782331,0.4032439056782331
178.119,0.36844594643848283,0.36844594643848283
178.12,0.2473878008067878,0.2473878008067878
178.121,0.07307083877126153,0.07307083877126153
178.122,0.10744675514649138,-0.10744675514649138
178.12300000000002,0.24618140035566716,-0.24618140035566716
178.124,0.3074881321174435,-0.3074881321174435
178.125,0.2776638224208491,-0.2776638224208491
178.126,0.1681914156850347,-0.1681914156850347
178.127,0.011811619386591254,-0.011811619386591254
178.128,0.14728582250725109,0.14728582250725109
178.12900000000002,0.2661661659459582,0.2661661659459582
178.13,0.3149883262494144,0.3149883262494144
178.131,0.28458021885253926,0.28458021885253926
178.132,0.18772453999419403,0.18772453999419403
178.133,0.05407233572729475,0.05407233572729475
178.134,0.07948920036624918,-0.07948920036624918
178.13500000000002,0.17989883590419475,-0.17989883590419475
178.136,0.22700913914194853,-0.22700913914194853
178.137,0.21806960586603397,-0.21806960586603397
178.138,0.16653649963162864,-0.16653649963162864
178.139,0.09597426187693281,-0.09597426187693281
178.14,0.03132766438981338,-0.03132766438981338
178.14100000000002,0.009435307455981645,0.009435307455981645
178.142,0.020589898652328742,0.020589898652328742
178.143,0.009269086315462971,0.009269086315462971
178.144,0.008504342384630381,-0.008504342384630381
178.145,0.014748761114747655,-0.014748761114747655
178.14600000000002,0.003155461837929474,0.003155461837929474
178.14700000000002,0.047379267573798955,0.047379267573798955
178.148,0.10856518347653354,0.10856518347653354
178.149,0.16907974924178193,0.16907974924178193
178.15,0.2093837031580834,0.2093837031580834
178.151,0.21520586972499212,0.21520586972499212
178.15200000000002,0.1829252025470378,0.1829252025470378
178.15300000000002,0.12119816499526359,0.12119816499526359
178.154,0.0481962266346303,0.0481962266346303
178.155,0.01461987052321212,-0.01461987052321212
178.156,0.05001117143182354,-0.05001117143182354
178.157,0.051080612130433245,-0.051080612130433245
178.15800000000002,0.0237663464206731,-0.0237663464206731
178.15900000000002,0.015286072954192598,0.015286072954192598
178.16,0.044843492804888196,0.044843492804888196
178.161,0.04712225257921032,0.04712225257921032
178.162,0.01491092743010558,0.01491092743010558
178.163,0.044837524720784616,-0.044837524720784616
178.16400000000002,0.11241851707662598,-0.11241851707662598
178.16500000000002,0.16156675231258788,-0.16156675231258788
178.166,0.16850921491336313,-0.16850921491336313
178.167,0.12087013965848792,-0.12087013965848792
178.168,0.02331642469505879,-0.02331642469505879
178.169,0.10220664420484527,0.10220664420484527
178.17000000000002,0.22206475166222783,0.22206475166222783
178.17100000000002,0.3008171080014739,0.3008171080014739
178.172,0.3123502492591459,0.3123502492591459
178.173,0.24867022076684786,0.24867022076684786
178.174,0.12338386823105751,0.12338386823105751
178.175,0.031473179795045936,-0.031473179795045936
178.17600000000002,0.1744840987255648,-0.1744840987255648
178.17700000000002,0.267069518021658,-0.267069518021658
178.178,0.28507839985783967,-0.28507839985783967
178.179,0.22606891112918726,-0.22606891112918726
178.18,0.10991210471286272,-0.10991210471286272
178.181,0.027541882021413278,0.027541882021413278
178.18200000000002,0.1457702838064412,0.1457702838064412
178.18300000000002,0.21227199733408586,0.21227199733408586
178.184,0.2125862920555266,0.2125862920555266
178.185,0.15440609294339414,0.15440609294339414
178.186,0.06444633426406532,0.06444633426406532
178.187,0.02092797880598174,-0.02092797880598174
178.18800000000002,0.06826888330362602,-0.06826888330362602
178.18900000000002,0.058692183117478036,-0.058692183117478036
178.19,0.005254764915362253,0.005254764915362253
178.191,0.09984862646586112,0.09984862646586112
178.192,0.18762069421690653,0.18762069421690653
178.193,0.2296770638192227,0.2296770638192227
178.19400000000002,0.1989953982983701,0.1989953982983701
178.19500000000002,0.09039770535318503,0.09039770535318503
178.196,0.07611417953943123,-0.07611417953943123
178.197,0.2599166342901559,-0.2599166342901559
178.198,0.4109932488172712,-0.4109932488172712
178.199,0.48449584110750055,-0.48449584110750055
178.20000000000002,0.45421467020491924,-0.45421467020491924
178.20100000000002,0.32082680389136253,-0.32082680389136253
178.202,0.11236770189863554,-0.11236770189863554
178.203,0.12326308468571434,0.12326308468571434
178.204,0.3315345639347489,0.3315345639347489
178.205,0.4663089844886612,0.4663089844886612
178.20600000000002,0.5022146507566019,0.5022146507566019
178.20700000000002,0.4407838581594721,0.4407838581594721
178.208,0.3087064923311791,0.3087064923311791
178.209,0.14894371173878174,0.14894371173878174
178.21,0.007558321311916361,0.007558321311916361
178.211,0.07968942378858934,-0.07968942378858934
178.21200000000002,0.0969990047152931,-0.0969990047152931
178.21300000000002,0.05172751173028045,-0.05172751173028045
178.214,0.029537442128393154,0.029537442128393154
178.215,0.11052127507532639,0.11052127507532639
178.216,0.15727946572430107,0.15727946572430107
178.217,0.14892806965857153,0.14892806965857153
178.21800000000002,0.08387635852556796,0.08387635852556796
178.21900000000002,0.020150253553853692,-0.020150253553853692
178.22,0.13205523929464225,-0.13205523929464225
178.221,0.21724867691022087,-0.21724867691022087
178.222,0.24832626173980166,-0.24832626173980166
178.223,0.21331820934592782,-0.21331820934592782
178.22400000000002,0.11915265847090528,-0.11915265847090528
178.225,0.010486413307141618,0.010486413307141618
178.226,0.14203201759954975,0.14203201759954975
178.227,0.24142850636666768,0.24142850636666768
178.228,0.2832421555792939,0.2832421555792939
178.229,0.25695400163669047,0.25695400163669047
178.23000000000002,0.16889567524619942,0.16889567524619942
178.231,0.03965305198280866,0.03965305198280866
178.232,0.1019436919562795,-0.1019436919562795
178.233,0.22628377954558754,-0.22628377954558754
178.234,0.3097544912157939,-0.3097544912157939
178.235,0.33916458401509286,-0.33916458401509286
178.23600000000002,0.3130426494288535,-0.3130426494288535
178.237,0.24004236126954437,-0.24004236126954437
178.238,0.13546190127068147,-0.13546190127068147
178.239,0.017215822530019298,-0.017215822530019298
178.24,0.09756112703862074,0.09756112703862074
178.241,0.1946200788945609,0.1946200788945609
178.24200000000002,0.26339953670721017,0.26339953670721017
178.243,0.297014605334845,0.297014605334845
178.244,0.2921135893301796,0.2921135893301796
178.245,0.24910613610784238,0.24910613610784238
178.246,0.17283424227787658,0.17283424227787658
178.247,0.07327552373196511,0.07327552373196511
178.24800000000002,0.03443457314124665,-0.03443457314124665
178.249,0.13134010559177256,-0.13134010559177256
178.25,0.1976430741559505,-0.1976430741559505
178.251,0.2169695391045664,-0.2169695391045664
178.252,0.1809290541755595,-0.1809290541755595
178.253,0.09258426420236487,-0.09258426420236487
178.25400000000002,0.03250045830860704,0.03250045830860704
178.255,0.1684252037843028,0.1684252037843028
178.256,0.2842338645328917,0.2842338645328917
178.257,0.35121722944707257,0.35121722944707257
178.258,0.3503931479740423,0.3503931479740423
178.259,0.2780624424920448,0.2780624424920448
178.26000000000002,0.14771376119778035,0.14771376119778035
178.261,0.01251617006514849,-0.01251617006514849
178.262,0.16638354504149755,-0.16638354504149755
178.263,0.2784618949008446,-0.2784618949008446
178.264,0.32308377842197733,-0.32308377842197733
178.265,0.29085624941924426,-0.29085624941924426
178.26600000000002,0.19094425288907824,-0.19094425288907824
178.267,0.048492509667949046,-0.048492509667949046
178.268,0.10207409958346014,0.10207409958346014
178.269,0.2259784186192313,0.2259784186192313
178.27,0.2967620443020851,0.2967620443020851
178.27100000000002,0.30235624849734277,0.30235624849734277
178.27200000000002,0.24703093197859527,0.24703093197859527
178.273,0.148938000405322,0.148938000405322
178.274,0.034234428075639034,0.034234428075639034
178.275,0.07031621470889404,-0.07031621470889404
178.276,0.14407020114742852,-0.14407020114742852
178.27700000000002,0.17674811760351983,-0.17674811760351983
178.27800000000002,0.16929212434800212,-0.16929212434800212
178.279,0.13153987936224443,-0.13153987936224443
178.28,0.07786544893230862,-0.07786544893230862
178.281,0.022426681201646814,-0.022426681201646814
178.282,0.02443649432797912,0.02443649432797912
178.28300000000002,0.05771060569276587,0.05771060569276587
178.28400000000002,0.07704494459689437,0.07704494459689437
178.285,0.08463699378335932,0.08463699378335932
178.286,0.0828414512590463,0.0828414512590463
178.287,0.07263765430254132,0.07263765430254132
178.288,0.05359969258776176,0.05359969258776176
178.28900000000002,0.02528168423441146,0.02528168423441146
178.29000000000002,0.010745735781358512,-0.010745735781358512
178.291,0.04932056144690944,-0.04932056144690944
178.292,0.081565236590745,-0.081565236590745
178.293,0.09664317593606153,-0.09664317593606153
178.294,0.08504018383377465,-0.08504018383377465
178.29500000000002,0.042305972100582956,-0.042305972100582956
178.29600000000002,0.028154963424438684,0.028154963424438684
178.297,0.1144767704068077,0.1144767704068077
178.298,0.19847465054318558,0.19847465054318558
178.299,0.26015811024019064,0.26015811024019064
178.3,0.2833519083282887,0.2833519083282887
178.30100000000002,0.2606619943374817,0.2606619943374817
178.30200000000002,0.19611300798768272,0.19611300798768272
178.303,0.10446225674088305,0.10446225674088305
178.304,0.0072517101174178755,0.0072517101174178755
178.305,0.07325919872666875,-0.07325919872666875
178.306,0.1204061023811469,-0.1204061023811469
178.30700000000002,0.12768600040140043,-0.12768600040140043
178.30800000000002,0.10013663839457798,-0.10013663839457798
178.309,0.05213040093285004,-0.05213040093285004
178.31,0.0023656249449575117,-0.0023656249449575117
178.311,0.0322462730674673,0.0322462730674673
178.312,0.04176627571529834,0.04176627571529834
178.31300000000002,0.02581774996170494,0.02581774996170494
178.31400000000002,0.007157044927232126,-0.007157044927232126
178.315,0.04354519959593328,-0.04354519959593328
178.316,0.06969759484029914,-0.06969759484029914
178.317,0.0766672445643446,-0.0766672445643446
178.318,0.06289056391141712,-0.06289056391141712
178.31900000000002,0.03396751406072851,-0.03396751406072851
178.32000000000002,0.00019719158184150487,0.00019719158184150487
178.321,0.029646179371210835,0.029646179371210835
178.322,0.04827522784559335,0.04827522784559335
178.323,0.055833889553593474,0.055833889553593474
178.324,0.05724963588411769,0.05724963588411769
178.32500000000002,0.05960006604486101,0.05960006604486101
178.32600000000002,0.06804011232658724,0.06804011232658724
178.327,0.08247223796440717,0.08247223796440717
178.328,0.09652124589073363,0.09652124589073363
178.329,0.09950123961569268,0.09950123961569268
178.33,0.08085301720850135,0.08085301720850135
178.33100000000002,0.03544250798610982,0.03544250798610982
178.33200000000002,0.032421046791280106,-0.032421046791280106
178.333,0.10811834831900569,-0.10811834831900569
178.334,0.16984779252127247,-0.16984779252127247
178.335,0.1951380538627978,-0.1951380538627978
178.336,0.16877302852631315,-0.16877302852631315
178.33700000000002,0.08939923678309913,-0.08939923678309913
178.33800000000002,0.027739285726968266,0.027739285726968266
178.339,0.15337772780113035,0.15337772780113035
178.34,0.25183191000159266,0.25183191000159266
178.341,0.291570624668094,0.291570624668094
178.342,0.2555155657444217,0.2555155657444217
178.34300000000002,0.14766299551780482,0.14766299551780482
178.34400000000002,0.006398091141987194,-0.006398091141987194
178.345,0.16564589193337642,-0.16564589193337642
178.346,0.2849010740448358,-0.2849010740448358
178.347,0.32793483120005373,-0.32793483120005373
178.348,0.27841254073075017,-0.27841254073075017
178.34900000000002,0.14523405727057936,-0.14523405727057936
178.35,0.03948859910942493,0.03948859910942493
178.351,0.22930196446055384,0.22930196446055384
178.352,0.3764816048454722,0.3764816048454722
178.353,0.4453522308290525,0.4453522308290525
178.354,0.42186144654606483,0.42186144654606483
178.35500000000002,0.31662967314678414,0.31662967314678414
178.356,0.1607745402277987,0.1607745402277987
178.357,0.003943928996795298,-0.003943928996795298
178.358,0.13742159965238787,-0.13742159965238787
178.359,0.2121170046823646,-0.2121170046823646
178.36,0.2193801557746815,-0.2193801557746815
178.36100000000002,0.16965192278049224,-0.16965192278049224
178.362,0.08702292378347132,-0.08702292378347132
178.363,0.0003920505524255269,-0.0003920505524255269
178.364,0.06564097251094836,0.06564097251094836
178.365,0.0972276324411867,0.0972276324411867
178.366,0.09332456787288779,0.09332456787288779
178.36700000000002,0.06328169224807967,0.06328169224807967
178.368,0.02144910415011947,0.02144910415011947
178.369,0.018826184535404966,-0.018826184535404966
178.37,0.049497959250643486,-0.049497959250643486
178.371,0.06901304350832793,-0.06901304350832793
178.372,0.08037896699179259,-0.08037896699179259
178.37300000000002,0.08738036669110238,-0.08738036669110238
178.374,0.09092153647467827,-0.09092153647467827
178.375,0.08732917265990658,-0.08732917265990658
178.376,0.06953428516830074,-0.06953428516830074
178.377,0.030743195867774853,-0.030743195867774853
178.378,0.030962828262673048,0.030962828262673048
178.37900000000002,0.10920964501493069,0.10920964501493069
178.38,0.18888988684207297,0.18888988684207297
178.381,0.24940932366852486,0.24940932366852486
178.382,0.2708691644321295,0.2708691644321295
178.383,0.2411603300658014,0.2411603300658014
178.384,0.16136950297197505,0.16136950297197505
178.38500000000002,0.04728161859826696,0.04728161859826696
178.386,0.07398125857930882,-0.07398125857930882
178.387,0.171442827648848,-0.171442827648848
178.388,0.21959683735563695,-0.21959683735563695
178.389,0.2064929521774984,-0.2064929521774984
178.39,0.13777118634301577,-0.13777118634301577
178.39100000000002,0.035114681896914135,-0.035114681896914135
178.392,0.07053223155713306,0.07053223155713306
178.393,0.14881320623108696,0.14881320623108696
178.394,0.1795958613388422,0.1795958613388422
178.395,0.15912468741317598,0.15912468741317598
178.39600000000002,0.10057964098270977,0.10057964098270977
178.39700000000002,0.02885122567697196,0.02885122567697196
178.398,0.02863744660730061,-0.02863744660730061
178.399,0.051828081482418575,-0.051828081482418575
178.4,0.03513282562908071,-0.03513282562908071
178.401,0.010798325434686618,0.010798325434686618
178.40200000000002,0.06331023881897924,0.06331023881897924
178.40300000000002,0.09648926450243134,0.09648926450243134
178.404,0.0912869870398827,0.0912869870398827
178.405,0.043328477327750026,0.043328477327750026
178.406,0.034530602951615474,-0.034530602951615474
178.407,0.1160085002446829,-0.1160085002446829
178.40800000000002,0.17040871211119446,-0.17040871211119446
178.40900000000002,0.17377367732750504,-0.17377367732750504
178.41,0.11824639600090037,-0.11824639600090037
178.411,0.016205562657097383,-0.016205562657097383
178.412,0.10253593756639079,0.10253593756639079
178.413,0.19980806202438783,0.19980806202438783
178.41400000000002,0.24156978856887923,0.24156978856887923
178.41500000000002,0.2096670115350392,0.2096670115350392
178.416,0.10884396969376642,0.10884396969376642
178.417,0.0335177470076119,-0.0335177470076119
178.418,0.17508209004930975,-0.17508209004930975
178.419,0.2713474360556588,-0.2713474360556588
178.42000000000002,0.2895020706232313,-0.2895020706232313
178.42100000000002,0.21890797919667482,-0.21890797919667482
178.422,0.07483661614751946,-0.07483661614751946
178.423,0.10575184475171207,0.10575184475171207
178.424,0.27504380168671005,0.27504380168671005
178.425,0.3883909623580408,0.3883909623580408
178.42600000000002,0.41713267043237745,0.41713267043237745
178.42700000000002,0.35632185393537963,0.35632185393537963
178.428,0.22517145483341805,0.22517145483341805
178.429,0.06039551831422196,0.06039551831422196
178.43,0.095173415840753,-0.095173415840753
178.431,0.20496449677090955,-0.20496449677090955
178.43200000000002,0.2482376015572323,-0.2482376015572323
178.43300000000002,0.22417398847572811,-0.22417398847572811
178.434,0.14974309022418852,-0.14974309022418852
178.435,0.052620697273248584,-0.052620697273248584
178.436,0.03812225734932362,0.03812225734932362
178.437,0.10041323375368227,0.10041323375368227
178.43800000000002,0.12415960744835997,0.12415960744835997
178.43900000000002,0.11174568373816451,0.11174568373816451
178.44,0.07460696578344828,0.07460696578344828
178.441,0.027699415073759948,0.027699415073759948
178.442,0.01585278506915122,-0.01585278506915122
178.443,0.04806713014943298,-0.04806713014943298
178.44400000000002,0.06657407498684509,-0.06657407498684509
178.44500000000002,0.07270522101659749,-0.07270522101659749
178.446,0.06858633414373017,-0.06858633414373017
178.447,0.05488589377804842,-0.05488589377804842
178.448,0.030394940001513326,-0.030394940001513326
178.449,0.006367539131128419,0.006367539131128419
178.45000000000002,0.05438570940611376,0.05438570940611376
178.45100000000002,0.10774960995621519,0.10774960995621519
178.452,0.15515375863233882,0.15515375863233882
178.453,0.1820988966861954,0.1820988966861954
178.454,0.17545044082081507,0.17545044082081507
178.455,0.12887715162416313,0.12887715162416313
178.45600000000002,0.047060981825787884,0.047060981825787884
178.45700000000002,0.053265265205151846,-0.053265265205151846
178.458,0.14642960753966994,-0.14642960753966994
178.459,0.20460282309845101,-0.20460282309845101
178.46,0.20634469977147507,-0.20634469977147507
178.461,0.14415209481226166,-0.14415209481226166
178.46200000000002,0.02832079185984071,-0.02832079185984071
178.46300000000002,0.11452344370002243,0.11452344370002243
178.464,0.2481703617079476,0.2481703617079476
178.465,0.33700451827517974,0.33700451827517974
178.466,0.3565214181376486,0.3565214181376486
178.467,0.3008246846578324,0.3008246846578324
178.46800000000002,0.18461356950712715,0.18461356950712715
178.46900000000002,0.0389003171919462,0.0389003171919462
178.47,0.0982737815798238,-0.0982737815798238
178.471,0.19320866971574135,-0.19320866971574135
178.472,0.22638776110568992,-0.22638776110568992
178.473,0.19767275868445655,-0.19767275868445655
178.47400000000002,0.12526327987260066,-0.12526327987260066
178.475,0.03888917902622435,-0.03888917902622435
178.476,0.030409797091466295,0.030409797091466295
178.477,0.06048013957635723,0.06048013957635723
178.478,0.044871453872803224,0.044871453872803224
178.479,0.005874585476859151,-0.005874585476859151
178.48000000000002,0.06870440097462238,-0.06870440097462238
178.481,0.11659354398713584,-0.11659354398713584
178.482,0.12811454633689046,-0.12811454633689046
178.483,0.09473769397357568,-0.09473769397357568
178.484,0.02344528974188942,-0.02344528974188942
178.485,0.06607590287124188,0.06607590287124188
178.48600000000002,0.1485053002163701,0.1485053002163701
178.487,0.2016217063882444,0.2016217063882444
178.488,0.21360162234250057,0.21360162234250057
178.489,0.18638614628343642,0.18638614628343642
178.49,0.134083705819233,0.134083705819233
178.491,0.07716754241875678,0.07716754241875678
178.49200000000002,0.034704876975426124,0.034704876975426124
178.493,0.017499130648614525,0.017499130648614525
178.494,0.024622063818904305,0.024622063818904305
178.495,0.044521177351093844,0.044521177351093844
178.496,0.06018654192444295,0.06018654192444295
178.497,0.05636950531095808,0.05636950531095808
178.49800000000002,0.026101642948133774,0.026101642948133774
178.499,0.025969152365259984,-0.025969152365259984
178.5,0.08472904954423499,-0.08472904954423499
178.501,0.12987843126365362,-0.12987843126365362
178.502,0.14344717001044816,-0.14344717001044816
178.503,0.11679395242088864,-0.11679395242088864
178.50400000000002,0.0544780243846027,-0.0544780243846027
178.505,0.026516491836395817,0.026516491836395817
178.506,0.1020659428560402,0.1020659428560402
178.507,0.1489328410001085,0.1489328410001085
178.508,0.15274333692340214,0.15274333692340214
178.509,0.11309192925506917,0.11309192925506917
178.51000000000002,0.04391873744879793,0.04391873744879793
178.511,0.031055221286252155,-0.031055221286252155
178.512,0.08631493566773585,-0.08631493566773585
178.513,0.1032250188168149,-0.1032250188168149
178.514,0.07639048740985299,-0.07639048740985299
178.515,0.015491385649821887,-0.015491385649821887
178.51600000000002,0.058056905178667684,0.058056905178667684
178.517,0.11846863052282908,0.11846863052282908
178.518,0.1444297184884651,0.1444297184884651
178.519,0.12635900954099077,0.12635900954099077
178.52,0.06958960195799024,0.06958960195799024
178.52100000000002,0.007597763756399867,-0.007597763756399867
178.52200000000002,0.08035751897149512,-0.08035751897149512
178.523,0.12581073699520973,-0.12581073699520973
178.524,0.13072555382794804,-0.13072555382794804
178.525,0.09567419798624754,-0.09567419798624754
178.526,0.03426302222325339,-0.03426302222325339
178.52700000000002,0.032208710148724284,0.032208710148724284
178.52800000000002,0.08267994864539996,0.08267994864539996
178.529,0.10395326989039178,0.10395326989039178
178.53,0.09524214866241265,0.09524214866241265
178.531,0.06798686992909819,0.06798686992909819
178.532,0.04100532619460018,0.04100532619460018
178.53300000000002,0.032753010024805906,0.032753010024805906
178.53400000000002,0.053551152772502775,0.053551152772502775
178.535,0.10070757298625876,0.10070757298625876
178.536,0.15846404560654936,0.15846404560654936
178.537,0.20299435868080007,0.20299435868080007
178.538,0.210845638097924,0.210845638097924
178.53900000000002,0.1679108564586731,0.1679108564586731
178.54000000000002,0.07571582632657492,0.07571582632657492
178.541,0.04737139152557801,-0.04737139152557801
178.542,0.1707111279841349,-0.1707111279841349
178.543,0.2604611782927502,-0.2604611782927502
178.544,0.2902662815779352,-0.2902662815779352
178.54500000000002,0.25003992703526046,-0.25003992703526046
178.54600000000002,0.14984759512657186,-0.14984759512657186
178.547,0.017461885376248154,-0.017461885376248154
178.548,0.1097692936991832,0.1097692936991832
178.549,0.19621332668135105,0.19621332668135105
178.55,0.2188072142625317,0.2188072142625317
178.55100000000002,0.17399655226147615,0.17399655226147615
178.55200000000002,0.07854474525480892,0.07854474525480892
178.553,0.036008866392966854,-0.036008866392966854
178.554,0.1334054747776765,-0.1334054747776765
178.555,0.18396164871480714,-0.18396164871480714
178.556,0.1734765719666982,-0.1734765719666982
178.55700000000002,0.1069696388459267,-0.1069696388459267
178.55800000000002,0.006208068253724663,-0.006208068253724663
178.559,0.09796821650962317,0.09796821650962317
178.56,0.1758488471035713,0.1758488471035713
178.561,0.20816441550584264,0.20816441550584264
178.562,0.1914991193091784,0.1914991193091784
178.56300000000002,0.13819486250008595,0.13819486250008595
178.56400000000002,0.07103034653370632,0.07103034653370632
178.565,0.014698699106346025,0.014698699106346025
178.566,0.0128879175080574,-0.0128879175080574
178.567,0.006488079132430213,-0.006488079132430213
178.568,0.02530419277160223,0.02530419277160223
178.56900000000002,0.06385736795744679,0.06385736795744679
178.57000000000002,0.0877849795130492,0.0877849795130492
178.571,0.08107158781488044,0.08107158781488044
178.572,0.03917353056766504,0.03917353056766504
178.573,0.029010820711442342,-0.029010820711442342
178.574,0.10393749582140044,-0.10393749582140044
178.57500000000002,0.16196077554154809,-0.16196077554154809
178.57600000000002,0.18333404885319293,-0.18333404885319293
178.577,0.158916266385961,-0.158916266385961
178.578,0.09332046933002625,-0.09332046933002625
178.579,0.003489037578600529,-0.003489037578600529
178.58,0.08675460609348029,0.08675460609348029
178.58100000000002,0.15428615945913138,0.15428615945913138
178.58200000000002,0.1838318641529526,0.1838318641529526
178.583,0.1723432123976365,0.1723432123976365
178.584,0.12924405764736768,0.12924405764736768
178.585,0.072620080536137,0.072620080536137
178.586,0.022771668213999785,0.022771668213999785
178.58700000000002,0.0046212790848073615,-0.0046212790848073615
178.58800000000002,0.003431435652342163,-0.003431435652342163
178.589,0.021449967624588062,0.021449967624588062
178.59,0.056451755045682006,0.056451755045682006
178.591,0.08451570885318538,0.08451570885318538
178.592,0.09127699043409088,0.09127699043409088
178.59300000000002,0.07011372153166229,0.07011372153166229
178.59400000000002,0.024415850185527166,0.024415850185527166
178.595,0.03357848055392898,-0.03357848055392898
178.596,0.08686319459844227,-0.08686319459844227
178.597,0.11920726666872761,-0.11920726666872761
178.598,0.12029884297890003,-0.12029884297890003
178.59900000000002,0.08885715374657521,-0.08885715374657521
178.6,0.03282861162528494,-0.03282861162528494
178.601,0.0332276018603026,0.0332276018603026
178.602,0.09257471160387198,0.09257471160387198
178.603,0.1310684385354044,0.1310684385354044
178.604,0.14080009255857906,0.14080009255857906
178.60500000000002,0.12164077964693476,0.12164077964693476
178.606,0.08046482095110208,0.08046482095110208
178.607,0.028566105483667226,0.028566105483667226
178.608,0.021739057233098658,-0.021739057233098658
178.609,0.06023250738508745,-0.06023250738508745
178.61,0.0808154379653595,-0.0808154379653595
178.61100000000002,0.08209466682885969,-0.08209466682885969
178.612,0.06670329089226046,-0.06670329089226046
178.613,0.03986788437011357,-0.03986788437011357
178.614,0.007822614276705164,-0.007822614276705164
178.615,0.02347667036155099,0.02347667036155099
178.616,0.04915886282022042,0.04915886282022042
178.61700000000002,0.06584093126008894,0.06584093126008894
178.618,0.07182927667178074,0.07182927667178074
178.619,0.06727741827877498,0.06727741827877498
178.62,0.05429905120573486,0.05429905120573486
178.621,0.036869184128891064,0.036869184128891064
178.622,0.020285441474225285,0.020285441474225285
178.62300000000002,0.010066826191036382,0.010066826191036382
178.624,0.010413169774234898,0.010413169774234898
178.625,0.02263067823186904,0.02263067823186904
178.626,0.04410661530613247,0.04410661530613247
178.627,0.06837500001436592,0.06837500001436592
178.628,0.08652386273647017,0.08652386273647017
178.62900000000002,0.08972947067385806,0.08972947067385806
178.63,0.07222853432462695,0.07222853432462695
178.631,0.03374925299339093,0.03374925299339093
178.632,0.01953865035441804,-0.01953865035441804
178.633,0.07609416271810021,-0.07609416271810021
178.634,0.12197970312932016,-0.12197970312932016
178.63500000000002,0.14493295375223003,-0.14493295375223003
178.636,0.13825527009482796,-0.13825527009482796
178.637,0.10317889909482769,-0.10317889909482769
178.638,0.04879359456531962,-0.04879359456531962
178.639,0.010604759934963681,0.010604759934963681
178.64,0.05999023881205101,0.05999023881205101
178.64100000000002,0.08846887042868046,0.08846887042868046
178.642,0.0928681955764219,0.0928681955764219
178.643,0.07875116972643115,0.07875116972643115
178.644,0.05838856653358415,0.05838856653358415
178.645,0.04627213409492015,0.04627213409492015
178.64600000000002,0.05364749106091371,0.05364749106091371
178.64700000000002,0.08396446954827952,0.08396446954827952
178.648,0.13091125705166085,0.13091125705166085
178.649,0.1798686094823947,0.1798686094823947
178.65,0.2124577894248012,0.2124577894248012
178.651,0.21275583169133072,0.21275583169133072
178.65200000000002,0.17310300179748106,0.17310300179748106
178.65300000000002,0.09747441705335991,0.09747441705335991
178.654,0.0011397646447408594,0.0011397646447408594
178.655,0.09344533041789016,-0.09344533041789016
178.656,0.16329294010396,-0.16329294010396
178.657,0.19195790575964922,-0.19195790575964922
178.65800000000002,0.17470943945902384,-0.17470943945902384
178.65900000000002,0.12005683416746915,-0.12005683416746915
178.66,0.047069644846147285,-0.047069644846147285
178.661,0.02067726406176318,0.02067726406176318
178.662,0.06257578653724782,0.06257578653724782
178.663,0.06743558952978312,0.06743558952978312
178.66400000000002,0.036810200535457804,0.036810200535457804
178.66500000000002,0.015866984610012125,-0.015866984610012125
178.666,0.07000909367812336,-0.07000909367812336
178.667,0.10486063646985322,-0.10486063646985322
178.668,0.10640674388688254,-0.10640674388688254
178.669,0.07193001801499621,-0.07193001801499621
178.67000000000002,0.01075485068956894,-0.01075485068956894
178.67100000000002,0.05899050969424846,0.05899050969424846
178.672,0.11644173591239837,0.11644173591239837
178.673,0.14483494155797438,0.14483494155797438
178.674,0.13685145921147845,0.13685145921147845
178.675,0.09676878077229589,0.09676878077229589
178.67600000000002,0.03882191027936699,0.03882191027936699
178.67700000000002,0.017555788490517088,-0.017555788490517088
178.678,0.05395028291827475,-0.05395028291827475
178.679,0.05858259241057673,-0.05858259241057673
178.68,0.029565228721539438,-0.029565228721539438
178.681,0.02508931329964348,0.02508931329964348
178.68200000000002,0.09048539044867154,0.09048539044867154
178.68300000000002,0.14969899907187512,0.14969899907187512
178.684,0.18878219304426858,0.18878219304426858
178.685,0.20033006224860017,0.20033006224860017
178.686,0.18464753991869065,0.18464753991869065
178.687,0.1484445913539405,0.1484445913539405
178.68800000000002,0.10181509404683031,0.10181509404683031
178.68900000000002,0.05473347539386597,0.05473347539386597
178.69,0.01429753882632534,0.01429753882632534
178.691,0.01649376976759387,-0.01649376976759387
178.692,0.038307144457935705,-0.038307144457935705
178.693,0.053889609055812304,-0.053889609055812304
178.69400000000002,0.06618170208210128,-0.06618170208210128
178.69500000000002,0.07694524007096248,-0.07694524007096248
178.696,0.08636018665266809,-0.08636018665266809
178.697,0.09353922952473948,-0.09353922952473948
178.698,0.09748774524889159,-0.09748774524889159
178.699,0.0978800154133419,-0.0978800154133419
178.70000000000002,0.09518539412803306,-0.09518539412803306
178.70100000000002,0.09007225058210722,-0.09007225058210722
178.702,0.08245091101029434,-0.08245091101029434
178.703,0.07077790633137415,-0.07077790633137415
178.704,0.05219460087779604,-0.05219460087779604
178.705,0.023712937022692948,-0.023712937022692948
178.70600000000002,0.01586726610850664,0.01586726610850664
178.70700000000002,0.06408886082408927,0.06408886082408927
178.708,0.11396858462971182,0.11396858462971182
178.709,0.1548440283812187,0.1548440283812187
178.71,0.17504817812639217,0.17504817812639217
178.711,0.16576253400934626,0.16576253400934626
178.71200000000002,0.12478039163305055,0.12478039163305055
178.71300000000002,0.058709380937806976,0.058709380937806976
178.714,0.017505295690716793,-0.017505295690716793
178.715,0.08401650509410441,-0.08401650509410441
178.716,0.12169049950104216,-0.12169049950104216
178.717,0.11822370213330224,-0.11822370213330224
178.71800000000002,0.07269956185796467,-0.07269956185796467
178.71900000000002,0.0031486200628922933,0.0031486200628922933
178.72,0.08771847192572291,0.08771847192572291
178.721,0.1557714382193489,0.1557714382193489
178.722,0.1862834388014616,0.1862834388014616
178.723,0.1693868634700486,0.1693868634700486
178.72400000000002,0.11002072266601859,0.11002072266601859
178.725,0.02688742301601943,0.02688742301601943
178.726,0.05316144021793934,-0.05316144021793934
178.727,0.10362687596283038,-0.10362687596283038
178.728,0.10701454330495275,-0.10701454330495275
178.729,0.06074376585553509,-0.06074376585553509
178.73000000000002,0.021745907756755223,0.021745907756755223
178.731,0.1151786139883193,0.1151786139883193
178.732,0.1906160997093802,0.1906160997093802
178.733,0.22493021296274507,0.22493021296274507
178.734,0.2083840106837318,0.2083840106837318
178.735,0.14772283728663926,0.14772283728663926
178.73600000000002,0.06367918326059252,0.06367918326059252
178.737,0.01629339732302104,-0.01629339732302104
178.738,0.06757899091752695,-0.06757899091752695
178.739,0.0769431461615473,-0.0769431461615473
178.74,0.047064969968812154,-0.047064969968812154
178.741,0.0045759440009089936,0.0045759440009089936
178.74200000000002,0.052132878412384454,0.052132878412384454
178.743,0.07094269059806924,0.07094269059806924
178.744,0.04685264531225686,0.04685264531225686
178.745,0.018003968736237663,-0.018003968736237663
178.746,0.10512891190353402,-0.10512891190353402
178.747,0.1854650540459608,-0.1854650540459608
178.74800000000002,0.22921377404856458,-0.22921377404856458
178.749,0.21634140610229602,-0.21634140610229602
178.75,0.14413248307274762,-0.14413248307274762
178.751,0.029086224674103378,-0.029086224674103378
178.752,0.09765575444878394,0.09765575444878394
178.753,0.19995869126854138,0.19995869126854138
178.75400000000002,0.24826924254413618,0.24826924254413618
178.755,0.2292589710840729,0.2292589710840729
178.756,0.15028335573016305,0.15028335573016305
178.757,0.037118181290870966,0.037118181290870966
178.758,0.0743162919355439,-0.0743162919355439
178.759,0.14951556563641022,-0.14951556563641022
178.76000000000002,0.16640863823222585,-0.16640863823222585
178.761,0.122199044062141,-0.122199044062141
178.762,0.03381113603687158,-0.03381113603687158
178.763,0.06812278069291677,0.06812278069291677
178.764,0.1496427199145336,0.1496427199145336
178.765,0.1846891430871973,0.1846891430871973
178.76600000000002,0.1634359183403491,0.1634359183403491
178.767,0.09502612179676584,0.09502612179676584
178.768,0.00394227839708039,0.00394227839708039
178.769,0.07860269274141729,-0.07860269274141729
178.77,0.12522836291560147,-0.12522836291560147
178.77100000000002,0.12130203773524628,-0.12130203773524628
178.77200000000002,0.06926570708998991,-0.06926570708998991
178.773,0.012922146401730394,0.012922146401730394
178.774,0.09848602355827052,0.09848602355827052
178.775,0.1612025247926574,0.1612025247926574
178.776,0.18413846594215033,0.18413846594215033
178.77700000000002,0.16478898794291275,0.16478898794291275
178.77800000000002,0.11499296220876709,0.11499296220876709
178.779,0.05586986674722749,0.05586986674722749
178.78,0.009747077636411694,0.009747077636411694
178.781,0.007967464800134216,-0.007967464800134216
178.782,0.005910927625571549,0.005910927625571549
178.78300000000002,0.04165725551478339,0.04165725551478339
178.78400000000002,0.0806765132658549,0.0806765132658549
178.785,0.10269950146128615,0.10269950146128615
178.786,0.09348272379930589,0.09348272379930589
178.787,0.05024132392351066,0.05024132392351066
178.788,0.017092985352736068,-0.017092985352736068
178.78900000000002,0.08917926895555894,-0.08917926895555894
178.79000000000002,0.14390794812198904,-0.14390794812198904
178.791,0.16399008589778208,-0.16399008589778208
178.792,0.1428237203428011,-0.1428237203428011
178.793,0.0866250909959112,-0.0866250909959112
178.794,0.012164345852550107,-0.012164345852550107
178.79500000000002,0.0590033104718497,0.0590033104718497
178.79600000000002,0.10772046507236888,0.10772046507236888
178.797,0.12330004031539343,0.12330004031539343
178.798,0.10642901144919192,0.10642901144919192
178.799,0.06802259624293683,0.06802259624293683
178.8,0.024603286423135362,0.024603286423135362
178.80100000000002,0.008011004590723014,-0.008011004590723014
178.80200000000002,0.020383642469768204,-0.020383642469768204
178.803,0.012477072743472206,-0.012477072743472206
178.804,0.006993652624377011,0.006993652624377011
178.805,0.024522215834998473,0.024522215834998473
178.806,0.02753785527188013,0.02753785527188013
178.80700000000002,0.009729178989995368,0.009729178989995368
178.80800000000002,0.026030628081551432,-0.026030628081551432
178.809,0.06826230303292291,-0.06826230303292291
178.81,0.10078772468490815,-0.10078772468490815
178.811,0.10858203097436048,-0.10858203097436048
178.812,0.08347771349927846,-0.08347771349927846
178.81300000000002,0.02766422476769126,-0.02766422476769126
178.81400000000002,0.046311221536098346,0.046311221536098346
178.815,0.1191217807061602,0.1191217807061602
178.816,0.17065895909432305,0.17065895909432305
178.817,0.18645606084329036,0.18645606084329036
178.818,0.16239345963812934,0.16239345963812934
178.81900000000002,0.10612025694003435,0.10612025694003435
178.82000000000002,0.034724761171261775,0.034724761171261775
178.821,0.030575653307268746,-0.030575653307268746
178.822,0.07099343033094663,-0.07099343033094663
178.823,0.07587430938895345,-0.07587430938895345
178.824,0.045763698069404835,-0.045763698069404835
178.82500000000002,0.008057280239703646,0.008057280239703646
178.82600000000002,0.06731532704743937,0.06731532704743937
178.827,0.11249892413000762,0.11249892413000762
178.828,0.12878239038371952,0.12878239038371952
178.829,0.11031536536515074,0.11031536536515074
178.83,0.06166950382841763,0.06166950382841763
178.83100000000002,0.00383213418242756,-0.00383213418242756
178.83200000000002,0.06822285831170538,-0.06822285831170538
178.833,0.114080932049333,-0.114080932049333
178.834,0.12923164126224274,-0.12923164126224274
178.835,0.10967327769853985,-0.10967327769853985
178.836,0.06007157200791979,-0.06007157200791979
178.83700000000002,0.00807264665529872,0.00807264665529872
178.83800000000002,0.07983518847236604,0.07983518847236604
178.839,0.1407651654579909,0.1407651654579909
178.84,0.18018398652101064,0.18018398652101064
178.841,0.19311937242197974,0.19311937242197974
178.842,0.18058633051306505,0.18058633051306505
178.84300000000002,0.14840466793034746,0.14840466793034746
178.84400000000002,0.10508394969363,0.10508394969363
178.845,0.05944469823674847,0.05944469823674847
178.846,0.01858635206640047,0.01858635206640047
178.847,0.013380304411386046,-0.013380304411386046
178.848,0.03566403306459254,-0.03566403306459254
178.84900000000002,0.05024365443407297,-0.05024365443407297
178.85,0.060666417875185896,-0.060666417875185896
178.851,0.07052801503807082,-0.07052801503807082
178.852,0.08201324227233919,-0.08201324227233919
178.853,0.09486649970243843,-0.09486649970243843
178.854,0.10609219558045158,-0.10609219558045158
178.85500000000002,0.11054735569470775,-0.11054735569470775
178.856,0.10238300788434407,-0.10238300788434407
178.857,0.07704441749238877,-0.07704441749238877
178.858,0.03331310104677543,-0.03331310104677543
178.859,0.02525252851417248,0.02525252851417248
178.86,0.09007106576965396,0.09007106576965396
178.86100000000002,0.14882124432792,0.14882124432792
178.862,0.18815938345184446,0.18815938345184446
178.863,0.19728730734381283,0.19728730734381283
178.864,0.17139865256690312,0.17139865256690312
178.865,0.11390061186844891,0.11390061186844891
178.866,0.03652738719895132,0.03652738719895132
178.86700000000002,0.042986912568917734,-0.042986912568917734
178.868,0.10526466101793963,-0.10526466101793963
178.869,0.13455305406593776,-0.13455305406593776
178.87,0.12336617573664721,-0.12336617573664721
178.871,0.07500545015013382,-0.07500545015013382
178.872,0.003006736327764381,-0.003006736327764381
178.87300000000002,0.07252714359469059,0.07252714359469059
178.874,0.1307469114353612,0.1307469114353612
178.875,0.15630609496749615,0.15630609496749615
178.876,0.1440698642454905,0.1440698642454905
178.877,0.10070862466329089,0.10070862466329089
178.878,0.0425453493923047,0.0425453493923047
178.87900000000002,0.009766367785941754,-0.009766367785941754
178.88,0.0380790660146646,-0.0380790660146646
178.881,0.03287540198493866,-0.03287540198493866
178.882,0.0033951084843355517,0.0033951084843355517
178.883,0.05697782632349657,0.05697782632349657
178.884,0.1073724124155091,0.1073724124155091
178.88500000000002,0.13435705725565317,0.13435705725565317
178.886,0.12514823237162576,0.12514823237162576
178.887,0.07923215946796236,0.07923215946796236
178.888,0.009109445819769801,0.009109445819769801
178.889,0.06346873637091899,-0.06346873637091899
178.89,0.11465996836002912,-0.11465996836002912
178.89100000000002,0.12675931934009776,-0.12675931934009776
178.892,0.09470817228030537,-0.09470817228030537
178.893,0.028567285988321367,-0.028567285988321367
178.894,0.04907913792637397,0.04907913792637397
178.895,0.11013863320889983,0.11013863320889983
178.89600000000002,0.13027081420728082,0.13027081420728082
178.89700000000002,0.0973757415431542,0.0973757415431542
178.898,0.01643807492356575,0.01643807492356575
178.899,0.09103188357033065,-0.09103188357033065
178.9,0.1929849057418601,-0.1929849057418601
178.901,0.2564821258607699,-0.2564821258607699
178.90200000000002,0.2579927558732259,-0.2579927558732259
178.90300000000002,0.1910447526851039,-0.1910447526851039
178.904,0.0687295061795895,-0.0687295061795895
178.905,0.07981207600850815,0.07981207600850815
178.906,0.217866299541013,0.217866299541013
178.907,0.3119330406038914,0.3119330406038914
178.90800000000002,0.34142946083205383,0.34142946083205383
178.90900000000002,0.3042825095293116,0.3042825095293116
178.91,0.21672704777153506,0.21672704777153506
178.911,0.10750707525852676,0.10750707525852676
178.912,0.008471194236682189,0.008471194236682189
178.913,0.0553293377458306,-0.0553293377458306
178.91400000000002,0.07285061742970778,-0.07285061742970778
178.91500000000002,0.049351546692362525,-0.049351546692362525
178.916,0.0032291663208584565,-0.0032291663208584565
178.917,0.04133371490256277,0.04133371490256277
178.918,0.0632849129733013,0.0632849129733013
178.919,0.05211631771105951,0.05211631771105951
178.92000000000002,0.01130133919767573,0.01130133919767573
178.92100000000002,0.043306840352836495,-0.043306840352836495
178.922,0.08944461022623351,-0.08944461022623351
178.923,0.10663391852429116,-0.10663391852429116
178.924,0.08374869793250928,-0.08374869793250928
178.925,0.02335855226673489,-0.02335855226673489
178.92600000000002,0.058612401586060736,0.058612401586060736
178.92700000000002,0.13777435806064897,0.13777435806064897
178.928,0.18905117738623578,0.18905117738623578
178.929,0.19475925433196406,0.19475925433196406
178.93,0.15034325359781908,0.15034325359781908
178.931,0.0659485025786628,0.0659485025786628
178.93200000000002,0.03659403555012153,-0.03659403555012153
178.93300000000002,0.13030618880020328,-0.13030618880020328
178.934,0.1909747340048722,-0.1909747340048722
178.935,0.2039445322553638,-0.2039445322553638
178.936,0.1677769974914548,-0.1677769974914548
178.937,0.09385619152166869,-0.09385619152166869
178.93800000000002,0.0023478300332834268,-0.0023478300332834268
178.93900000000002,0.08398363750820836,0.08398363750820836
178.94,0.1460634905959708,0.1460634905959708
178.941,0.17303296315240435,0.17303296315240435
178.942,0.16389907811283844,0.16389907811283844
178.943,0.12622759646575,0.12622759646575
178.94400000000002,0.07273627825779805,0.07273627825779805
178.94500000000002,0.017177489328116025,0.017177489328116025
178.946,0.029113453648578425,-0.029113453648578425
178.947,0.0591153339894247,-0.0591153339894247
178.948,0.0703004733196676,-0.0703004733196676
178.949,0.06359467630493276,-0.06359467630493276
178.95000000000002,0.04196225112620455,-0.04196225112620455
178.95100000000002,0.009388708914948918,-0.009388708914948918
178.952,0.029381844308267402,0.029381844308267402
178.953,0.06854226180084177,0.06854226180084177
178.954,0.10095079917501781,0.10095079917501781
178.955,0.11857384536272231,0.11857384536272231
178.95600000000002,0.11402267442824643,0.11402267442824643
178.95700000000002,0.08299722557463696,0.08299722557463696
178.958,0.026861629047236768,0.026861629047236768
178.959,0.04576176482256411,-0.04576176482256411
178.96,0.11939234241023233,-0.11939234241023233
178.961,0.1745364685440738,-0.1745364685440738
178.96200000000002,0.19257356171316853,-0.19257356171316853
178.96300000000002,0.1614299674731483,-0.1614299674731483
178.964,0.08027628669909226,-0.08027628669909226
178.965,0.03845633949439642,0.03845633949439642
178.966,0.17077230661427034,0.17077230661427034
178.967,0.2864436595371409,0.2864436595371409
178.96800000000002,0.35670924388382863,0.35670924388382863
178.96900000000002,0.3621990269643085,0.3621990269643085
178.97,0.2987081966481093,0.2987081966481093
178.971,0.17896921197399362,0.17896921197399362
178.972,0.02971652161298466,0.02971652161298466
178.973,0.1152415721214306,-0.1152415721214306
178.97400000000002,0.2239897591459239,-0.2239897591459239
178.975,0.27490376632959634,-0.27490376632959634
178.976,0.2620263734500764,-0.2620263734500764
178.977,0.19588950356873025,-0.19588950356873025
178.978,0.09964708176501402,-0.09964708176501402
178.979,0.0018078888518806568,-0.0018078888518806568
178.98000000000002,0.07214447190496354,0.07214447190496354
178.981,0.1066975339016536,0.1066975339016536
178.982,0.09981981779762772,0.09981981779762772
178.983,0.06218579321054363,0.06218579321054363
178.984,0.012639096206445544,0.012639096206445544
178.985,0.028441669402141878,-0.028441669402141878
178.98600000000002,0.04565831321770153,-0.04565831321770153
178.987,0.032962069929239335,-0.032962069929239335
178.988,0.005321265435233036,0.005321265435233036
178.989,0.056843322655038664,0.056843322655038664
178.99,0.10590050132274498,0.10590050132274498
178.991,0.13868867552739994,0.13868867552739994
178.99200000000002,0.14737538884523382,0.14737538884523382
178.993,0.13177493253628736,0.13177493253628736
178.994,0.09833427341400003,0.09833427341400003
178.995,0.05708481573562141,0.05708481573562141
178.996,0.01785551253305151,0.01785551253305151
178.997,0.012826815930896074,-0.012826815930896074
178.99800000000002,0.03311502720775572,-0.03311502720775572
178.999,0.04519852287212378,-0.04519852287212378
179.0,0.05313213709048348,-0.05313213709048348
179.001,0.06018069856127217,-0.06018069856127217
179.002,0.06684129939252959,-0.06684129939252959
179.003,0.07036769746680738,-0.07036769746680738
179.00400000000002,0.06597514660080839,-0.06597514660080839
179.005,0.0492070538080136,-0.0492070538080136
179.006,0.018466059235613508,-0.018466059235613508
179.007,0.023369048789257052,0.023369048789257052
179.008,0.06897727121011044,0.06897727121011044
179.009,0.10838662964106183,0.10838662964106183
179.01000000000002,0.13195207273623932,0.13195207273623932
179.011,0.1334819035593353,0.1334819035593353
179.012,0.1123918652094511,0.1123918652094511
179.013,0.07409819196742151,0.07409819196742151
179.014,0.028483435370967536,0.028483435370967536
179.015,0.013049319014018512,-0.013049319014018512
179.01600000000002,0.04092768035806649,-0.04092768035806649
179.017,0.05003821253750562,-0.05003821253750562
179.018,0.04078824659537972,-0.04078824659537972
179.019,0.018338032979490104,-0.018338032979490104
179.02,0.009603472734098784,0.009603472734098784
179.02100000000002,0.03553661484614201,0.03553661484614201
179.02200000000002,0.05445501881321935,0.05445501881321935
179.023,0.0648714852059995,0.0648714852059995
179.024,0.06833223582219494,0.06833223582219494
179.025,0.06777380171479375,0.06777380171479375
179.026,0.06552558751664184,0.06552558751664184
179.02700000000002,0.06187737389113801,0.06187737389113801
179.02800000000002,0.05487059074527556,0.05487059074527556
179.029,0.041437659355165524,0.041437659355165524
179.03,0.019416116620478263,0.019416116620478263
179.031,0.010456688875342124,-0.010456688875342124
179.032,0.043530325462726505,-0.043530325462726505
179.03300000000002,0.07184237689502426,-0.07184237689502426
179.03400000000002,0.08635075002428272,-0.08635075002428272
179.035,0.08013731846795225,-0.08013731846795225
179.036,0.05144699965139654,-0.05144699965139654
179.037,0.005349700338624919,-0.005349700338624919
179.038,0.046806009722106356,0.046806009722106356
179.03900000000002,0.09024858071273978,0.09024858071273978
179.04000000000002,0.1112158973918651,0.1112158973918651
179.041,0.10159158711995597,0.10159158711995597
179.042,0.062169681733127646,0.062169681733127646
179.043,0.0033078015556673446,0.0033078015556673446
179.044,0.057481144242196525,-0.057481144242196525
179.04500000000002,0.10045220408230437,-0.10045220408230437
179.04600000000002,0.10964722023766071,-0.10964722023766071
179.047,0.0781428799531424,-0.0781428799531424
179.048,0.010809476778374627,-0.010809476778374627
179.049,0.0764208136175597,0.0764208136175597
179.05,0.16070711230651358,0.16070711230651358
179.05100000000002,0.21872161367424736,0.21872161367424736
179.05200000000002,0.2334410881622495,0.2334410881622495
179.053,0.19924838698163883,0.19924838698163883
179.054,0.12376920914191514,0.12376920914191514
179.055,0.025852885272799497,0.025852885272799497
179.056,0.06972028714976208,-0.06972028714976208
179.05700000000002,0.13922788725049007,-0.13922788725049007
179.05800000000002,0.1666085859997004,-0.1666085859997004
179.059,0.14773712177338116,-0.14773712177338116
179.06,0.09115996425962147,-0.09115996425962147
179.061,0.01516764362175238,-0.01516764362175238
179.062,0.05782128793092389,0.05782128793092389
179.06300000000002,0.10781787239123686,0.10781787239123686
179.06400000000002,0.12279817886359745,0.12279817886359745
179.065,0.10163852257210704,0.10163852257210704
179.066,0.05371982859439717,0.05371982859439717
179.067,0.004499215249448074,-0.004499215249448074
179.068,0.05475105288806281,-0.05475105288806281
179.06900000000002,0.08239768311734141,-0.08239768311734141
179.07000000000002,0.08041582567334227,-0.08041582567334227
179.071,0.050844529340043354,-0.050844529340043354
179.072,0.0034452905034302317,-0.0034452905034302317
179.073,0.0478182025159084,0.0478182025159084
179.074,0.08925779692918656,0.08925779692918656
179.07500000000002,0.11147181352268043,0.11147181352268043
179.07600000000002,0.11171224167118177,0.11171224167118177
179.077,0.09402080245217914,0.09402080245217914
179.078,0.06727354010443243,0.06727354010443243
179.079,0.04190508864996989,0.04190508864996989
179.08,0.026432400315220317,0.026432400315220317
179.08100000000002,0.02487657364634499,0.02487657364634499
179.08200000000002,0.03582342804795613,0.03582342804795613
179.083,0.05330255145341556,0.05330255145341556
179.084,0.06908702465884908,0.06908702465884908
179.085,0.07559976826451376,0.07559976826451376
179.086,0.06847337996822667,0.06847337996822667
179.08700000000002,0.04797199003118324,0.04797199003118324
179.08800000000002,0.018877232611694605,0.018877232611694605
179.089,0.011067596028085158,-0.011067596028085158
179.09,0.03362423546073301,-0.03362423546073301
179.091,0.04265087262239098,-0.04265087262239098
179.092,0.03602334707550714,-0.03602334707550714
179.09300000000002,0.016317584431201015,-0.016317584431201015
179.09400000000002,0.009932130468839118,0.009932130468839118
179.095,0.034162534925497035,0.034162534925497035
179.096,0.04832311350886398,0.04832311350886398
179.097,0.047290553441490024,0.047290553441490024
179.098,0.03046457326778751,0.03046457326778751
179.09900000000002,0.0020925637558002474,0.0020925637558002474
179.1,0.029772499793644935,-0.029772499793644935
179.101,0.055401546302713656,-0.055401546302713656
179.102,0.06603478924953665,-0.06603478924953665
179.103,0.056336624440087246,-0.056336624440087246
179.104,0.026006978231024602,-0.026006978231024602
179.10500000000002,0.019881256737846797,0.019881256737846797
179.106,0.07191851319941467,0.07191851319941467
179.107,0.11851711971745749,0.11851711971745749
179.108,0.1486585378029095,0.1486585378029095
179.109,0.15455233575944738,0.15455233575944738
179.11,0.13355816516218622,0.13355816516218622
179.11100000000002,0.08891014936337904,0.08891014936337904
179.112,0.029079687201669646,0.029079687201669646
179.113,0.034059270733023506,-0.034059270733023506
179.114,0.08782076810437989,-0.08782076810437989
179.115,0.12144981011959144,-0.12144981011959144
179.116,0.12840177257328866,-0.12840177257328866
179.11700000000002,0.1076729032646977,-0.1076729032646977
179.118,0.06392958274091654,-0.06392958274091654
179.119,0.006456985944065519,-0.006456985944065519
179.12,0.052805213749336444,0.052805213749336444
179.121,0.10170358266465018,0.10170358266465018
179.122,0.13028776439804868,0.13028776439804868
179.12300000000002,0.13274318513645578,0.13274318513645578
179.124,0.10849990893329875,0.10849990893329875
179.125,0.06234382020128204,0.06234382020128204
179.126,0.0035327671396190308,0.0035327671396190308
179.127,0.05591916276891529,-0.05591916276891529
179.128,0.10349733018944929,-0.10349733018944929
179.12900000000002,0.12860178834120495,-0.12860178834120495
179.13,0.12469996492852631,-0.12469996492852631
179.131,0.09080841877532397,-0.09080841877532397
179.132,0.03197462215359992,-0.03197462215359992
179.133,0.041420023561847596,0.041420023561847596
179.134,0.11550190866267163,0.11550190866267163
179.13500000000002,0.17561169758754192,0.17561169758754192
179.136,0.2093675589715518,0.2093675589715518
179.137,0.20943036286227512,0.20943036286227512
179.138,0.1753081903191167,0.1753081903191167
179.139,0.11369860170946211,0.11369860170946211
179.14,0.037182236705072924,0.037182236705072924
179.14100000000002,0.03851476159783107,-0.03851476159783107
179.142,0.09808315467164086,-0.09808315467164086
179.143,0.13015273361385804,-0.13015273361385804
179.144,0.1298705274886065,-0.1298705274886065
179.145,0.09984565976094861,-0.09984565976094861
179.14600000000002,0.049195486581296355,-0.049195486581296355
179.14700000000002,0.009050746673104682,0.009050746673104682
179.148,0.06146725430907418,0.06146725430907418
179.149,0.09767500547219421,0.09767500547219421
179.15,0.11274472139062275,0.11274472139062275
179.151,0.10790740125994125,0.10790740125994125
179.15200000000002,0.08943843802949969,0.08943843802949969
179.15300000000002,0.06614197919264053,0.06614197919264053
179.154,0.046286499053211694,0.046286499053211694
179.155,0.03499187660606484,0.03499187660606484
179.156,0.03289172249856542,0.03289172249856542
179.157,0.03644904544968841,0.03644904544968841
179.15800000000002,0.039736752099034156,0.039736752099034156
179.15900000000002,0.03699819561935258,0.03699819561935258
179.16,0.025046709403938383,0.025046709403938383
179.161,0.004635822690998825,0.004635822690998825
179.162,0.019690497102529347,-0.019690497102529347
179.163,0.04120679022615081,-0.04120679022615081
179.16400000000002,0.053482240692478644,-0.053482240692478644
179.16500000000002,0.05281065393428175,-0.05281065393428175
179.166,0.03968731048468399,-0.03968731048468399
179.167,0.01876248167630379,-0.01876248167630379
179.168,0.002747505624306701,0.002747505624306701
179.169,0.01764104288042967,0.01764104288042967
179.17000000000002,0.021371815496064483,0.021371815496064483
179.17100000000002,0.013767851941144826,0.013767851941144826
179.172,0.0008422558894822796,-0.0008422558894822796
179.173,0.01520037967280119,-0.01520037967280119
179.174,0.021866549745002573,-0.021866549745002573
179.175,0.016165649965136697,-0.016165649965136697
179.17600000000002,0.0017612561979787333,0.0017612561979787333
179.17700000000002,0.026616615748667805,0.026616615748667805
179.178,0.04954455130726343,0.04954455130726343
179.179,0.06119782650151406,0.06119782650151406
179.18,0.055244643366949564,0.055244643366949564
179.181,0.03107100560370979,0.03107100560370979
179.18200000000002,0.005346317640483544,-0.005346317640483544
179.18300000000002,0.04282812693547533,-0.04282812693547533
179.184,0.06830280278365164,-0.06830280278365164
179.185,0.0710130378140369,-0.0710130378140369
179.186,0.046237823324178695,-0.046237823324178695
179.187,0.002744780057899021,0.002744780057899021
179.18800000000002,0.06518121694198964,0.06518121694198964
179.18900000000002,0.12576846320112134,0.12576846320112134
179.19,0.16909583049587673,0.16909583049587673
179.191,0.1841959020245345,0.1841959020245345
179.192,0.1677428254917146,0.1677428254917146
179.193,0.12487100896790948,0.12487100896790948
179.19400000000002,0.06736941853775646,0.06736941853775646
179.19500000000002,0.009873148575202828,0.009873148575202828
179.196,0.03466915166168538,-0.03466915166168538
179.197,0.058749786206175325,-0.058749786206175325
179.198,0.062062018831996024,-0.062062018831996024
179.199,0.05074593108826353,-0.05074593108826353
179.20000000000002,0.03446873826567276,-0.03446873826567276
179.20100000000002,0.022429358092448948,-0.022429358092448948
179.202,0.019736405562966408,-0.019736405562966408
179.203,0.025463183097430564,-0.025463183097430564
179.204,0.033083506922474304,-0.033083506922474304
179.205,0.033145722730670846,-0.033145722730670846
179.20600000000002,0.01724149407230402,-0.01724149407230402
179.20700000000002,0.018152058858913467,0.018152058858913467
179.208,0.06936693748091138,0.06936693748091138
179.209,0.12568564346401145,0.12568564346401145
179.21,0.1720183363189074,0.1720183363189074
179.211,0.19333938770959813,0.19333938770959813
179.21200000000002,0.17948930189600154,0.17948930189600154
179.21300000000002,0.12878644482269896,0.12878644482269896
179.214,0.04924293435503069,0.04924293435503069
179.215,0.04307462189027422,-0.04307462189027422
179.216,0.12810131253301082,-0.12810131253301082
179.217,0.1870524365102827,-0.1870524365102827
179.21800000000002,0.20735682459309723,-0.20735682459309723
179.21900000000002,0.18580142664456833,-0.18580142664456833
179.22,0.12901487314593107,-0.12901487314593107
179.221,0.05124386821388649,-0.05124386821388649
179.222,0.029811124769879127,0.029811124769879127
179.223,0.09779043300401602,0.09779043300401602
179.22400000000002,0.14167377083183808,0.14167377083183808
179.225,0.15788588717025132,0.15788588717025132
179.226,0.15006068834811748,0.15006068834811748
179.227,0.1267618968246551,0.1267618968246551
179.228,0.09806248352076308,0.09806248352076308
179.229,0.0721647568324757,0.0721647568324757
179.23000000000002,0.05312984929812736,0.05312984929812736
179.231,0.040340425713756733,0.040340425713756733
179.232,0.02970693545860459,0.02970693545860459
179.233,0.016052665577814818,0.016052665577814818
179.234,0.00424178560234878,-0.00424178560234878
179.235,0.03128774325235317,-0.03128774325235317
179.23600000000002,0.061105316069140936,-0.061105316069140936
179.237,0.08659656440275754,-0.08659656440275754
179.238,0.09973828140255625,-0.09973828140255625
179.239,0.09426111537596404,-0.09426111537596404
179.24,0.06793306236722607,-0.06793306236722607
179.241,0.02370002925945025,-0.02370002925945025
179.24200000000002,0.030699466426470368,0.030699466426470368
179.243,0.0845552026035632,0.0845552026035632
179.244,0.12691695568836003,0.12691695568836003
179.245,0.14944483415450582,0.14944483415450582
179.246,0.14855896611834862,0.14855896611834862
179.247,0.1262821096305753,0.1262821096305753
179.24800000000002,0.08955224243348026,0.08955224243348026
179.249,0.04822133840607368,0.04822133840607368
179.25,0.012325061388025693,0.012325061388025693
179.251,0.010596316731169786,-0.010596316731169786
179.252,0.01737427791314139,-0.01737427791314139
179.253,0.009775714843722638,-0.009775714843722638
179.25400000000002,0.00637207644209381,0.00637207644209381
179.255,0.023203542183656944,0.023203542183656944
179.256,0.033360187270020214,0.033360187270020214
179.257,0.03228367712071911,0.03228367712071911
179.258,0.019557714619737432,0.019557714619737432
179.259,0.0011131380315808626,-0.0011131380315808626
179.26000000000002,0.023280287972785474,-0.023280287972785474
179.261,0.04004621459232316,-0.04004621459232316
179.262,0.04653097753992452,-0.04653097753992452
179.263,0.041677092060039445,-0.041677092060039445
179.264,0.028738007220436623,-0.028738007220436623
179.265,0.014199608545375164,-0.014199608545375164
179.26600000000002,0.005400923113494049,-0.005400923113494049
179.267,0.0075902069835278585,-0.0075902069835278585
179.268,0.021417108481315617,-0.021417108481315617
179.269,0.041813932558753764,-0.041813932558753764
179.27,0.058844637329136695,-0.058844637329136695
179.27100000000002,0.06049089935969443,-0.06049089935969443
179.27200000000002,0.036679199512081984,-0.036679199512081984
179.273,0.016653104639893668,0.016653104639893668
179.274,0.09481692722291601,0.09481692722291601
179.275,0.1840493394855136,0.1840493394855136
179.276,0.2640452751682929,0.2640452751682929
179.27700000000002,0.3129090051249106,0.3129090051249106
179.27800000000002,0.3132739866513534,0.3132739866513534
