Czas,AbsSum,Sum
145.99,0.06858883352739831,-0.06858883352739831
145.991,0.0828890976594926,-0.0828890976594926
145.99200000000002,0.07612011874890834,-0.07612011874890834
145.993,0.050909236365205945,-0.050909236365205945
145.994,0.014649357099066562,-0.014649357099066562
145.995,0.02252393514904205,0.02252393514904205
145.996,0.050514027057628974,0.050514027057628974
145.997,0.06203184793892147,0.06203184793892147
145.99800000000002,0.054576396543374095,0.054576396543374095
145.999,0.03107119356228938,0.03107119356228938
146.0,0.0010188312643381048,-0.0010188312643381048
146.001,0.03183269183006032,-0.03183269183006032
146.002,0.05190478370886398,-0.05190478370886398
146.003,0.05480677607411977,-0.05480677607411977
146.00400000000002,0.038896537206134396,-0.038896537206134396
146.005,0.007697683636734842,-0.007697683636734842
146.006,0.03116589113647139,0.03116589113647139
146.007,0.06814187284154949,0.06814187284154949
146.008,0.09438373025777547,0.09438373025777547
146.009,0.10409384053974113,0.10409384053974113
146.01000000000002,0.09593470460746767,0.09593470460746767
146.011,0.0731604746995238,0.0731604746995238
146.012,0.04250040590041748,0.04250040590041748
146.013,0.012175712833729646,0.012175712833729646
146.014,0.01034943183697623,-0.01034943183697623
146.015,0.020249455162519858,-0.020249455162519858
146.01600000000002,0.01636879459128371,-0.01636879459128371
146.017,0.0011960871252622018,-0.0011960871252622018
146.018,0.020116153338710863,0.020116153338710863
146.019,0.04133273378035618,0.04133273378035618
146.02,0.05683850113214328,0.05683850113214328
146.02100000000002,0.06300466444270114,0.06300466444270114
146.02200000000002,0.05890507623104613,0.05890507623104613
146.023,0.04627851842758024,0.04627851842758024
146.024,0.02883981023166826,0.02883981023166826
146.025,0.01118993664320933,0.01118993664320933
146.026,0.0023656943802856656,-0.0023656943802856656
146.02700000000002,0.008809077676685595,-0.008809077676685595
146.02800000000002,0.007017024080061107,-0.007017024080061107
146.029,0.0020992387797096335,0.0020992387797096335
146.03,0.01590243546517489,0.01590243546517489
146.031,0.030688408590540117,0.030688408590540117
146.032,0.04255090898499647,0.04255090898499647
146.03300000000002,0.048282790437385925,0.048282790437385925
146.03400000000002,0.04613869423810879,0.04613869423810879
146.035,0.03629738006909711,0.03629738006909711
146.036,0.020900475831658438,0.020900475831658438
146.037,0.0036158501315013414,0.0036158501315013414
146.038,0.01122317384933813,-0.01122317384933813
146.03900000000002,0.019733648969508133,-0.019733648969508133
146.04000000000002,0.019584343696726347,-0.019584343696726347
146.041,0.010769518454100124,-0.010769518454100124
146.042,0.004213359382282844,0.004213359382282844
146.043,0.020910834477761098,0.020910834477761098
146.044,0.03410682467003712,0.03410682467003712
146.04500000000002,0.03936611599020923,0.03936611599020923
146.04600000000002,0.03447916946200058,0.03447916946200058
146.047,0.020335059618355578,0.020335059618355578
146.048,0.0008816167043073087,0.0008816167043073087
146.049,0.01790337923747176,-0.01790337923747176
146.05,0.029783958750555395,-0.029783958750555395
146.05100000000002,0.030260744283529095,-0.030260744283529095
146.05200000000002,0.01814434034172885,-0.01814434034172885
146.053,0.003852526251796773,0.003852526251796773
146.054,0.02977875084462145,0.02977875084462145
146.055,0.05223365178681583,0.05223365178681583
146.056,0.06475504047148117,0.06475504047148117
146.05700000000002,0.06403524403460148,0.06403524403460148
146.05800000000002,0.051195841332688286,0.051195841332688286
146.059,0.031620521840081794,0.031620521840081794
146.06,0.01330729202991554,0.01330729202991554
146.061,0.0042093641244296265,0.0042093641244296265
146.062,0.009414703543530578,0.009414703543530578
146.06300000000002,0.02912621272829985,0.02912621272829985
146.06400000000002,0.05819128777565785,0.05819128777565785
146.065,0.08744436649860354,0.08744436649860354
146.066,0.10652052743480045,0.10652052743480045
146.067,0.1072744881094585,0.1072744881094585
146.068,0.08668280258614325,0.08668280258614325
146.06900000000002,0.0482204270589488,0.0482204270589488
146.07000000000002,0.0011662175106461614,0.0011662175106461614
146.071,0.04203637147925876,-0.04203637147925876
146.072,0.06957724781388508,-0.06957724781388508
146.073,0.07402799252963099,-0.07402799252963099
146.074,0.054801469883531184,-0.054801469883531184
146.07500000000002,0.01846998509237019,-0.01846998509237019
146.07600000000002,0.023223686996721726,0.023223686996721726
146.077,0.05706346760775438,0.05706346760775438
146.078,0.07258135048040448,0.07258135048040448
146.079,0.06541723073937833,0.06541723073937833
146.08,0.03869169789607829,0.03869169789607829
146.08100000000002,0.0019118587264261855,0.0019118587264261855
146.082,0.03224905815499424,-0.03224905815499424
146.083,0.052236644859114056,-0.052236644859114056
146.084,0.051528999880145476,-0.051528999880145476
146.085,0.030849930355050792,-0.030849930355050792
146.086,0.0020876909521834186,0.0020876909521834186
146.08700000000002,0.03524726119375354,0.03524726119375354
146.088,0.056458499484995484,0.056458499484995484
146.089,0.057713717556509,0.057713717556509
146.09,0.038092605300789506,0.038092605300789506
146.091,0.004281931861968902,0.004281931861968902
146.092,0.031539119735782384,-0.031539119735782384
146.09300000000002,0.055780721143786405,-0.055780721143786405
146.094,0.05813863958536325,-0.05813863958536325
146.095,0.03531424794859894,-0.03531424794859894
146.096,0.007535405440006082,0.007535405440006082
146.097,0.05817125743891127,0.05817125743891127
146.098,0.1010834808618577,0.1010834808618577
146.09900000000002,0.12252748490705345,0.12252748490705345
146.1,0.11513706024759629,0.11513706024759629
146.101,0.08057446071003849,0.08057446071003849
146.102,0.029297258077897403,0.029297258077897403
146.103,0.022545918788245523,-0.022545918788245523
146.104,0.05813939566755022,-0.05813939566755022
146.10500000000002,0.06535554232089746,-0.06535554232089746
146.106,0.0407271536771191,-0.0407271536771191
146.107,0.009247356693828701,0.009247356693828701
146.108,0.06990592110606153,0.06990592110606153
146.109,0.12278623382527143,0.12278623382527143
146.11,0.1511962496428918,0.1511962496428918
146.11100000000002,0.14526381813986466,0.14526381813986466
146.112,0.1049137305687553,0.1049137305687553
146.113,0.039882731369637714,0.039882731369637714
146.114,0.033187105653397886,-0.033187105653397886
146.115,0.09563836778994383,-0.09563836778994383
146.116,0.1321497788060334,-0.1321497788060334
146.11700000000002,0.13493264261976445,-0.13493264261976445
146.118,0.10556431142131151,-0.10556431142131151
146.119,0.05401682511608852,-0.05401682511608852
146.12,0.004690934899326926,0.004690934899326926
146.121,0.055091010188690115,0.055091010188690115
146.122,0.08567092336402427,0.08567092336402427
146.12300000000002,0.09178639108551101,0.09178639108551101
146.124,0.07631901834426791,0.07631901834426791
146.125,0.04805264234762929,0.04805264234762929
146.126,0.018437957934575255,0.018437957934575255
146.127,0.002144476491723224,-0.002144476491723224
146.128,0.007447877294852967,-0.007447877294852967
146.12900000000002,0.003121629301181761,0.003121629301181761
146.13,0.024852291615637512,0.024852291615637512
146.131,0.049659860781900766,0.049659860781900766
146.132,0.06886448953728519,0.06886448953728519
146.133,0.07588238514265888,0.07588238514265888
146.134,0.0680251510747163,0.0680251510747163
146.13500000000002,0.04696249043603751,0.04696249043603751
146.136,0.01786758384483389,0.01786758384483389
146.137,0.012330699313945148,-0.012330699313945148
146.138,0.036943620876083605,-0.036943620876083605
146.139,0.05113612026723813,-0.05113612026723813
146.14,0.05274635664822158,-0.05274635664822158
146.14100000000002,0.04222416459714229,-0.04222416459714229
146.142,0.021908022521432757,-0.021908022521432757
146.143,0.004956407751414593,0.004956407751414593
146.144,0.035044183993180544,0.035044183993180544
146.145,0.06536267693527509,0.06536267693527509
146.14600000000002,0.09321846363727015,0.09321846363727015
146.14700000000002,0.11593126817468269,0.11593126817468269
146.148,0.13060484372364467,0.13060484372364467
146.149,0.13423641294684274,0.13423641294684274
146.15,0.12428522668050435,0.12428522668050435
146.151,0.09959200554609482,0.09959200554609482
146.15200000000002,0.061336015832585744,0.061336015832585744
146.15300000000002,0.013619477138860248,0.013619477138860248
146.154,0.03667396429627501,-0.03667396429627501
146.155,0.08089779909945749,-0.08089779909945749
146.156,0.11040394044503388,-0.11040394044503388
146.157,0.11863815796359334,-0.11863815796359334
146.15800000000002,0.10299343694811736,-0.10299343694811736
146.15900000000002,0.06584842472955688,-0.06584842472955688
146.16,0.014403796595865548,-0.014403796595865548
146.161,0.040749718652048905,0.040749718652048905
146.162,0.08803368985701687,0.08803368985701687
146.163,0.11765832340472082,0.11765832340472082
146.16400000000002,0.12403679595096362,0.12403679595096362
146.16500000000002,0.10716901582314575,0.10716901582314575
146.166,0.07258870902286318,0.07258870902286318
146.167,0.02985536341660655,0.02985536341660655
146.168,0.010022811646945518,-0.010022811646945518
146.169,0.037542780451316315,-0.037542780451316315
146.17000000000002,0.047227706829891414,-0.047227706829891414
146.17100000000002,0.03901375008156527,-0.03901375008156527
146.172,0.01810941316998027,-0.01810941316998027
146.173,0.006641373145904739,0.006641373145904739
146.174,0.02543867686225476,0.02543867686225476
146.175,0.03049375946984023,0.03049375946984023
146.17600000000002,0.018437369925363045,0.018437369925363045
146.17700000000002,0.00853060003235695,-0.00853060003235695
146.178,0.04310153771859415,-0.04310153771859415
146.179,0.07482587921872552,-0.07482587921872552
146.18,0.09305300314553555,-0.09305300314553555
146.181,0.09002106588361347,-0.09002106588361347
146.18200000000002,0.06321780555115863,-0.06321780555115863
146.18300000000002,0.016326936610439824,-0.016326936610439824
146.184,0.04153271885298637,0.04153271885298637
146.185,0.0980865708141696,0.0980865708141696
146.186,0.1410800270373751,0.1410800270373751
146.187,0.16146949416680223,0.16146949416680223
146.18800000000002,0.1557392893034002,0.1557392893034002
146.18900000000002,0.12670264532838127,0.12670264532838127
146.19,0.08257793505654498,0.08257793505654498
146.191,0.03462421815926042,0.03462421815926042
146.192,0.005970847225221898,-0.005970847225221898
146.193,0.031052827278740924,-0.031052827278740924
146.19400000000002,0.03747327751947582,-0.03747327751947582
146.19500000000002,0.027539089165799613,-0.027539089165799613
146.196,0.007861870335816756,-0.007861870335816756
146.197,0.012995646081645829,0.012995646081645829
146.198,0.02733162242777465,0.02733162242777465
146.199,0.030712181392269056,0.030712181392269056
146.20000000000002,0.023252682564578242,0.023252682564578242
146.20100000000002,0.00940944259139842,0.00940944259139842
146.202,0.0036216358348971633,-0.0036216358348971633
146.203,0.008380669898587656,-0.008380669898587656
146.204,0.0002826912749143151,0.0002826912749143151
146.205,0.023332257194062622,0.023332257194062622
146.20600000000002,0.056937746817241175,0.056937746817241175
146.207,0.09332116321675521,0.09332116321675521
146.208,0.12280701187037879,0.12280701187037879
146.209,0.13647675961417205,0.13647675961417205
146.21,0.12866429494669496,0.12866429494669496
146.211,0.09859259434708134,0.09859259434708134
146.21200000000002,0.05071400776879109,0.05071400776879109
146.213,0.00630825912070887,-0.00630825912070887
146.214,0.06166602527774312,-0.06166602527774312
146.215,0.1049420281685226,-0.1049420281685226
146.216,0.12844822750543083,-0.12844822750543083
146.217,0.1287959073506949,-0.1287959073506949
146.21800000000002,0.10736805384102088,-0.10736805384102088
146.219,0.06966970257344951,-0.06966970257344951
146.22,0.023811867189322378,-0.023811867189322378
146.221,0.021432364300485895,0.021432364300485895
146.222,0.05851026516015212,0.05851026516015212
146.223,0.08249666943767942,0.08249666943767942
146.22400000000002,0.09177491861822928,0.09177491861822928
146.225,0.087935500430941,0.087935500430941
146.226,0.07501129796697059,0.07501129796697059
146.227,0.058287992908075736,0.058287992908075736
146.228,0.04297939324012079,0.04297939324012079
146.229,0.033046412573320305,0.033046412573320305
146.23000000000002,0.03038193243075371,0.03038193243075371
146.231,0.03450022271808906,0.03450022271808906
146.232,0.042773293375713894,0.042773293375713894
146.233,0.051157264600036445,0.051157264600036445
146.234,0.05525831229344891,0.05525831229344891
146.235,0.05151194544934867,0.05151194544934867
146.23600000000002,0.03820790571283306,0.03820790571283306
146.237,0.016103538293156472,0.016103538293156472
146.238,0.01155793360252999,-0.01155793360252999
146.239,0.03967558206752986,-0.03967558206752986
146.24,0.062450677616047945,-0.062450677616047945
146.241,0.07480638878187817,-0.07480638878187817
146.24200000000002,0.07369669985641525,-0.07369669985641525
146.243,0.058933971712287536,-0.058933971712287536
146.244,0.03327706090258209,-0.03327706090258209
146.245,0.0017247412035535925,-0.0017247412035535925
146.246,0.029803600887166937,0.029803600887166937
146.247,0.056020961550973025,0.056020961550973025
146.24800000000002,0.07359247816245196,0.07359247816245196
146.249,0.08181457125255975,0.08181457125255975
146.25,0.08244376963601474,0.08244376963601474
146.251,0.07874314875668653,0.07874314875668653
146.252,0.07408118275685771,0.07408118275685771
146.253,0.0705803187413705,0.0705803187413705
146.25400000000002,0.06830747549260718,0.06830747549260718
146.255,0.06531801624909472,0.06531801624909472
146.256,0.05856282399558066,0.05856282399558066
146.257,0.045346297830475946,0.045346297830475946
146.258,0.024796622041821204,0.024796622041821204
146.259,0.0012329946381259838,-0.0012329946381259838
146.26000000000002,0.028244298663166467,-0.028244298663166467
146.261,0.050233254424820406,-0.050233254424820406
146.262,0.06157718795858835,-0.06157718795858835
146.263,0.059050953546785245,-0.059050953546785245
146.264,0.043245371195925086,-0.043245371195925086
146.265,0.0188071441093296,-0.0188071441093296
146.26600000000002,0.0067133116737285725,0.0067133116737285725
146.267,0.025144858338968845,0.025144858338968845
146.268,0.030425486534467305,0.030425486534467305
146.269,0.020876991705496728,0.020876991705496728
146.27,0.0002002242229286466,0.0002002242229286466
146.27100000000002,0.02326536695565684,-0.02326536695565684
146.27200000000002,0.03892239793409891,-0.03892239793409891
146.273,0.03728149695005778,-0.03728149695005778
146.274,0.013279792392027034,-0.013279792392027034
146.275,0.03153870726009167,0.03153870726009167
146.276,0.08877176502933826,0.08877176502933826
146.27700000000002,0.14505061036602251,0.14505061036602251
146.27800000000002,0.18561140008636334,0.18561140008636334
146.279,0.1985233985921775,0.1985233985921775
146.28,0.17829638055130648,0.17829638055130648
146.281,0.1277347834063114,0.1277347834063114
146.282,0.05741690441694125,0.05741690441694125
146.28300000000002,0.017100259282585295,-0.017100259282585295
146.28400000000002,0.0795431145098674,-0.0795431145098674
146.285,0.11737871790224441,-0.11737871790224441
146.286,0.12512588153601856,-0.12512588153601856
146.287,0.10553121230573204,-0.10553121230573204
146.288,0.06828623373899034,-0.06828623373899034
146.28900000000002,0.026728503104692214,-0.026728503104692214
146.29000000000002,0.006406893069707653,0.006406893069707653
146.291,0.022838240994453196,0.022838240994453196
146.292,0.020993714102049754,0.020993714102049754
146.293,0.0060074520056141445,0.0060074520056141445
146.294,0.012473652590513917,-0.012473652590513917
146.29500000000002,0.02389738412585507,-0.02389738412585507
146.29600000000002,0.02060929498313735,-0.02060929498313735
146.297,0.0005905897999751719,-0.0005905897999751719
146.298,0.031762145885615656,0.031762145885615656
146.299,0.06705455740010513,0.06705455740010513
146.3,0.09402497627380924,0.09402497627380924
146.30100000000002,0.10334570260895748,0.10334570260895748
146.30200000000002,0.09084080920754833,0.09084080920754833
146.303,0.059063617709412375,0.059063617709412375
146.304,0.016714818074690774,0.016714818074690774
146.305,0.023918242107337728,-0.023918242107337728
146.306,0.050687330967814304,-0.050687330967814304
146.30700000000002,0.055296094149092534,-0.055296094149092534
146.30800000000002,0.035838438668015504,-0.035838438668015504
146.309,0.002613888558241406,0.002613888558241406
146.31,0.04952845262496841,0.04952845262496841
146.311,0.09203139519949266,0.09203139519949266
146.312,0.11864453555012533,0.11864453555012533
146.31300000000002,0.12249626407364245,0.12249626407364245
146.31400000000002,0.10306409402202088,0.10306409402202088
146.315,0.06599366805166373,0.06599366805166373
146.316,0.02114655880505878,0.02114655880505878
146.317,0.02043880834268408,-0.02043880834268408
146.318,0.049696126994272616,-0.049696126994272616
146.31900000000002,0.061840024427799456,-0.061840024427799456
146.32000000000002,0.057205883713755123,-0.057205883713755123
146.321,0.04048953210040185,-0.04048953210040185
146.322,0.018761917249714544,-0.018761917249714544
146.323,0.0010126567825956556,0.0010126567825956556
146.324,0.014128626049032311,0.014128626049032311
146.32500000000002,0.019308497124243207,0.019308497124243207
146.32600000000002,0.01860622258604483,0.01860622258604483
146.327,0.016195332083578373,0.016195332083578373
146.328,0.016545070084970304,0.016545070084970304
146.329,0.022649498813749558,0.022649498813749558
146.33,0.034905579195601666,0.034905579195601666
146.33100000000002,0.05097533882932548,0.05097533882932548
146.332,0.0666139454240866,0.0666139454240866
146.333,0.07712346091474664,0.07712346091474664
146.334,0.0789063022350116,0.0789063022350116
146.335,0.07059553712402011,0.07059553712402011
146.336,0.053416886088116566,0.053416886088116566
146.33700000000002,0.030717736008450958,0.030717736008450958
146.338,0.0068798791654440805,0.0068798791654440805
146.339,0.013980056350122672,-0.013980056350122672
146.34,0.02908205055131019,-0.02908205055131019
146.341,0.0375011740479948,-0.0375011740479948
146.342,0.04002501589087393,-0.04002501589087393
146.34300000000002,0.03847763466201071,-0.03847763466201071
146.344,0.034809176080541904,-0.034809176080541904
146.345,0.030302845600317263,-0.030302845600317263
146.346,0.025175065001821095,-0.025175065001821095
146.347,0.018676934284549196,-0.018676934284549196
146.348,0.00961223163451752,-0.00961223163451752
146.34900000000002,0.00295973514485115,0.00295973514485115
146.35,0.0191192428499265,0.0191192428499265
146.351,0.03780564876752024,0.03780564876752024
146.352,0.05695215639820983,0.05695215639820983
146.353,0.07396793278673419,0.07396793278673419
146.354,0.08637864749023438,0.08637864749023438
146.35500000000002,0.09239639980219727,0.09239639980219727
146.356,0.09124044812712717,0.09124044812712717
146.357,0.08314505486758739,0.08314505486758739
146.358,0.06911976406757958,0.06911976406757958
146.359,0.0506165512157839,0.0506165512157839
146.36,0.029271609819032207,0.029271609819032207
146.36100000000002,0.006823641717137896,0.006823641717137896
146.362,0.014804029263216445,-0.014804029263216445
146.363,0.0333809489682394,-0.0333809489682394
146.364,0.04638394510323296,-0.04638394510323296
146.365,0.051291420334458326,-0.051291420334458326
146.366,0.04618278779278462,-0.04618278779278462
146.36700000000002,0.03050924255512122,-0.03050924255512122
146.368,0.005766626716449452,-0.005766626716449452
146.369,0.024246967990358526,0.024246967990358526
146.37,0.05383051753666224,0.05383051753666224
146.371,0.07648676722052783,0.07648676722052783
146.372,0.08653519796173614,0.08653519796173614
146.37300000000002,0.0808044025060275,0.0808044025060275
146.374,0.05986561180222716,0.05986561180222716
146.375,0.028330183794303965,0.028330183794303965
146.376,0.006029442367778359,-0.006029442367778359
146.377,0.03422256392020584,-0.03422256392020584
146.378,0.04857113726683848,-0.04857113726683848
146.37900000000002,0.045102885393227043,-0.045102885393227043
146.38,0.025039971864890487,-0.025039971864890487
146.381,0.0051785013687026815,0.0051785013687026815
146.382,0.0354939889520558,0.0354939889520558
146.383,0.05510237595487255,0.05510237595487255
146.384,0.05582637051714667,0.05582637051714667
146.38500000000002,0.034982143749155536,0.034982143749155536
146.386,0.0031937686643747076,-0.0031937686643747076
146.387,0.04812381027600443,-0.04812381027600443
146.388,0.0854705724114787,-0.0854705724114787
146.389,0.10110479891215818,-0.10110479891215818
146.39,0.08538102674443349,-0.08538102674443349
146.39100000000002,0.03647470943362474,-0.03647470943362474
146.392,0.03826798182380875,0.03826798182380875
146.393,0.1234960923696744,0.1234960923696744
146.394,0.1993616296509939,0.1993616296509939
146.395,0.24651216463316605,0.24651216463316605
146.39600000000002,0.2512496557109254,0.2512496557109254
146.39700000000002,0.20943838058648767,0.20943838058648767
146.398,0.12804739273136478,0.12804739273136478
146.399,0.023837323718275183,0.023837323718275183
146.4,0.08052626023504228,-0.08052626023504228
146.401,0.16194829418175005,-0.16194829418175005
146.40200000000002,0.20254940239731345,-0.20254940239731345
146.40300000000002,0.19401615494141167,-0.19401615494141167
146.404,0.13954392219306788,-0.13954392219306788
146.405,0.05290664882261653,-0.05290664882261653
146.406,0.045054358325092414,0.045054358325092414
146.407,0.13157113645515683,0.13157113645515683
146.40800000000002,0.18738165547300922,0.18738165547300922
146.40900000000002,0.20109636839384892,0.20109636839384892
146.41,0.17147436869836352,0.17147436869836352
146.411,0.10716472220893469,0.10716472220893469
146.412,0.024127257838354454,0.024127257838354454
146.413,0.058492790824285934,-0.058492790824285934
146.41400000000002,0.12293831399167277,-0.12293831399167277
146.41500000000002,0.15674106452139924,-0.15674106452139924
146.416,0.15508576838232557,-0.15508576838232557
146.417,0.1212195749193874,-0.1212195749193874
146.418,0.06499273569805553,-0.06499273569805553
146.419,4.755293201597066e-05,-4.755293201597066e-05
146.42000000000002,0.059566007596477455,0.059566007596477455
146.42100000000002,0.10252071861359813,0.10252071861359813
146.422,0.12240974017817763,0.12240974017817763
146.423,0.1186186034803145,0.1186186034803145
146.424,0.09581827486867356,0.09581827486867356
146.425,0.062336447848755805,0.062336447848755805
146.42600000000002,0.027881754794728097,0.027881754794728097
146.42700000000002,0.001186519771042116,0.001186519771042116
146.428,0.011904581187133556,-0.011904581187133556
146.429,0.009516928976972538,-0.009516928976972538
146.43,0.006172923988226664,0.006172923988226664
146.431,0.02979983048220647,0.02979983048220647
146.43200000000002,0.05435554202653692,0.05435554202653692
146.43300000000002,0.07301864043206985,0.07301864043206985
146.434,0.08082412213287893,0.08082412213287893
146.435,0.0757817801900087,0.0757817801900087
146.436,0.05919560086466502,0.05919560086466502
146.437,0.035137609595209396,0.035137609595209396
146.43800000000002,0.009242445165809077,0.009242445165809077
146.43900000000002,0.012839355691240728,-0.012839355691240728
146.44,0.026906878689297642,-0.026906878689297642
146.441,0.031199257586521534,-0.031199257586521534
146.442,0.02665483141834135,-0.02665483141834135
146.443,0.01639409558649385,-0.01639409558649385
146.44400000000002,0.00460684422440405,-0.00460684422440405
146.44500000000002,0.0048034205360185656,0.0048034205360185656
146.446,0.009398361250032572,0.009398361250032572
146.447,0.008850026157505075,0.008850026157505075
146.448,0.004869392858763533,0.004869392858763533
146.449,0.00046665251750699355,0.00046665251750699355
146.45000000000002,0.0011933849639750305,-0.0011933849639750305
146.45100000000002,0.0020507852042648267,0.0020507852042648267
146.452,0.010576132087740664,0.010576132087740664
146.453,0.022829130225487493,0.022829130225487493
146.454,0.0358558878601436,0.0358558878601436
146.455,0.046318521532367374,0.046318521532367374
146.45600000000002,0.051642928083950324,0.051642928083950324
146.457,0.05090032564988811,0.05090032564988811
146.458,0.0451190862714399,0.0451190862714399
146.459,0.036921745524313376,0.036921745524313376
146.46,0.029615606263676764,0.029615606263676764
146.461,0.02605274921831624,0.02605274921831624
146.46200000000002,0.027651566599737665,0.027651566599737665
146.463,0.03391149973605723,0.03391149973605723
146.464,0.042578162568182476,0.042578162568182476
146.465,0.05039019098962294,0.05039019098962294
146.466,0.05414210073304515,0.05414210073304515
146.467,0.051697867376810036,0.051697867376810036
146.46800000000002,0.042620605046761684,0.042620605046761684
146.469,0.028230099671371134,0.028230099671371134
146.47,0.01110629411771602,0.01110629411771602
146.471,0.005752831102712075,-0.005752831102712075
146.472,0.0198041662367181,-0.0198041662367181
146.473,0.02956113767214419,-0.02956113767214419
146.47400000000002,0.03474416628389898,-0.03474416628389898
146.475,0.03598116499538373,-0.03598116499538373
146.476,0.03422908127465196,-0.03422908127465196
146.477,0.030181955996041787,-0.030181955996041787
146.478,0.023917193499555456,-0.023917193499555456
146.479,0.014919544263625961,-0.014919544263625961
146.48000000000002,0.0024594591874490535,-0.0024594591874490535
146.481,0.013844813776255904,0.013844813776255904
146.482,0.03352555760227727,0.03352555760227727
146.483,0.055041038290303934,0.055041038290303934
146.484,0.07593036031822642,0.07593036031822642
146.485,0.09329768471166133,0.09329768471166133
146.48600000000002,0.1044491536360137,0.1044491536360137
146.487,0.10745674456322751,0.10745674456322751
146.488,0.10147005774449647,0.10147005774449647
146.489,0.08671690896097983,0.08671690896097983
146.49,0.06427191323957926,0.06427191323957926
146.491,0.035765663716475604,0.035765663716475604
146.49200000000002,0.003211180960335458,0.003211180960335458
146.493,0.030965960471966314,-0.030965960471966314
146.494,0.06375306024454319,-0.06375306024454319
146.495,0.09142295985513627,-0.09142295985513627
146.496,0.10969510217413714,-0.10969510217413714
146.497,0.11435285840772536,-0.11435285840772536
146.49800000000002,0.10230046474165233,-0.10230046474165233
146.499,0.07281120877774461,-0.07281120877774461
146.5,0.028535440940198664,-0.028535440940198664
146.501,0.024206485396265798,0.024206485396265798
146.502,0.0761777985274017,0.0761777985274017
146.503,0.11704830191532634,0.11704830191532634
146.50400000000002,0.13792745369262183,0.13792745369262183
146.505,0.13392654477363197,0.13392654477363197
146.506,0.10593800216906457,0.10593800216906457
146.507,0.06095540161658075,0.06095540161658075
146.508,0.010646703550467818,0.010646703550467818
146.509,0.03157137499228502,-0.03157137499228502
146.51000000000002,0.05419896130717816,-0.05419896130717816
146.511,0.05099207231818492,-0.05099207231818492
146.512,0.022927704944006533,-0.022927704944006533
146.513,0.021886964667099384,0.021886964667099384
146.514,0.0704302194395614,0.0704302194395614
146.515,0.10850509980030987,0.10850509980030987
146.51600000000002,0.12489495160529795,0.12489495160529795
146.517,0.11466193662923985,0.11466193662923985
146.518,0.08055828711208068,0.08055828711208068
146.519,0.032104457440633505,0.032104457440633505
146.52,0.017371663828834483,-0.017371663828834483
146.52100000000002,0.0547881935088842,-0.0547881935088842
146.52200000000002,0.07116384849977064,-0.07116384849977064
146.523,0.06406228969890015,-0.06406228969890015
146.524,0.03789505374915725,-0.03789505374915725
146.525,0.002070058881871062,-0.002070058881871062
146.526,0.03231604673620425,0.03231604673620425
146.52700000000002,0.05608186632685763,0.05608186632685763
146.52800000000002,0.06464596670404377,0.06464596670404377
146.529,0.05894082379018317,0.05894082379018317
146.53,0.04435515715826699,0.04435515715826699
146.531,0.028207224174706003,0.028207224174706003
146.532,0.016756682000716117,0.016756682000716117
146.53300000000002,0.012890686171119548,0.012890686171119548
146.53400000000002,0.01532929143818551,0.01532929143818551
146.535,0.019596543548271672,0.019596543548271672
146.536,0.020320040292611585,0.020320040292611585
146.537,0.013907902993547383,0.013907902993547383
146.538,0.0005010662370301677,0.0005010662370301677
146.53900000000002,0.01562971663225854,-0.01562971663225854
146.54000000000002,0.02747590420076973,-0.02747590420076973
146.541,0.028004026035054475,-0.028004026035054475
146.542,0.013177807825197285,-0.013177807825197285
146.543,0.01589655762876019,0.01589655762876019
146.544,0.05261625976841944,0.05261625976841944
146.54500000000002,0.08660158527401696,0.08660158527401696
146.54600000000002,0.1070041273709268,0.1070041273709268
146.547,0.10629404336750214,0.10629404336750214
146.548,0.08317340198834011,0.08317340198834011
146.549,0.04350419327530952,0.04350419327530952
146.55,0.0012032120752731856,-0.0012032120752731856
146.55100000000002,0.03734517999179687,-0.03734517999179687
146.55200000000002,0.05368380679144524,-0.05368380679144524
146.553,0.045202859092322245,-0.045202859092322245
146.554,0.015005793856006422,-0.015005793856006422
146.555,0.026466212004357503,0.026466212004357503
146.556,0.06471487103923068,0.06471487103923068
146.55700000000002,0.08591898610621329,0.08591898610621329
146.55800000000002,0.08155564443890007,0.08155564443890007
146.559,0.05134994333496046,0.05134994333496046
146.56,0.003537675116162875,0.003537675116162875
146.561,0.04767818353083597,-0.04767818353083597
146.562,0.08665203553213441,-0.08665203553213441
146.56300000000002,0.10130796762607874,-0.10130796762607874
146.56400000000002,0.0869838409870255,-0.0869838409870255
146.565,0.04784893078657926,-0.04784893078657926
146.566,0.004543552836807407,0.004543552836807407
146.567,0.05504915489588735,0.05504915489588735
146.568,0.08978056269744172,0.08978056269744172
146.56900000000002,0.10040041189160531,0.10040041189160531
146.57000000000002,0.08647419546411528,0.08647419546411528
146.571,0.05518503165383537,0.05518503165383537
146.572,0.018611745328973806,0.018611745328973806
146.573,0.010427708767439037,-0.010427708767439037
146.574,0.02253362132167236,-0.02253362132167236
146.57500000000002,0.014519463488519624,-0.014519463488519624
146.57600000000002,0.009990642367674107,0.009990642367674107
146.577,0.04221308159615478,0.04221308159615478
146.578,0.07139882395246566,0.07139882395246566
146.579,0.08839543959712515,0.08839543959712515
146.58,0.08836760652631681,0.08836760652631681
146.58100000000002,0.07185305573548617,0.07185305573548617
146.582,0.043975103520334846,0.043975103520334846
146.583,0.01228825585127491,0.01228825585127491
146.584,0.01583699880306555,-0.01583699880306555
146.585,0.035320864707388044,-0.035320864707388044
146.586,0.044303238532922284,-0.044303238532922284
146.58700000000002,0.04375052828838977,-0.04375052828838977
146.588,0.036128253313874814,-0.036128253313874814
146.589,0.023859215114516497,-0.023859215114516497
146.59,0.008297893648809396,-0.008297893648809396
146.591,0.010346629906258231,0.010346629906258231
146.592,0.03217892549824919,0.03217892549824919
146.59300000000002,0.056358974555132946,0.056358974555132946
146.594,0.08012463563971406,0.08012463563971406
146.595,0.09871099739960654,0.09871099739960654
146.596,0.10640783760827466,0.10640783760827466
146.597,0.09848778427524896,0.09848778427524896
146.598,0.0733053420954688,0.0733053420954688
146.59900000000002,0.03369683611211305,0.03369683611211305
146.6,0.013009516107508556,-0.013009516107508556
146.601,0.056586004393109235,-0.056586004393109235
146.602,0.08670811884672724,-0.08670811884672724
146.603,0.09607528880044514,-0.09607528880044514
146.604,0.08276397636528354,-0.08276397636528354
146.60500000000002,0.050933405546784716,-0.050933405546784716
146.606,0.009553005999053954,-0.009553005999053954
146.607,0.03047797186950474,0.03047797186950474
146.608,0.05985083510856737,0.05985083510856737
146.609,0.07377471647391043,0.07377471647391043
146.61,0.07325695357862494,0.07325695357862494
146.61100000000002,0.06425714548315753,0.06425714548315753
146.612,0.05500612295554208,0.05500612295554208
146.613,0.05246932775714952,0.05246932775714952
146.614,0.05928218119047024,0.05928218119047024
146.615,0.07235234887297981,0.07235234887297981
146.616,0.08374258394354372,0.08374258394354372
146.61700000000002,0.08361647371572811,0.08361647371572811
146.618,0.06424466975670651,0.06424466975670651
146.619,0.023620382952040275,0.023620382952040275
146.62,0.03270375291780003,-0.03270375291780003
146.621,0.09237406242996704,-0.09237406242996704
146.622,0.13951465478315805,-0.13951465478315805
146.62300000000002,0.15954886529738532,-0.15954886529738532
146.624,0.14399222379106613,-0.14399222379106613
146.625,0.09358206132491231,-0.09358206132491231
146.626,0.018612196707928685,-0.018612196707928685
146.627,0.06374954911252906,0.06374954911252906
146.628,0.13437444787460695,0.13437444787460695
146.62900000000002,0.1777678912689915,0.1777678912689915
146.63,0.18654752685041487,0.18654752685041487
146.631,0.16335858971905104,0.16335858971905104
146.632,0.11962063075872509,0.11962063075872509
146.633,0.07154374216130677,0.07154374216130677
146.634,0.03474685816272105,0.03474685816272105
146.63500000000002,0.019254594688745463,0.019254594688745463
146.636,0.0264965029472628,0.0264965029472628
146.637,0.049241734933556325,0.049241734933556325
146.638,0.07441303421606182,0.07441303421606182
146.639,0.08777402613435803,0.08777402613435803
146.64,0.07889077208800077,0.07889077208800077
146.64100000000002,0.04472266288056681,0.04472266288056681
146.642,0.00930040577650193,-0.00930040577650193
146.643,0.07099233976004693,-0.07099233976004693
146.644,0.12526702944578727,-0.12526702944578727
146.645,0.15880954706108885,-0.15880954706108885
146.64600000000002,0.16402480918025542,-0.16402480918025542
146.64700000000002,0.14103263987280057,-0.14103263987280057
146.648,0.09717593906602351,-0.09717593906602351
146.649,0.044345698364572916,-0.044345698364572916
146.65,0.004883671820156588,0.004883671820156588
146.651,0.04099466555255815,0.04099466555255815
146.65200000000002,0.059961973928513324,0.059961973928513324
146.65300000000002,0.0637156782775532,0.0637156782775532
146.654,0.0586614180284486,0.0586614180284486
146.655,0.052918856876739584,0.052918856876739584
146.656,0.05330074970066079,0.05330074970066079
146.657,0.06304499160424726,0.06304499160424726
146.65800000000002,0.0809660002133965,0.0809660002133965
146.65900000000002,0.10215670915688269,0.10215670915688269
146.66,0.11984770931763244,0.11984770931763244
146.661,0.1276934004473811,0.1276934004473811
146.662,0.12170194165722159,0.12170194165722159
146.663,0.10124323505272015,0.10124323505272015
146.66400000000002,0.06895020078050007,0.06895020078050007
146.66500000000002,0.029719827987034986,0.029719827987034986
146.666,0.010717691398454576,-0.010717691398454576
146.667,0.04713710809757454,-0.04713710809757454
146.668,0.07567903765617179,-0.07567903765617179
146.669,0.09410405210678685,-0.09410405210678685
146.67000000000002,0.10156461451373278,-0.10156461451373278
146.67100000000002,0.09817265796112706,-0.09817265796112706
146.672,0.08464527818787682,-0.08464527818787682
146.673,0.06218705127573532,-0.06218705127573532
146.674,0.032587492109093175,-0.032587492109093175
146.675,0.0016335552147244137,0.0016335552147244137
146.67600000000002,0.03724336175844667,0.03724336175844667
146.67700000000002,0.07061167210686237,0.07061167210686237
146.678,0.09830322772662026,0.09830322772662026
146.679,0.11776695956425787,0.11776695956425787
146.68,0.12785629322683834,0.12785629322683834
146.681,0.128950287769674,0.128950287769674
146.68200000000002,0.12259276469356717,0.12259276469356717
146.68300000000002,0.11076656941257457,0.11076656941257457
146.684,0.09508634458271925,0.09508634458271925
146.685,0.0762494629811199,0.0762494629811199
146.686,0.05399835204930703,0.05399835204930703
146.687,0.027645087491697362,0.027645087491697362
146.68800000000002,0.0030315411169030693,-0.0030315411169030693
146.68900000000002,0.03688695516433926,-0.03688695516433926
146.69,0.0709216367732658,-0.0709216367732658
146.691,0.10048951969278974,-0.10048951969278974
146.692,0.12024061997350532,-0.12024061997350532
146.693,0.12554909832509997,-0.12554909832509997
146.69400000000002,0.11396803947213296,-0.11396803947213296
146.69500000000002,0.08620329058567655,-0.08620329058567655
146.696,0.04623682052566225,-0.04623682052566225
146.697,0.0005100822041304021,-0.0005100822041304021
146.698,0.04360096393342561,0.04360096393342561
146.699,0.07954377094565124,0.07954377094565124
146.70000000000002,0.10302944840168138,0.10302944840168138
146.70100000000002,0.11272616785444378,0.11272616785444378
146.702,0.11004864515285151,0.11004864515285151
146.703,0.09820629023835048,0.09820629023835048
146.704,0.0809195197164645,0.0809195197164645
146.705,0.06129662761286392,0.06129662761286392
146.70600000000002,0.04125570253432076,0.04125570253432076
146.707,0.02162514395988535,0.02162514395988535
146.708,0.002765596687402505,0.002765596687402505
146.709,0.014656771649130151,-0.014656771649130151
146.71,0.02916559186396117,-0.02916559186396117
146.711,0.03852637215750754,-0.03852637215750754
146.71200000000002,0.04038568394795816,-0.04038568394795816
146.713,0.03325175069538633,-0.03325175069538633
146.714,0.01739302556385358,-0.01739302556385358
146.715,0.004770143171421104,0.004770143171421104
146.716,0.029024355287714076,0.029024355287714076
146.717,0.05042103411902521,0.05042103411902521
146.71800000000002,0.06469127263396812,0.06469127263396812
146.719,0.06950992108511111,0.06950992108511111
146.72,0.06513380796314361,0.06513380796314361
146.721,0.05416464483221528,0.05416464483221528
146.722,0.0405214111525829,0.0405214111525829
146.723,0.02801780497486317,0.02801780497486317
146.72400000000002,0.019100142251050167,0.019100142251050167
146.725,0.014239097126283795,0.014239097126283795
146.726,0.012202105515053185,0.012202105515053185
146.727,0.01106412543232671,0.01106412543232671
146.728,0.009491804831576856,0.009491804831576856
146.729,0.007697360384825824,0.007697360384825824
146.73000000000002,0.007572548858473249,0.007572548858473249
146.731,0.011848411762873434,0.011848411762873434
146.732,0.022557718468124932,0.022557718468124932
146.733,0.03943035360913272,0.03943035360913272
146.734,0.058972175420898054,0.058972175420898054
146.735,0.0747927824404302,0.0747927824404302
146.73600000000002,0.07930272948413575,0.07930272948413575
146.737,0.06635009135021819,0.06635009135021819
146.738,0.033919594806707254,0.033919594806707254
146.739,0.014138038027848188,-0.014138038027848188
146.74,0.06815347194307109,-0.06815347194307109
146.741,0.11471271189271393,-0.11471271189271393
146.74200000000002,0.1402984710349917,-0.1402984710349917
146.743,0.13542995946184044,-0.13542995946184044
146.744,0.09795402154556265,-0.09795402154556265
146.745,0.03432022468345142,-0.03432022468345142
146.746,0.041723853978853365,0.041723853978853365
146.747,0.11274336426205611,0.11274336426205611
146.74800000000002,0.16247256147825295,0.16247256147825295
146.749,0.18040092019327125,0.18040092019327125
146.75,0.16462206022072157,0.16462206022072157
146.751,0.12203166059190385,0.12203166059190385
146.752,0.0658374396435959,0.0658374396435959
146.753,0.011244101845062637,0.011244101845062637
146.75400000000002,0.029217367604004063,-0.029217367604004063
146.755,0.0491512874819956,-0.0491512874819956
146.756,0.04943880868945538,-0.04943880868945538
146.757,0.036792413809127344,-0.036792413809127344
146.758,0.020388135719382916,-0.020388135719382916
146.759,0.007921682664465579,-0.007921682664465579
146.76000000000002,0.002615158652662375,-0.002615158652662375
146.761,0.0023109773249324617,-0.0023109773249324617
146.762,0.0009693016642071672,-0.0009693016642071672
146.763,0.008062342061736727,0.008062342061736727
146.764,0.028357409286450697,0.028357409286450697
146.765,0.0578579573470035,0.0578579573470035
146.76600000000002,0.08863112570107323,0.08863112570107323
146.767,0.10923812608283856,0.10923812608283856
146.768,0.10899082198380428,0.10899082198380428
146.769,0.08256416015895174,0.08256416015895174
146.77,0.033164556260670164,0.033164556260670164
146.77100000000002,0.027145633109332046,-0.027145633109332046
146.77200000000002,0.08041192917088202,-0.08041192917088202
146.773,0.10829619859577955,-0.10829619859577955
146.774,0.09838883285851674,-0.09838883285851674
146.775,0.049150682143920044,-0.049150682143920044
146.776,0.0283710947452942,0.0283710947452942
146.77700000000002,0.11291383698548452,0.11291383698548452
146.77800000000002,0.17896285533627565,0.17896285533627565
146.779,0.2045570154719496,0.2045570154719496
146.78,0.1784672634460216,0.1784672634460216
146.781,0.10436623483460705,0.10436623483460705
146.782,0.0004983751212417342,0.0004983751212417342
146.78300000000002,0.10522224181329798,-0.10522224181329798
146.78400000000002,0.1832780100588547,-0.1832780100588547
146.785,0.21131777223548676,-0.21131777223548676
146.786,0.18090384431067796,-0.18090384431067796
146.787,0.10012304355949886,-0.10012304355949886
146.788,0.008754249679217008,0.008754249679217008
146.78900000000002,0.11582679389879003,0.11582679389879003
146.79000000000002,0.19227929908191865,0.19227929908191865
146.791,0.21857782190764885,0.21857782190764885
146.792,0.1896843714887173,0.1896843714887173
146.793,0.11582861962488011,0.11582861962488011
146.794,0.018799740731191283,0.018799740731191283
146.79500000000002,0.07489858055913423,-0.07489858055913423
146.79600000000002,0.14179364711049602,-0.14179364711049602
146.797,0.1677114270144331,-0.1677114270144331
146.798,0.15080392869759895,-0.15080392869759895
146.799,0.1007052132423858,-0.1007052132423858
146.8,0.03443384278514716,-0.03443384278514716
146.80100000000002,0.02938671698959583,0.02938671698959583
146.80200000000002,0.07604738915106046,0.07604738915106046
146.803,0.09835590374452985,0.09835590374452985
146.804,0.0974571234447259,0.0974571234447259
146.805,0.08099440636454736,0.08099440636454736
146.806,0.05957181930711242,0.05957181930711242
146.80700000000002,0.04289671923012883,0.04289671923012883
146.80800000000002,0.036888438927193734,0.036888438927193734
146.809,0.04252329559291845,0.04252329559291845
146.81,0.056479630855749585,0.056479630855749585
146.811,0.07302320857726996,0.07302320857726996
146.812,0.08624661241981735,0.08624661241981735
146.81300000000002,0.09182600471525282,0.09182600471525282
146.81400000000002,0.08781320698220552,0.08781320698220552
146.815,0.07445928259717527,0.07445928259717527
146.816,0.05345744421525844,0.05345744421525844
146.817,0.02714549298631952,0.02714549298631952
146.818,0.0019161274435969267,-0.0019161274435969267
146.81900000000002,0.030889261682188085,-0.030889261682188085
146.82000000000002,0.05636399664118119,-0.05636399664118119
146.821,0.07425730379509465,-0.07425730379509465
146.822,0.08028372791258764,-0.08028372791258764
146.823,0.07109385838417204,-0.07109385838417204
146.824,0.045785941245258366,-0.045785941245258366
146.82500000000002,0.007181357030977109,-0.007181357030977109
146.82600000000002,0.03782185944681937,0.03782185944681937
146.827,0.07927185592153618,0.07927185592153618
146.828,0.10653613623162017,0.10653613623162017
146.829,0.11144190329213544,0.11144190329213544
146.83,0.09118886570967333,0.09118886570967333
146.83100000000002,0.04995904623108882,0.04995904623108882
146.832,0.001531219249819027,-0.001531219249819027
146.833,0.048650187249067,-0.048650187249067
146.834,0.07700146770629823,-0.07700146770629823
146.835,0.07687373401781405,-0.07687373401781405
146.836,0.046549544106291973,-0.046549544106291973
146.83700000000002,0.006685707542991359,0.006685707542991359
146.838,0.06829564872946947,0.06829564872946947
146.839,0.1205751935631425,0.1205751935631425
146.84,0.14785000921696634,0.14785000921696634
146.841,0.14117950977420968,0.14117950977420968
146.842,0.10107861691919373,0.10107861691919373
146.84300000000002,0.03739724702225122,0.03739724702225122
146.844,0.0335917642480541,-0.0335917642480541
146.845,0.0939535295781937,-0.0939535295781937
146.846,0.12918653025336857,-0.12918653025336857
146.847,0.1320759454220236,-0.1320759454220236
146.848,0.10418562037484125,-0.10418562037484125
146.84900000000002,0.05467785453969476,-0.05467785453969476
146.85,0.0029761210723624476,0.0029761210723624476
146.851,0.05519298860628252,0.05519298860628252
146.852,0.09198243527686878,0.09198243527686878
146.853,0.10905054280440596,0.10905054280440596
146.854,0.10783736409614253,0.10783736409614253
146.85500000000002,0.09377673837840583,0.09377673837840583
146.856,0.0736489430756131,0.0736489430756131
146.857,0.05311015485564363,0.05311015485564363
146.858,0.03527436664760519,0.03527436664760519
146.859,0.020701681236167557,0.020701681236167557
146.86,0.008533900855372423,0.008533900855372423
146.86100000000002,0.0019388367093204906,-0.0019388367093204906
146.862,0.010122101840705944,-0.010122101840705944
146.863,0.01396958487423372,-0.01396958487423372
146.864,0.010940346848961835,-0.010940346848961835
146.865,0.0003851982882507876,0.0003851982882507876
146.866,0.018828345978001426,0.018828345978001426
146.86700000000002,0.04007748058767069,0.04007748058767069
146.868,0.057543591081544276,0.057543591081544276
146.869,0.06447154713997727,0.06447154713997727
146.87,0.056596655126796236,0.056596655126796236
146.871,0.034307011664540976,0.034307011664540976
146.872,0.0033434849499032193,0.0033434849499032193
146.87300000000002,0.02645815588354883,-0.02645815588354883
146.874,0.04416248203349771,-0.04416248203349771
146.875,0.04155008664084625,-0.04155008664084625
146.876,0.016430507826002194,-0.016430507826002194
146.877,0.025811679188708636,0.025811679188708636
146.878,0.0731682353046268,0.0731682353046268
146.87900000000002,0.11034703869043483,0.11034703869043483
146.88,0.12353509563842047,0.12353509563842047
146.881,0.10505634938327502,0.10505634938327502
146.882,0.056341562478712026,0.056341562478712026
146.883,0.011876638362753988,-0.011876638362753988
146.884,0.08233848258049703,-0.08233848258049703
146.88500000000002,0.13620724847420185,-0.13620724847420185
146.886,0.15865474395364987,-0.15865474395364987
146.887,0.14330144700609015,-0.14330144700609015
146.888,0.09408561150498262,-0.09408561150498262
146.889,0.023970213651933414,-0.023970213651933414
146.89,0.049071400560444234,0.049071400560444234
146.89100000000002,0.1074714024993566,0.1074714024993566
146.892,0.1391357611124051,0.1391357611124051
146.893,0.14057538288669735,0.14057538288669735
146.894,0.1171945575536062,0.1171945575536062
146.895,0.08079589488048211,0.08079589488048211
146.89600000000002,0.04527148316307006,0.04527148316307006
146.89700000000002,0.02199845254806876,0.02199845254806876
146.898,0.01646935390646731,0.01646935390646731
146.899,0.027180762287644544,0.027180762287644544
146.9,0.0469739960012876,0.0469739960012876
146.901,0.06617158602718831,0.06617158602718831
146.90200000000002,0.07627916156538062,0.07627916156538062
146.90300000000002,0.07291212818935056,0.07291212818935056
146.904,0.05697513649317676,0.05697513649317676
146.905,0.033814037643941974,0.033814037643941974
146.906,0.010810384307063048,0.010810384307063048
146.907,0.005575953465245975,-0.005575953465245975
146.90800000000002,0.012173139440129654,-0.012173139440129654
146.90900000000002,0.010020659275862487,-0.010020659275862487
146.91,0.0035885637050693253,-0.0035885637050693253
146.911,0.0013101396811006083,0.0013101396811006083
146.912,3.9505678398832345e-05,3.9505678398832345e-05
146.913,0.008907001188487196,-0.008907001188487196
146.91400000000002,0.023263275629061386,-0.023263275629061386
146.91500000000002,0.03786760889422014,-0.03786760889422014
146.916,0.04667996962561449,-0.04667996962561449
146.917,0.045133892578497425,-0.045133892578497425
146.918,0.031913528841504224,-0.031913528841504224
146.919,0.009493444194585643,-0.009493444194585643
146.92000000000002,0.01672884601809943,0.01672884601809943
146.92100000000002,0.040335967111866156,0.040335967111866156
146.922,0.056076363087675274,0.056076363087675274
146.923,0.06150067446239227,0.06150067446239227
146.924,0.057462581603068275,0.057462581603068275
146.925,0.04736373348711331,0.04736373348711331
146.92600000000002,0.03552063866970401,0.03552063866970401
146.92700000000002,0.025365075137218307,0.025365075137218307
146.928,0.018229396215186933,0.018229396215186933
146.929,0.013202291693540369,0.013202291693540369
146.93,0.008078582697195413,0.008078582697195413
146.931,0.0009557512090403453,0.0009557512090403453
146.93200000000002,0.008258511788014067,-0.008258511788014067
146.93300000000002,0.017149345859942433,-0.017149345859942433
146.934,0.021312458717391736,-0.021312458717391736
146.935,0.015989965382853577,-0.015989965382853577
146.936,0.001760203309217001,0.001760203309217001
146.937,0.031224451679796372,0.031224451679796372
146.93800000000002,0.0673350381143698,0.0673350381143698
146.93900000000002,0.1015475322635977,0.1015475322635977
146.94,0.12415588562956814,0.12415588562956814
146.941,0.12734828879362636,0.12734828879362636
146.942,0.10797506430228143,0.10797506430228143
146.943,0.06902887430390803,0.06902887430390803
146.94400000000002,0.019231871589731053,0.019231871589731053
146.94500000000002,0.02924613709907209,-0.02924613709907209
146.946,0.06426944560246728,-0.06426944560246728
146.947,0.07731845016502148,-0.07731845016502148
146.948,0.06601283025219085,-0.06601283025219085
146.949,0.034754715428436445,-0.034754715428436445
146.95000000000002,0.006709187099577907,0.006709187099577907
146.95100000000002,0.046320279939909614,0.046320279939909614
146.952,0.07333338292731972,0.07333338292731972
146.953,0.08136408992844091,0.08136408992844091
146.954,0.0699187782236812,0.0699187782236812
146.955,0.044009212751184634,0.044009212751184634
146.95600000000002,0.012108575265176169,0.012108575265176169
146.957,0.016757434845816932,-0.016757434845816932
146.958,0.03575503646772904,-0.03575503646772904
146.959,0.04192820599897629,-0.04192820599897629
146.96,0.03637277109569559,-0.03637277109569559
146.961,0.023019325432368398,-0.023019325432368398
146.96200000000002,0.006637391556879146,-0.006637391556879146
146.963,0.009093137870837653,0.009093137870837653
146.964,0.022696306209113892,0.022696306209113892
146.965,0.03483264561645316,0.03483264561645316
146.966,0.047186373394530134,0.047186373394530134
146.967,0.06087325879386296,0.06087325879386296
146.96800000000002,0.07512499300155606,0.07512499300155606
146.969,0.08688554649729552,0.08688554649729552
146.97,0.09157473333790467,0.09157473333790467
146.971,0.08478440791358843,0.08478440791358843
146.972,0.06426591191367326,0.06426591191367326
146.973,0.03140469957500147,0.03140469957500147
146.97400000000002,0.008472081145248889,-0.008472081145248889
146.975,0.04719741614808992,-0.04719741614808992
146.976,0.07599514648745431,-0.07599514648745431
146.977,0.08812043800168212,-0.08812043800168212
146.978,0.08100321514615194,-0.08100321514615194
146.979,0.057126970976629,-0.057126970976629
146.98000000000002,0.023297500880650412,-0.023297500880650412
146.981,0.011487170952013237,0.011487170952013237
146.982,0.038862220427209104,0.038862220427209104
146.983,0.053663291440302574,0.053663291440302574
146.984,0.055365711943487605,0.055365711943487605
146.985,0.04791545912126227,0.04791545912126227
146.98600000000002,0.03803056173334274,0.03803056173334274
146.987,0.032582780183810334,0.032582780183810334
146.988,0.035986217679263355,0.035986217679263355
146.989,0.048511822863358534,0.048511822863358534
146.99,0.06611908010758794,0.06611908010758794
146.991,0.08186495498343072,0.08186495498343072
146.99200000000002,0.08840140060527601,0.08840140060527601
146.993,0.08069610000142968,0.08069610000142968
146.994,0.058033946766699485,0.058033946766699485
146.995,0.024601266335932737,0.024601266335932737
146.996,0.011567150684973493,-0.011567150684973493
146.997,0.040951843620295136,-0.040951843620295136
146.99800000000002,0.05546642177877459,-0.05546642177877459
146.999,0.05099729150198962,-0.05099729150198962
147.0,0.02876381747743617,-0.02876381747743617
147.001,0.004919332482401284,0.004919332482401284
147.002,0.04039259360193248,0.04039259360193248
147.003,0.06737135801439642,0.06737135801439642
147.00400000000002,0.0778201308797668,0.0778201308797668
147.005,0.06815355206260754,0.06815355206260754
147.006,0.04017051402115479,0.04017051402115479
147.007,0.0005183726405955102,0.0005183726405955102
147.008,0.04109689376639647,-0.04109689376639647
147.009,0.07441618605072664,-0.07441618605072664
147.01000000000002,0.09116533847999675,-0.09116533847999675
147.011,0.0869945565938729,-0.0869945565938729
147.012,0.06239603495812285,-0.06239603495812285
147.013,0.02246236884454622,-0.02246236884454622
147.014,0.02437332736603115,0.02437332736603115
147.015,0.06826957082181728,0.06826957082181728
147.01600000000002,0.10013430885418306,0.10013430885418306
147.017,0.1135630593842718,0.1135630593842718
147.018,0.10619071900952326,0.10619071900952326
147.019,0.08021565838857136,0.08021565838857136
147.02,0.04200203103738298,0.04200203103738298
147.02100000000002,0.0008204240354530157,0.0008204240354530157
147.02200000000002,0.0330622590602182,-0.0330622590602182
147.023,0.05059940788619688,-0.05059940788619688
147.024,0.04605061650011644,-0.04605061650011644
147.025,0.018477333896174453,-0.018477333896174453
147.026,0.027736729128389648,0.027736729128389648
147.02700000000002,0.0835462225430239,0.0835462225430239
147.02800000000002,0.13703107905110645,0.13703107905110645
147.029,0.17596961476704553,0.17596961476704553
147.03,0.19062545974159106,0.19062545974159106
147.031,0.17607326903874432,0.17607326903874432
147.032,0.13346223696254578,0.13346223696254578
147.03300000000002,0.06986421223988981,0.06986421223988981
147.03400000000002,0.0032843704090947945,-0.0032843704090947945
147.035,0.07276155153962882,-0.07276155153962882
147.036,0.126497825665697,-0.126497825665697
147.037,0.1561202386128442,-0.1561202386128442
147.038,0.15847604595637432,-0.15847604595637432
147.03900000000002,0.13581447545829617,-0.13581447545829617
147.04000000000002,0.09469301418072873,-0.09469301418072873
147.041,0.04402277334559035,-0.04402277334559035
147.042,0.007131665052434233,0.007131665052434233
147.043,0.051384895493095106,0.051384895493095106
147.044,0.08407431841990154,0.08407431841990154
147.04500000000002,0.10339629373650783,0.10339629373650783
147.04600000000002,0.10981912873719568,0.10981912873719568
147.047,0.10515483801297854,0.10515483801297854
147.048,0.09170404401221388,0.09170404401221388
147.049,0.07176073346518397,0.07176073346518397
147.05,0.04754148906120714,0.04754148906120714
147.05100000000002,0.021385799280521978,0.021385799280521978
147.05200000000002,0.004048339769279763,-0.004048339769279763
147.053,0.025847999450932524,-0.025847999450932524
147.054,0.04127172304723947,-0.04127172304723947
147.055,0.04843223149886655,-0.04843223149886655
147.056,0.04695624564984202,-0.04695624564984202
147.05700000000002,0.03829018978622489,-0.03829018978622489
147.05800000000002,0.025422616978772905,-0.025422616978772905
147.059,0.012018033399179284,-0.012018033399179284
147.06,0.0012145115656256866,-0.0012145115656256866
147.061,0.005480494708073325,0.005480494708073325
147.062,0.008742065619137263,0.008742065619137263
147.06300000000002,0.011142142324599646,0.011142142324599646
147.06400000000002,0.01604815568885387,0.01604815568885387
147.065,0.02606205102247139,0.02606205102247139
147.066,0.041584225324615254,0.041584225324615254
147.067,0.06010695354789508,0.06010695354789508
147.068,0.07662436297315889,0.07662436297315889
147.06900000000002,0.08515245667644211,0.08515245667644211
147.07000000000002,0.08091860966034292,0.08091860966034292
147.071,0.062468321222833634,0.062468321222833634
147.072,0.032877920614133194,0.032877920614133194
147.073,0.0004991685048301164,-0.0004991685048301164
147.074,0.027850575030759606,-0.027850575030759606
147.07500000000002,0.039830222778244995,-0.039830222778244995
147.07600000000002,0.030692999080606742,-0.030692999080606742
147.077,0.0005834405223881234,-0.0005834405223881234
147.078,0.04387536909354539,0.04387536909354539
147.079,0.09103277167896517,0.09103277167896517
147.08,0.12737652682311262,0.12737652682311262
147.08100000000002,0.14149565002583686,0.14149565002583686
147.082,0.12760872915569665,0.12760872915569665
147.083,0.08751325094289286,0.08751325094289286
147.084,0.030284361530986015,0.030284361530986015
147.085,0.03023743333101947,-0.03023743333101947
147.086,0.07941483530867899,-0.07941483530867899
147.08700000000002,0.10600538247037072,-0.10600538247037072
147.088,0.10526615912911019,-0.10526615912911019
147.089,0.08001651577965341,-0.08001651577965341
147.09,0.039373349091188836,-0.039373349091188836
147.091,0.004367354110747845,0.004367354110747845
147.092,0.039636706428282764,0.039636706428282764
147.09300000000002,0.058994488718936644,0.058994488718936644
147.094,0.06094610739397499,0.06094610739397499
147.095,0.04966732261207629,0.04966732261207629
147.096,0.0328591054340337,0.0328591054340337
147.097,0.018587543023454556,0.018587543023454556
147.098,0.012280677101946802,0.012280677101946802
147.09900000000002,0.014950463272515258,0.014950463272515258
147.1,0.0232279023219355,0.0232279023219355
147.101,0.031119682703474094,0.031119682703474094
147.102,0.032761374736412385,0.032761374736412385
147.103,0.025082666044379476,0.025082666044379476
147.104,0.009342143115985246,0.009342143115985246
147.10500000000002,0.009084241402587123,-0.009084241402587123
147.106,0.022620961446405796,-0.022620961446405796
147.107,0.024429798124822377,-0.024429798124822377
147.108,0.011276025657071753,-0.011276025657071753
147.109,0.01477493205371494,0.01477493205371494
147.11,0.04653587690014782,0.04653587690014782
147.11100000000002,0.07379627637301933,0.07379627637301933
147.112,0.08669028059080763,0.08669028059080763
147.113,0.0792005829314344,0.0792005829314344
147.114,0.0515687604934465,0.0515687604934465
147.115,0.010715951274929303,0.010715951274929303
147.116,0.031568359135242696,-0.031568359135242696
147.11700000000002,0.06215776640929482,-0.06215776640929482
147.118,0.07073231081758824,-0.07073231081758824
147.119,0.05319145761834543,-0.05319145761834543
147.12,0.013205726115215088,-0.013205726115215088
147.121,0.03863503662264178,0.03863503662264178
147.122,0.08784700271675905,0.08784700271675905
147.12300000000002,0.12032242264364856,0.12032242264364856
147.124,0.12651834981412824,0.12651834981412824
147.125,0.10427000851671986,0.10427000851671986
147.126,0.05937995434566923,0.05937995434566923
147.127,0.003841312540219244,0.003841312540219244
147.128,0.04771087876215918,-0.04771087876215918
147.12900000000002,0.08219834708660734,-0.08219834708660734
147.13,0.09166827728819205,-0.09166827728819205
147.131,0.07520014402364184,-0.07520014402364184
147.132,0.03867721544507963,-0.03867721544507963
147.133,0.0073738420169908725,0.0073738420169908725
147.134,0.05109708208511554,0.05109708208511554
147.13500000000002,0.08270051096328146,0.08270051096328146
147.136,0.09691226659778374,0.09691226659778374
147.137,0.0938545116908609,0.0938545116908609
147.138,0.07823290097845104,0.07823290097845104
147.139,0.05726859910039295,0.05726859910039295
147.14,0.03814708487445784,0.03814708487445784
147.14100000000002,0.02582759075004115,0.02582759075004115
147.142,0.0218514742834921,0.0218514742834921
147.143,0.02439939951714143,0.02439939951714143
147.144,0.029420139565912384,0.029420139565912384
147.145,0.032331785506686916,0.032331785506686916
147.14600000000002,0.029674167858730893,0.029674167858730893
147.14700000000002,0.020187952034527612,0.020187952034527612
147.148,0.005053969661038327,0.005053969661038327
147.149,0.012660422972624041,-0.012660422972624041
147.15,0.02904683894803206,-0.02904683894803206
147.151,0.04047779684361197,-0.04047779684361197
147.15200000000002,0.04443809234390994,-0.04443809234390994
147.15300000000002,0.03987119956515961,-0.03987119956515961
147.154,0.027062968247751007,-0.027062968247751007
147.155,0.007257001989445455,-0.007257001989445455
147.156,0.017739601895529367,0.017739601895529367
147.157,0.045760699241470526,0.045760699241470526
147.15800000000002,0.07424402962242649,0.07424402962242649
147.15900000000002,0.1000675848022965,0.1000675848022965
147.16,0.11948423667385533,0.11948423667385533
147.161,0.12838067754734972,0.12838067754734972
147.162,0.12297160731548429,0.12297160731548429
147.163,0.1008484737128863,0.1008484737128863
147.16400000000002,0.062106946277815656,0.062106946277815656
147.16500000000002,0.01015812105694014,0.01015812105694014
147.166,0.0481583498340169,-0.0481583498340169
147.167,0.10338366094159268,-0.10338366094159268
147.168,0.14513396516169008,-0.14513396516169008
147.169,0.16435312799434487,-0.16435312799434487
147.17000000000002,0.15557750791549163,-0.15557750791549163
147.17100000000002,0.11859105553079641,-0.11859105553079641
147.172,0.05895520715803548,-0.05895520715803548
147.173,0.012833728738911976,0.012833728738911976
147.174,0.083446931098069,0.083446931098069
147.175,0.1396216489228923,0.1396216489228923
147.17600000000002,0.1711533038721269,0.1711533038721269
147.17700000000002,0.17322372223598004,0.17322372223598004
147.178,0.14745940084670273,0.14745940084670273
147.179,0.10143397655650288,0.10143397655650288
147.18,0.046732711044448205,0.046732711044448205
147.181,0.0039263719005602216,-0.0039263719005602216
147.18200000000002,0.03977376224426443,-0.03977376224426443
147.18300000000002,0.05448339749796027,-0.05448339749796027
147.184,0.04745617143665648,-0.04745617143665648
147.185,0.02359652237729115,-0.02359652237729115
147.186,0.008309219205380414,0.008309219205380414
147.187,0.03813665038458103,0.03813665038458103
147.18800000000002,0.0571826954424528,0.0571826954424528
147.18900000000002,0.06040113626633503,0.06040113626633503
147.19,0.047544248938325984,0.047544248938325984
147.191,0.022959993046857363,0.022959993046857363
147.192,0.005829797407761239,-0.005829797407761239
147.193,0.030319571698502967,-0.030319571698502967
147.19400000000002,0.04334336332445665,-0.04334336332445665
147.19500000000002,0.04089857553570442,-0.04089857553570442
147.196,0.023017581282765875,-0.023017581282765875
147.197,0.006469569785874096,0.006469569785874096
147.198,0.041119353604897935,0.041119353604897935
147.199,0.07359799320236915,0.07359799320236915
147.20000000000002,0.09743078842112673,0.09743078842112673
147.20100000000002,0.10832082891912598,0.10832082891912598
147.202,0.10476580837133698,0.10476580837133698
147.203,0.08794491389040848,0.08794491389040848
147.204,0.061063576545986153,0.061063576545986153
147.205,0.02846293757005358,0.02846293757005358
147.20600000000002,0.005206595678769688,-0.005206595678769688
147.207,0.03556367012910211,-0.03556367012910211
147.208,0.05880695779543621,-0.05880695779543621
147.209,0.07187922936773405,-0.07187922936773405
147.21,0.07265838653761503,-0.07265838653761503
147.211,0.060293486264594076,-0.060293486264594076
147.21200000000002,0.035664198597132324,-0.035664198597132324
147.213,0.0017838323874217465,-0.0017838323874217465
147.214,0.03613159749850525,0.03613159749850525
147.215,0.07118186781697267,0.07118186781697267
147.216,0.09598195480987282,0.09598195480987282
147.217,0.10438193233221682,0.10438193233221682
147.21800000000002,0.09328937685452132,0.09328937685452132
147.219,0.06402092566668305,0.06402092566668305
147.22,0.022638418658829984,0.022638418658829984
147.221,0.021039419440455398,-0.021039419440455398
147.222,0.055669634808418356,-0.055669634808418356
147.223,0.07135716719782503,-0.07135716719782503
147.22400000000002,0.06254790526483589,-0.06254790526483589
147.225,0.029946120497040374,-0.029946120497040374
147.226,0.019227847383156416,0.019227847383156416
147.227,0.07286260856471993,0.07286260856471993
147.228,0.11710899532679253,0.11710899532679253
147.229,0.14019808160199387,0.14019808160199387
147.23000000000002,0.13579594560041341,0.13579594560041341
147.231,0.10485298144674404,0.10485298144674404
147.232,0.055335240143615794,0.055335240143615794
147.233,0.00012498013100059602,-0.00012498013100059602
147.234,0.047957847967774914,-0.047957847967774914
147.235,0.07760498692290985,-0.07760498692290985
147.23600000000002,0.08444012425399738,-0.08444012425399738
147.237,0.07073434598442518,-0.07073434598442518
147.238,0.04437635354475011,-0.04437635354475011
147.239,0.015804817237497715,-0.015804817237497715
147.24,0.005785235944569145,0.005785235944569145
147.241,0.015647517597442873,0.015647517597442873
147.24200000000002,0.014981790814101448,0.014981790814101448
147.243,0.010190583354856564,0.010190583354856564
147.244,0.010146292410996072,0.010146292410996072
147.245,0.022432733078890266,0.022432733078890266
147.246,0.04991630297078009,0.04991630297078009
147.247,0.08892505985756327,0.08892505985756327
147.24800000000002,0.12978248363051703,0.12978248363051703
147.249,0.15962944627995523,0.15962944627995523
147.25,0.1666497809296419,0.1666497809296419
147.251,0.14427883478271175,0.14427883478271175
147.252,0.09391760545057926,0.09391760545057926
147.253,0.025133098696549228,0.025133098696549228
147.25400000000002,0.046844657595603856,-0.046844657595603856
147.255,0.10559393368176107,-0.10559393368176107
147.256,0.13850475047025446,-0.13850475047025446
147.257,0.14065018918644356,-0.14065018918644356
147.258,0.11619897596404749,-0.11619897596404749
147.259,0.0768454714415131,-0.0768454714415131
147.26000000000002,0.037736758143157245,-0.037736758143157245
147.261,0.012240720258335336,-0.012240720258335336
147.262,0.007323347123258328,-0.007323347123258328
147.263,0.0211317685979745,-0.0211317685979745
147.264,0.043656872712989014,-0.043656872712989014
147.265,0.060310974194494715,-0.060310974194494715
147.26600000000002,0.05725030473702253,-0.05725030473702253
147.267,0.02664346601827705,-0.02664346601827705
147.268,0.02994212541573793,0.02994212541573793
147.269,0.10127097045800015,0.10127097045800015
147.27,0.16949648428566522,0.16949648428566522
147.27100000000002,0.21563281950508695,0.21563281950508695
147.27200000000002,0.2256914085602515,0.2256914085602515
147.273,0.19546226967115832,0.19546226967115832
147.274,0.13231883147852952,0.13231883147852952
147.275,0.053369293031332754,0.053369293031332754
147.276,0.019539132598782927,-0.019539132598782927
147.27700000000002,0.0664231020816537,-0.0664231020816537
147.27800000000002,0.07529104529837616,-0.07529104529837616
147.279,0.045844456981949944,-0.045844456981949944
147.28,0.01043592611318056,0.01043592611318056
147.281,0.07385936121446424,0.07385936121446424
147.282,0.12262972917076076,0.12262972917076076
147.28300000000002,0.13956815473303807,0.13956815473303807
147.28400000000002,0.11735591198268547,0.11735591198268547
147.285,0.06068807054852221,0.06068807054852221
147.286,0.015280537336803235,-0.015280537336803235
147.287,0.08964645260734772,-0.08964645260734772
147.288,0.14210449819751536,-0.14210449819751536
147.28900000000002,0.15894070151113748,-0.15894070151113748
147.29000000000002,0.1368506892156035,-0.1368506892156035
147.291,0.0834972149511739,-0.0834972149511739
147.292,0.014768621807220272,-0.014768621807220272
147.293,0.050280574706772274,0.050280574706772274
147.294,0.09515589864267415,0.09515589864267415
147.29500000000002,0.11054078759002617,0.11054078759002617
147.29600000000002,0.09646672990752125,0.09646672990752125
147.297,0.06152679110150716,0.06152679110150716
147.298,0.01956642805709108,0.01956642805709108
147.299,0.014962962744401231,-0.014962962744401231
147.3,0.03146776826924225,-0.03146776826924225
147.30100000000002,0.026135384921742166,-0.026135384921742166
147.30200000000002,0.002534765387206095,-0.002534765387206095
147.303,0.03010879292065649,0.03010879292065649
147.304,0.06024572588515831,0.06024572588515831
147.305,0.07778147325487894,0.07778147325487894
147.306,0.07710137523992455,0.07710137523992455
147.30700000000002,0.05847762585406513,0.05847762585406513
147.30800000000002,0.027573348565839595,0.027573348565839595
147.309,0.006626778568231351,-0.006626778568231351
147.31,0.03467841726844145,-0.03467841726844145
147.311,0.04939041710671355,-0.04939041710671355
147.312,0.04759898685056407,-0.04759898685056407
147.31300000000002,0.03059594308949276,-0.03059594308949276
147.31400000000002,0.003267537213032634,-0.003267537213032634
147.315,0.027614526081200186,0.027614526081200186
147.316,0.0553179712932228,0.0553179712932228
147.317,0.07470082674082068,0.07470082674082068
147.318,0.08302667934262997,0.08302667934262997
147.31900000000002,0.0799923502803519,0.0799923502803519
147.32000000000002,0.06718604784852555,0.06718604784852555
147.321,0.047332183788087345,0.047332183788087345
147.322,0.023652520251208786,0.023652520251208786
147.323,0.0004843479252668592,-0.0004843479252668592
147.324,0.021660166310785156,-0.021660166310785156
147.32500000000002,0.03644674024989758,-0.03644674024989758
147.32600000000002,0.04162774730344809,-0.04162774730344809
147.327,0.03474887678169636,-0.03474887678169636
147.328,0.014950853275489284,-0.014950853275489284
147.329,0.016168462134732886,0.016168462134732886
147.33,0.05404840093173635,0.05404840093173635
147.33100000000002,0.09138777886929761,0.09138777886929761
147.332,0.11929001068693923,0.11929001068693923
147.333,0.12923098403910016,0.12923098403910016
147.334,0.11543011001261427,0.11543011001261427
147.335,0.07697362265132912,0.07697362265132912
147.336,0.018989812476318146,0.018989812476318146
147.33700000000002,0.047650287881425224,-0.047650287881425224
147.338,0.10826524049611408,-0.10826524049611408
147.339,0.14761997592033782,-0.14761997592033782
147.34,0.15376783178964448,-0.15376783178964448
147.341,0.12148067446936572,-0.12148067446936572
147.342,0.054278979601543154,-0.054278979601543154
147.34300000000002,0.03562899441611567,0.03562899441611567
147.344,0.1296678263383142,0.1296678263383142
147.345,0.20703211201437344,0.20703211201437344
147.346,0.24966498858241004,0.24966498858241004
147.347,0.24680900142605222,0.24680900142605222
147.348,0.19790357949306014,0.19790357949306014
147.34900000000002,0.11299108832269233,0.11299108832269233
147.35,0.010434136690866902,0.010434136690866902
147.351,0.0875286384925823,-0.0875286384925823
147.352,0.16025461663206964,-0.16025461663206964
147.353,0.19375263611837223,-0.19375263611837223
147.354,0.18396271597345104,-0.18396271597345104
147.35500000000002,0.13737211793205928,-0.13737211793205928
147.356,0.06881387996640864,-0.06881387996640864
147.357,0.00291378413952903,0.00291378413952903
147.358,0.06034769020794428,0.06034769020794428
147.359,0.09205654814879538,0.09205654814879538
147.36,0.09539192032220178,0.09539192032220178
147.36100000000002,0.07653046223172066,0.07653046223172066
147.362,0.04785734072072412,0.04785734072072412
147.363,0.023544393377335604,0.023544393377335604
147.364,0.014725496430130214,0.014725496430130214
147.365,0.025792305048238484,0.025792305048238484
147.366,0.05298132572229375,0.05298132572229375
147.36700000000002,0.08570034329505849,0.08570034329505849
147.368,0.11016986247363159,0.11016986247363159
147.369,0.11420721622468255,0.11420721622468255
147.37,0.09159780887957769,0.09159780887957769
147.371,0.04460879368415349,0.04460879368415349
147.372,0.016221296672147667,-0.016221296672147667
147.37300000000002,0.075015711542188,-0.075015711542188
147.374,0.11533211466329307,-0.11533211466329307
147.375,0.12528027826732246,-0.12528027826732246
147.376,0.1013529230467961,-0.1013529230467961
147.377,0.049725777248135206,-0.049725777248135206
147.378,0.01542231260469018,0.01542231260469018
147.37900000000002,0.07607027867657723,0.07607027867657723
147.38,0.11570321651023519,0.11570321651023519
147.381,0.12417356745363928,0.12417356745363928
147.382,0.100559043576256,0.100559043576256
147.383,0.05314930765035819,0.05314930765035819
147.384,0.003381026555169142,-0.003381026555169142
147.38500000000002,0.052656557339062604,-0.052656557339062604
147.386,0.08160879167841939,-0.08160879167841939
147.387,0.08420609808340895,-0.08420609808340895
147.388,0.06276345225814939,-0.06276345225814939
147.389,0.026515576455824363,-0.026515576455824363
147.39,0.011950853916542048,0.011950853916542048
147.39100000000002,0.04111971282989946,0.04111971282989946
147.392,0.0542965208595263,0.0542965208595263
147.393,0.05144584543625896,0.05144584543625896
147.394,0.038573340971991055,0.038573340971991055
147.395,0.024979550839856923,0.024979550839856923
147.39600000000002,0.01944621617393749,0.01944621617393749
147.39700000000002,0.026761929831232045,0.026761929831232045
147.398,0.04583845228676564,0.04583845228676564
147.399,0.07007462201366144,0.07007462201366144
147.4,0.08980752638387401,0.08980752638387401
147.401,0.0959423611034611,0.0959423611034611
147.40200000000002,0.08343745972031869,0.08343745972031869
147.40300000000002,0.05338275542407778,0.05338275542407778
147.404,0.012921231915241638,0.012921231915241638
147.405,0.02696307239421758,-0.02696307239421758
147.406,0.0550088316412678,-0.0550088316412678
147.407,0.0633393852994919,-0.0633393852994919
147.40800000000002,0.049949023346845145,-0.049949023346845145
147.40900000000002,0.019173271363890354,-0.019173271363890354
147.41,0.019970504779344367,0.019970504779344367
147.411,0.05693049380968107,0.05693049380968107
147.412,0.0831021749058205,0.0831021749058205
147.413,0.09440355714070803,0.09440355714070803
147.41400000000002,0.09206641443859787,0.09206641443859787
147.41500000000002,0.08144159460754019,0.08144159460754019
147.416,0.06935348004559838,0.06935348004559838
147.417,0.06106581919663645,0.06106581919663645
147.418,0.05804605806914731,0.05804605806914731
147.419,0.05739472355589914,0.05739472355589914
147.42000000000002,0.053161681895436574,0.053161681895436574
147.42100000000002,0.03904322037594321,0.03904322037594321
147.422,0.011414653899927574,0.011414653899927574
147.423,0.028495208107436554,-0.028495208107436554
147.424,0.07418103078085292,-0.07418103078085292
147.425,0.11544195368227728,-0.11544195368227728
147.42600000000002,0.14147346715452558,-0.14147346715452558
147.42700000000002,0.14440205121963046,-0.14440205121963046
147.428,0.12200498197644771,-0.12200498197644771
147.429,0.07862758568993611,-0.07862758568993611
147.43,0.023944370608371623,-0.023944370608371623
147.431,0.030021116848054863,0.030021116848054863
147.43200000000002,0.07258108467356816,0.07258108467356816
147.43300000000002,0.0974896281021953,0.0974896281021953
147.434,0.10440670505750282,0.10440670505750282
147.435,0.09826254686095082,0.09826254686095082
147.436,0.08683431736089986,0.08683431736089986
147.437,0.07749486610641076,0.07749486610641076
147.43800000000002,0.07437982332490156,0.07437982332490156
147.43900000000002,0.07703712897857873,0.07703712897857873
147.44,0.08103983871085596,0.08103983871085596
147.441,0.08027701527338937,0.08027701527338937
147.442,0.0699778912731237,0.0699778912731237
147.443,0.04922397087304886,0.04922397087304886
147.44400000000002,0.021883195228978636,0.021883195228978636
147.44500000000002,0.004498897120501222,-0.004498897120501222
147.446,0.021513614951129578,-0.021513614951129578
147.447,0.023369524425494892,-0.023369524425494892
147.448,0.009670096151946805,-0.009670096151946805
147.449,0.013695097787887578,0.013695097787887578
147.45000000000002,0.036077657493688964,0.036077657493688964
147.45100000000002,0.04565404582419941,0.04565404582419941
147.452,0.03389076760194576,0.03389076760194576
147.453,0.0007086175896718894,-0.0007086175896718894
147.454,0.05103387234638335,-0.05103387234638335
147.455,0.10275157487113373,-0.10275157487113373
147.45600000000002,0.13841098657549022,-0.13841098657549022
147.45700000000002,0.14305756086016352,-0.14305756086016352
147.458,0.10952897954821805,-0.10952897954821805
147.459,0.04160377540828186,-0.04160377540828186
147.46,0.0461995496127765,0.0461995496127765
147.461,0.13230736715190639,0.13230736715190639
147.46200000000002,0.19423784297839375,0.19423784297839375
147.463,0.21533390464916602,0.21533390464916602
147.464,0.18995081813585157,0.18995081813585157
147.465,0.1254091177599137,0.1254091177599137
147.466,0.040028241837994694,0.040028241837994694
147.467,0.04220219700351546,-0.04220219700351546
147.46800000000002,0.09868481323815603,-0.09868481323815603
147.469,0.11483118031511508,-0.11483118031511508
147.47,0.08820217659068585,-0.08820217659068585
147.471,0.028935697329802945,-0.028935697329802945
147.472,0.04359900776603509,0.04359900776603509
147.473,0.10680971848707643,0.10680971848707643
147.47400000000002,0.1416500776603966,0.1416500776603966
147.475,0.13807702856069093,0.13807702856069093
147.476,0.09761022143876641,0.09761022143876641
147.477,0.032366083909881826,0.032366083909881826
147.478,0.03895384880170061,-0.03895384880170061
147.479,0.09674503308045668,-0.09674503308045668
147.48000000000002,0.126063983517555,-0.126063983517555
147.481,0.12045451736641621,-0.12045451736641621
147.482,0.08307134811059358,-0.08307134811059358
147.483,0.02503115985919646,-0.02503115985919646
147.484,0.03824860042436895,0.03824860042436895
147.485,0.09145517071756992,0.09145517071756992
147.48600000000002,0.12320425336910756,0.12320425336910756
147.487,0.12831438366927594,0.12831438366927594
147.488,0.1081695048938549,0.1081695048938549
147.489,0.06942766601023931,0.06942766601023931
147.49,0.021761051405547738,0.021761051405547738
147.491,0.024565621610905808,-0.024565621610905808
147.49200000000002,0.06064199766642697,-0.06064199766642697
147.493,0.08009210672669387,-0.08009210672669387
147.494,0.0795455578852231,-0.0795455578852231
147.495,0.05866969455015092,-0.05866969455015092
147.496,0.020040748984692103,-0.020040748984692103
147.497,0.031028649609325276,0.031028649609325276
147.49800000000002,0.0868060705980589,0.0868060705980589
147.499,0.13784048079635136,0.13784048079635136
147.5,0.1742555242707342,0.1742555242707342
147.501,0.1876256145973132,0.1876256145973132
147.502,0.17310764017157165,0.17310764017157165
147.503,0.1312257718616332,0.1312257718616332
147.50400000000002,0.0686192094699789,0.0686192094699789
147.505,0.0027551472642984853,-0.0027551472642984853
147.506,0.06804388746827117,-0.06804388746827117
147.507,0.11307381077893386,-0.11307381077893386
147.508,0.12814498508891714,-0.12814498508891714
147.509,0.11089472153480207,-0.11089472153480207
147.51000000000002,0.06725444554106619,-0.06725444554106619
147.511,0.010043514749560223,-0.010043514749560223
147.512,0.044529442363378635,0.044529442363378635
147.513,0.08149218344603404,0.08149218344603404
147.514,0.09147483255016353,0.09147483255016353
147.515,0.07344378704900412,0.07344378704900412
147.51600000000002,0.03490045386600227,0.03490045386600227
147.517,0.010570475971388493,-0.010570475971388493
147.518,0.04766399677711397,-0.04766399677711397
147.519,0.0642528572792398,-0.0642528572792398
147.52,0.055245145365357184,-0.055245145365357184
147.52100000000002,0.024142070399135962,-0.024142070399135962
147.52200000000002,0.01822521531341792,0.01822521531341792
147.523,0.05737861738834282,0.05737861738834282
147.524,0.08009224405476512,0.08009224405476512
147.525,0.07888976769542588,0.07888976769542588
147.526,0.05463854479371677,0.05463854479371677
147.52700000000002,0.01635350826047932,0.01635350826047932
147.52800000000002,0.021762002411277792,-0.021762002411277792
147.529,0.04509638891875556,-0.04509638891875556
147.53,0.0436739674527411,-0.0436739674527411
147.531,0.01579487416731995,-0.01579487416731995
147.532,0.030966041514782328,0.030966041514782328
147.53300000000002,0.08180082136410616,0.08180082136410616
147.53400000000002,0.11917530461777326,0.11917530461777326
147.535,0.1284258022657081,0.1284258022657081
147.536,0.10269871159335842,0.10269871159335842
147.537,0.04566102650434223,0.04566102650434223
147.538,0.028925180784190596,-0.028925180784190596
147.53900000000002,0.10072381093384253,-0.10072381093384253
147.54000000000002,0.14846350042309953,-0.14846350042309953
147.541,0.1560734158559931,-0.1560734158559931
147.542,0.11753640501194507,-0.11753640501194507
147.543,0.03904446707603715,-0.03904446707603715
147.544,0.0621870124006032,0.0621870124006032
147.54500000000002,0.1621442061016618,0.1621442061016618
147.54600000000002,0.23613252440696386,0.23613252440696386
147.547,0.2651333180026705,0.2651333180026705
147.548,0.24070630191791653,0.24070630191791653
147.549,0.16716624699181049,0.16716624699181049
147.55,0.06051235162410218,0.06051235162410218
147.55100000000002,0.055549301991860034,-0.055549301991860034
147.55200000000002,0.15540983107160022,-0.15540983107160022
147.553,0.21767808339283623,-0.21767808339283623
147.554,0.2300838305399613,-0.2300838305399613
147.555,0.19199721959350402,-0.19199721959350402
147.556,0.1140428425692741,-0.1140428425692741
147.55700000000002,0.015032363937214965,-0.015032363937214965
147.55800000000002,0.08290510201269297,0.08290510201269297
147.559,0.1597088300253311,0.1597088300253311
147.56,0.20193316740869172,0.20193316740869172
147.561,0.20537076292329326,0.20537076292329326
147.562,0.175199827265353,0.175199827265353
147.56300000000002,0.12375512602089644,0.12375512602089644
147.56400000000002,0.06662892409550025,0.06662892409550025
147.565,0.01821674287780284,0.01821674287780284
147.566,0.012068246183860154,-0.012068246183860154
147.567,0.021905309690493757,-0.021905309690493757
147.568,0.015979389140201472,-0.015979389140201472
147.56900000000002,0.003801679449134121,-0.003801679449134121
147.57000000000002,0.003861839980145998,0.003861839980145998
147.571,0.0011478165743200597,-0.0011478165743200597
147.572,0.021420396962143817,-0.021420396962143817
147.573,0.05284482055031947,-0.05284482055031947
147.574,0.08569830794616629,-0.08569830794616629
147.57500000000002,0.10767276941107218,-0.10767276941107218
147.57600000000002,0.10794513528528371,-0.10794513528528371
147.577,0.08103877658347358,-0.08103877658347358
147.578,0.029234152852171347,-0.029234152852171347
147.579,0.03731844438727072,0.03731844438727072
147.58,0.10295664162632034,0.10295664162632034
147.58100000000002,0.15074784226822713,0.15074784226822713
147.58200000000002,0.16741630160074927,0.16741630160074927
147.583,0.1474865657474127,0.1474865657474127
147.584,0.09534518397525105,0.09534518397525105
147.585,0.02449912681288957,0.02449912681288957
147.586,0.0458710320483835,-0.0458710320483835
147.58700000000002,0.09614649155609811,-0.09614649155609811
147.588,0.11181150740993473,-0.11181150740993473
147.589,0.08768499476879843,-0.08768499476879843
147.59,0.029577605857244005,-0.029577605857244005
147.591,0.04715390813564846,0.04715390813564846
147.592,0.12177888703890738,0.12177888703890738
147.59300000000002,0.1739153138368308,0.1739153138368308
147.594,0.18917236196232312,0.18917236196232312
147.595,0.16311010011793448,0.16311010011793448
147.596,0.1024111144204034,0.1024111144204034
147.597,0.022972179883302912,0.022972179883302912
147.598,0.05449402845720763,-0.05449402845720763
147.59900000000002,0.11006907998476745,-0.11006907998476745
147.6,0.12987448126864787,-0.12987448126864787
147.601,0.10954041919857171,-0.10954041919857171
147.602,0.05504174972703446,-0.05504174972703446
147.603,0.019187627956101183,0.019187627956101183
147.604,0.0942079406879277,0.0942079406879277
147.60500000000002,0.15143258053451225,0.15143258053451225
147.606,0.1770847392336472,0.1770847392336472
147.607,0.16516637991489724,0.16516637991489724
147.608,0.11834630276069547,0.11834630276069547
147.609,0.04676671717983427,0.04676671717983427
147.61,0.034716236019897484,-0.034716236019897484
147.61100000000002,0.11003405858978732,-0.11003405858978732
147.612,0.16527530523604816,-0.16527530523604816
147.613,0.19122346549490643,-0.19122346549490643
147.614,0.18467178516414662,-0.18467178516414662
147.615,0.148453078224819,-0.148453078224819
147.616,0.09038365973666851,-0.09038365973666851
147.61700000000002,0.021468854427577844,-0.021468854427577844
147.618,0.04624196853792273,0.04624196853792273
147.619,0.10179261923681127,0.10179261923681127
147.62,0.13714743347608493,0.13714743347608493
147.621,0.14846227430476744,0.14846227430476744
147.622,0.136608477843849,0.136608477843849
147.62300000000002,0.1068358920108865,0.1068358920108865
147.624,0.06758143571681074,0.06758143571681074
147.625,0.028595493827175522,0.028595493827175522
147.626,0.0012602237963964535,-0.0012602237963964535
147.627,0.016051171695829147,-0.016051171695829147
147.628,0.01412205668729194,-0.01412205668729194
147.62900000000002,0.0016400571502193095,0.0016400571502193095
147.63,0.024768562341543232,0.024768562341543232
147.631,0.047194201471532526,0.047194201471532526
147.632,0.06169800243584489,0.06169800243584489
147.633,0.06411371934347332,0.06411371934347332
147.634,0.054584235073855236,0.054584235073855236
147.63500000000002,0.03743998962070583,0.03743998962070583
147.636,0.019695122263133857,0.019695122263133857
147.637,0.008614941920669583,0.008614941920669583
147.638,0.009140456081456083,0.009140456081456083
147.639,0.0220383204049861,0.0220383204049861
147.64,0.043433737550379714,0.043433737550379714
147.64100000000002,0.06593666804592835,0.06593666804592835
147.642,0.08103231756571816,0.08103231756571816
147.643,0.08195956983469732,0.08195956983469732
147.644,0.06610641390578542,0.06610641390578542
147.645,0.03608756405293412,0.03608756405293412
147.64600000000002,0.0008996517062944687,-0.0008996517062944687
147.64700000000002,0.035261410147123806,-0.035261410147123806
147.648,0.05802040268484554,-0.05802040268484554
147.649,0.06364359415587006,-0.06364359415587006
147.65,0.05172455953194299,-0.05172455953194299
147.651,0.02695021066050085,-0.02695021066050085
147.65200000000002,0.0026224026022045877,0.0026224026022045877
147.65300000000002,0.028360713528128967,0.028360713528128967
147.654,0.04392677405191048,0.04392677405191048
147.655,0.047204113622779875,0.047204113622779875
147.656,0.04060785795241495,0.04060785795241495
147.657,0.029698460875184907,0.029698460875184907
147.65800000000002,0.020648876934107108,0.020648876934107108
147.65900000000002,0.017549445316710433,0.017549445316710433
147.66,0.020609384101583972,0.020609384101583972
147.661,0.025991752429661785,0.025991752429661785
147.662,0.027408215524175494,0.027408215524175494
147.663,0.018918908887077146,0.018918908887077146
147.66400000000002,0.0021174240151391466,-0.0021174240151391466
147.66500000000002,0.033122983654697125,-0.033122983654697125
147.666,0.06627642598424821,-0.06627642598424821
147.667,0.09059246060917692,-0.09059246060917692
147.668,0.09553539008654721,-0.09553539008654721
147.669,0.0749762261599255,-0.0749762261599255
147.67000000000002,0.030074892213551863,-0.030074892213551863
147.67100000000002,0.03006267959603215,0.03006267959603215
147.672,0.09040568385133319,0.09040568385133319
147.673,0.1342475532643237,0.1342475532643237
147.674,0.14842803003310268,0.14842803003310268
147.675,0.12785105404621055,0.12785105404621055
147.67600000000002,0.07774567242941921,0.07774567242941921
147.67700000000002,0.012771261000128264,0.012771261000128264
147.678,0.04694500708142302,-0.04694500708142302
147.679,0.08174710325932899,-0.08174710325932899
147.68,0.07858497481883897,-0.07858497481883897
147.681,0.03542555175213946,-0.03542555175213946
147.68200000000002,0.03750858323457651,0.03750858323457651
147.68300000000002,0.1201772898170208,0.1201772898170208
147.684,0.18821774417906245,0.18821774417906245
147.685,0.21992479045439994,0.21992479045439994
147.686,0.20266740060135535,0.20266740060135535
147.687,0.13683756361244415,0.13683756361244415
147.68800000000002,0.03615115761883492,0.03615115761883492
147.68900000000002,0.07580486878559811,-0.07580486878559811
147.69,0.17178985902945698,-0.17178985902945698
147.691,0.2281180212918087,-0.2281180212918087
147.692,0.23083808185062116,-0.23083808185062116
147.693,0.17921044642598205,-0.17921044642598205
147.69400000000002,0.085622835747457,-0.085622835747457
147.69500000000002,0.02789206336258898,0.02789206336258898
147.696,0.13545088890502033,0.13545088890502033
147.697,0.21377716148622028,0.21377716148622028
147.698,0.24760676860620556,0.24760676860620556
147.699,0.23273588752856056,0.23273588752856056
147.70000000000002,0.17613577311893858,0.17613577311893858
147.70100000000002,0.09337440139619502,0.09337440139619502
147.702,0.004251212476834798,0.004251212476834798
147.703,0.07209774149248893,-0.07209774149248893
147.704,0.12138713916111954,-0.12138713916111954
147.705,0.13676061333029343,-0.13676061333029343
147.70600000000002,0.11937326262734393,-0.11937326262734393
147.70700000000002,0.07712274611459313,-0.07712274611459313
147.708,0.022080664210277545,-0.022080664210277545
147.709,0.03261948998932973,0.03261948998932973
147.71,0.07568867863405027,0.07568867863405027
147.711,0.09980470653982021,0.09980470653982021
147.71200000000002,0.10263013364193663,0.10263013364193663
147.713,0.08667398367234092,0.08667398367234092
147.714,0.05817113405001928,0.05817113405001928
147.715,0.02530938984791309,0.02530938984791309
147.716,0.003783857834064319,-0.003783857834064319
147.717,0.022870943955136003,-0.022870943955136003
147.71800000000002,0.028876770552931696,-0.028876770552931696
147.719,0.02234650469069177,-0.02234650469069177
147.72,0.006998255690929156,-0.006998255690929156
147.721,0.011515251801390791,0.011515251801390791
147.722,0.027321503851606366,0.027321503851606366
147.723,0.036060865345451276,0.036060865345451276
147.72400000000002,0.03614308924960197,0.03614308924960197
147.725,0.029138055343763236,0.029138055343763236
147.726,0.01914608162876874,0.01914608162876874
147.727,0.011302742060354865,0.011302742060354865
147.728,0.009865525378562445,0.009865525378562445
147.729,0.016504478496805808,0.016504478496805808
147.73000000000002,0.029402691561539296,0.029402691561539296
147.731,0.04354924347057243,0.04354924347057243
147.732,0.052232121808769794,0.052232121808769794
147.733,0.04932618729601246,0.04932618729601246
147.734,0.031660656754121996,0.031660656754121996
147.735,0.0006582572293976074,0.0006582572293976074
147.73600000000002,0.037385762968891845,-0.037385762968891845
147.737,0.0726117605508152,-0.0726117605508152
147.738,0.09420639394769381,-0.09420639394769381
147.739,0.09358028861504142,-0.09358028861504142
147.74,0.06714321296661618,-0.06714321296661618
147.741,0.01778128717546701,-0.01778128717546701
147.74200000000002,0.045487747755594166,0.045487747755594166
147.743,0.1096484255385477,0.1096484255385477
147.744,0.16101523216231817,0.16101523216231817
147.745,0.18877692894961418,0.18877692894961418
147.746,0.18770922849704674,0.18770922849704674
147.747,0.15927362661246125,0.15927362661246125
147.74800000000002,0.11083604934298674,0.11083604934298674
147.749,0.053331736852917144,0.053331736852917144
147.75,0.0018265412881546261,-0.0018265412881546261
147.751,0.04560727796367359,-0.04560727796367359
147.752,0.07314039610487166,-0.07314039610487166
147.753,0.08399444551854529,-0.08399444551854529
147.75400000000002,0.08106940048902855,-0.08106940048902855
147.755,0.06869231758714234,-0.06869231758714234
147.756,0.050732051173614456,-0.050732051173614456
147.757,0.02946292835365627,-0.02946292835365627
147.758,0.0055473447169848145,-0.0055473447169848145
147.759,0.02098339952762962,0.02098339952762962
147.76000000000002,0.04930081921871721,0.04930081921871721
147.761,0.07665567248977534,0.07665567248977534
147.762,0.09820202767197794,0.09820202767197794
147.763,0.10802871907235367,0.10802871907235367
147.764,0.1011441814541445,0.1011441814541445
147.765,0.07571461877307661,0.07571461877307661
147.76600000000002,0.034656864560003164,0.034656864560003164
147.767,0.014171209266357176,-0.014171209266357176
147.768,0.059490601128354026,-0.059490601128354026
147.769,0.08953217315779727,-0.08953217315779727
147.77,0.09553108502508101,-0.09553108502508101
147.77100000000002,0.07465313330154644,-0.07465313330154644
147.77200000000002,0.03132142042397301,-0.03132142042397301
147.773,0.023618344494955812,0.023618344494955812
147.774,0.07576294825832774,0.07576294825832774
147.775,0.11123305372047221,0.11123305372047221
147.776,0.12072056968482481,0.12072056968482481
147.77700000000002,0.10222136392942249,0.10222136392942249
147.77800000000002,0.06157024100898534,0.06157024100898534
147.779,0.01059514120360272,0.01059514120360272
147.78,0.03652213058632914,-0.03652213058632914
147.781,0.06751044834283793,-0.06751044834283793
147.782,0.07553713880319779,-0.07553713880319779
147.78300000000002,0.060896445963208756,-0.060896445963208756
147.78400000000002,0.030380209665383018,-0.030380209665383018
147.785,0.005372781113496927,0.005372781113496927
147.786,0.03559117618399843,0.03559117618399843
147.787,0.052868146292118334,0.052868146292118334
147.788,0.05527975007597452,0.05527975007597452
147.78900000000002,0.04647693185580648,0.04647693185580648
147.79000000000002,0.03382615748048923,0.03382615748048923
147.791,0.025349741729534303,0.025349741729534303
147.792,0.02661081946306676,0.02661081946306676
147.793,0.03866683035765739,0.03866683035765739
147.794,0.05779508119981602,0.05779508119981602
147.79500000000002,0.07703171353463434,0.07703171353463434
147.79600000000002,0.08890276979951883,0.08890276979951883
147.797,0.0883018182222215,0.0883018182222215
147.798,0.07443329404358545,0.07443329404358545
147.799,0.05110303950021278,0.05110303950021278
147.8,0.02526187278826386,0.02526187278826386
147.80100000000002,0.0043639325298621134,0.0043639325298621134
147.80200000000002,0.006452647675141199,-0.006452647675141199
147.803,0.00628459534591741,-0.00628459534591741
147.804,0.0012634207997670455,0.0012634207997670455
147.805,0.00958035434120319,0.00958035434120319
147.806,0.011779164777373508,0.011779164777373508
147.80700000000002,0.0036270728730056767,0.0036270728730056767
147.80800000000002,0.014461351607275796,-0.014461351607275796
147.809,0.037189180781893705,-0.037189180781893705
147.81,0.0560861937742142,-0.0560861937742142
147.811,0.06261916059441097,-0.06261916059441097
147.812,0.05160307097569772,-0.05160307097569772
147.81300000000002,0.02363790845344005,-0.02363790845344005
147.81400000000002,0.014418365309861736,0.014418365309861736
147.815,0.05126770554366633,0.05126770554366633
147.816,0.07479256857457917,0.07479256857457917
147.817,0.07630848828453174,0.07630848828453174
147.818,0.053977179127609576,0.053977179127609576
147.81900000000002,0.014112806915123288,0.014112806915123288
147.82000000000002,0.030226676617859494,-0.030226676617859494
147.821,0.06306722893025984,-0.06306722893025984
147.822,0.07062343721501907,-0.07062343721501907
147.823,0.04604304207597343,-0.04604304207597343
147.824,0.00780803273593933,0.00780803273593933
147.82500000000002,0.07854208475917956,0.07854208475917956
147.82600000000002,0.14750885932982993,0.14750885932982993
147.827,0.19519860553299795,0.19519860553299795
147.828,0.20714077586301372,0.20714077586301372
147.829,0.17844031441169617,0.17844031441169617
147.83,0.11548376146898653,0.11548376146898653
147.83100000000002,0.03422173203181256,0.03422173203181256
147.83200000000002,0.044484652649381395,-0.044484652649381395
147.833,0.10102700670070286,-0.10102700670070286
147.834,0.12280590161827543,-0.12280590161827543
147.835,0.10778410983415643,-0.10778410983415643
147.836,0.06473736350705428,-0.06473736350705428
147.83700000000002,0.010152660034333905,-0.010152660034333905
147.838,0.037211048925864354,0.037211048925864354
147.839,0.06234793905550062,0.06234793905550062
147.84,0.05869177284942095,0.05869177284942095
147.841,0.02998478395895887,0.02998478395895887
147.842,0.011232983587137313,-0.011232983587137313
147.84300000000002,0.0479853878957911,-0.0479853878957911
147.844,0.06463279062319793,-0.06463279062319793
147.845,0.052174582230241295,-0.052174582230241295
147.846,0.011368560374046432,-0.011368560374046432
147.847,0.04732898424006615,0.04732898424006615
147.848,0.1069686893441113,0.1069686893441113
147.84900000000002,0.14941668455094836,0.14941668455094836
147.85,0.16106039028663388,0.16106039028663388
147.851,0.13709587939007206,0.13709587939007206
147.852,0.0830530784832817,0.0830530784832817
147.853,0.013109329113091261,0.013109329113091261
147.854,0.0542343927812825,-0.0542343927812825
147.85500000000002,0.1017167759267722,-0.1017167759267722
147.856,0.11835791269637752,-0.11835791269637752
147.857,0.10242304386323442,-0.10242304386323442
147.858,0.06144759395844401,-0.06144759395844401
147.859,0.009416328377253591,-0.009416328377253591
147.86,0.03791074015976004,0.03791074015976004
147.86100000000002,0.0679748824135995,0.0679748824135995
147.862,0.07510181899866941,0.07510181899866941
147.863,0.061765998239009745,0.061765998239009745
147.864,0.037131215947506124,0.037131215947506124
147.865,0.013459140873831155,0.013459140873831155
147.866,0.0016557023842658225,0.0016557023842658225
147.86700000000002,0.007469510055181594,0.007469510055181594
147.868,0.029596581232613994,0.029596581232613994
147.869,0.06027814784958818,0.06027814784958818
147.87,0.08813152480287378,0.08813152480287378
147.871,0.10221095815062653,0.10221095815062653
147.872,0.09589988169453689,0.09589988169453689
147.87300000000002,0.06931321428749238,0.06931321428749238
147.874,0.029405204419618025,0.029405204419618025
147.875,0.012243138194909853,-0.012243138194909853
147.876,0.04320505184119772,-0.04320505184119772
147.877,0.054286896301917964,-0.054286896301917964
147.878,0.04254462933280023,-0.04254462933280023
147.87900000000002,0.012242100122672128,-0.012242100122672128
147.88,0.026551986182991483,0.026551986182991483
147.881,0.06124471139090004,0.06124471139090004
147.882,0.08077552308374658,0.08077552308374658
147.883,0.07910257523955377,0.07910257523955377
147.884,0.05697980667570168,0.05697980667570168
147.88500000000002,0.021471195589742198,0.021471195589742198
147.886,0.01658704214914597,-0.01658704214914597
147.887,0.046280478777557144,-0.046280478777557144
147.888,0.06019514038253604,-0.06019514038253604
147.889,0.056667642120514894,-0.056667642120514894
147.89,0.039964162333611664,-0.039964162333611664
147.89100000000002,0.0183669957241428,-0.0183669957241428
147.892,0.0008734905055178821,-0.0008734905055178821
147.893,0.00630504439768087,0.00630504439768087
147.894,0.0021833989175275015,0.0021833989175275015
147.895,0.008516155398216707,-0.008516155398216707
147.89600000000002,0.017059401205906433,-0.017059401205906433
147.89700000000002,0.01402500188542255,-0.01402500188542255
147.898,0.0068799867761262234,0.0068799867761262234
147.899,0.045863450485840396,0.045863450485840396
147.9,0.096051689618605,0.096051689618605
147.901,0.1449219578061829,0.1449219578061829
147.90200000000002,0.17782226771214948,0.17782226771214948
147.90300000000002,0.18251664952115965,0.18251664952115965
147.904,0.15330781642539915,0.15330781642539915
147.905,0.09337238583251062,0.09337238583251062
147.906,0.014478243071028407,0.014478243071028407
147.907,0.06592831887265294,-0.06592831887265294
147.90800000000002,0.1294394890106454,-0.1294394890106454
147.90900000000002,0.16179418070411666,-0.16179418070411666
147.91,0.15682306601844576,-0.15682306601844576
147.911,0.11802745890447952,-0.11802745890447952
147.912,0.05732306683595079,-0.05732306683595079
147.913,0.008639148675089414,0.008639148675089414
147.91400000000002,0.06341654274238007,0.06341654274238007
147.91500000000002,0.09545052494064432,0.09545052494064432
147.916,0.1010564545228283,0.1010564545228283
147.917,0.0848692621815923,0.0848692621815923
147.918,0.057705637119601194,0.057705637119601194
147.919,0.0326160647772078,0.0326160647772078
147.92000000000002,0.020445928068459907,0.020445928068459907
147.92100000000002,0.02633564677768141,0.02633564677768141
147.922,0.04824094112808419,0.04824094112808419
147.923,0.07787044088342165,0.07787044088342165
147.924,0.10364891285595013,0.10364891285595013
147.925,0.11467797144196812,0.11467797144196812
147.92600000000002,0.10438283134753634,0.10438283134753634
147.92700000000002,0.0726830145530728,0.0726830145530728
147.928,0.026043035127082392,0.026043035127082392
147.929,0.02453595514648821,-0.02453595514648821
147.93,0.06686705759235856,-0.06686705759235856
147.931,0.0911595059603112,-0.0911595059603112
147.93200000000002,0.09270253569111364,-0.09270253569111364
147.93300000000002,0.07287045393079727,-0.07287045393079727
147.934,0.03825005996374198,-0.03825005996374198
147.935,0.0016959203901212305,0.0016959203901212305
147.936,0.03757624890225242,0.03757624890225242
147.937,0.06264577127439441,0.06264577127439441
147.93800000000002,0.0742274836190655,0.0742274836190655
147.93900000000002,0.07365233533094218,0.07365233533094218
147.94,0.06491577776102742,0.06491577776102742
147.941,0.0526721113315749,0.0526721113315749
147.942,0.04036370099448927,0.04036370099448927
147.943,0.029164836125208815,0.029164836125208815
147.94400000000002,0.018066523932451783,0.018066523932451783
147.94500000000002,0.00497613115773099,0.00497613115773099
147.946,0.011679087188815718,-0.011679087188815718
147.947,0.031536795815210183,-0.031536795815210183
147.948,0.05168346191081874,-0.05168346191081874
147.949,0.06713992511227618,-0.06713992511227618
147.95000000000002,0.07233225110455777,-0.07233225110455777
147.95100000000002,0.06305400615561241,-0.06305400615561241
147.952,0.03822486023755256,-0.03822486023755256
147.953,0.0007956350100423171,-0.0007956350100423171
147.954,0.0425756149193901,0.0425756149193901
147.955,0.08304465641656322,0.08304465641656322
147.95600000000002,0.11186795626793433,0.11186795626793433
147.95700000000002,0.12276751010352394,0.12276751010352394
147.958,0.11365585618683993,0.11365585618683993
147.959,0.08720571791851195,0.08720571791851195
147.96,0.05011089530737256,0.05011089530737256
147.961,0.011284570007298322,0.011284570007298322
147.96200000000002,0.02045185462636645,-0.02045185462636645
147.963,0.03851550086912925,-0.03851550086912925
147.964,0.039963836997539026,-0.039963836997539026
147.965,0.025835066748879587,-0.025835066748879587
147.966,0.0004490599298997422,-0.0004490599298997422
147.967,0.03000979357028366,0.03000979357028366
147.96800000000002,0.0591379513101149,0.0591379513101149
147.969,0.08170002456883152,0.08170002456883152
147.97,0.09442784860940301,0.09442784860940301
147.971,0.0961411788471076,0.0961411788471076
147.972,0.08733360451546246,0.08733360451546246
147.973,0.06951563435469232,0.06951563435469232
147.97400000000002,0.044628389983473626,0.044628389983473626
147.975,0.01474318522678919,0.01474318522678919
147.976,0.017906265695492696,-0.017906265695492696
147.977,0.05068088705468843,-0.05068088705468843
147.978,0.08030853742406263,-0.08030853742406263
147.979,0.10290103204246182,-0.10290103204246182
147.98000000000002,0.11435119528365534,-0.11435119528365534
147.981,0.11109188837980344,-0.11109188837980344
147.982,0.09104419709400458,-0.09104419709400458
147.983,0.05448139431171284,-0.05448139431171284
147.984,0.004523276915127106,-0.004523276915127106
147.985,0.05294492452034305,0.05294492452034305
147.98600000000002,0.10999035885809438,0.10999035885809438
147.987,0.15788405190773602,0.15788405190773602
147.988,0.18864614032458182,0.18864614032458182
147.989,0.19657003571402432,0.19657003571402432
147.99,0.17941140830403524,0.17941140830403524
147.991,0.13899625256555503,0.13899625256555503
147.99200000000002,0.08111568970920002,0.08111568970920002
147.993,0.014705832028479193,0.014705832028479193
147.994,0.04956534226360909,-0.04956534226360909
147.995,0.10108216991502417,-0.10108216991502417
147.996,0.13114757280673994,-0.13114757280673994
147.997,0.13461382916324327,-0.13461382916324327
147.99800000000002,0.11097497130580791,-0.11097497130580791
147.999,0.06468089071505057,-0.06468089071505057
148.0,0.004546091484329606,-0.004546091484329606
148.001,0.057718341908025605,0.057718341908025605
148.002,0.10964328742570828,0.10964328742570828
148.003,0.1404392294903527,0.1404392294903527
148.00400000000002,0.14325176424002595,0.14325176424002595
148.005,0.11673833648473808,0.11673833648473808
148.006,0.06557015887563833,0.06557015887563833
148.007,0.0003275055586672293,-0.0003275055586672293
148.008,0.06770532532888252,-0.06770532532888252
148.009,0.12271679456518902,-0.12271679456518902
148.01000000000002,0.1538571506875841,-0.1538571506875841
148.011,0.15445018665076193,-0.15445018665076193
148.012,0.12410166321622373,-0.12410166321622373
148.013,0.06876943141741576,-0.06876943141741576
148.014,0.0005749087447404211,0.0005749087447404211
148.015,0.07038255623547962,0.07038255623547962
148.01600000000002,0.12749265955509514,0.12749265955509514
148.017,0.1619395169604152,0.1619395169604152
148.018,0.16896803436624297,0.16896803436624297
148.019,0.14982775863519238,0.14982775863519238
148.02,0.11121411675683146,0.11121411675683146
148.02100000000002,0.06353981609071013,0.06353981609071013
148.02200000000002,0.01847299207061992,0.01847299207061992
148.023,0.013683453994440264,-0.013683453994440264
148.024,0.026196332774742648,-0.026196332774742648
148.025,0.017239061496419072,-0.017239061496419072
148.026,0.009882091319532549,0.009882091319532549
148.02700000000002,0.047614234524640864,0.047614234524640864
148.02800000000002,0.08593448469362897,0.08593448469362897
148.029,0.11462718333291178,0.11462718333291178
148.03,0.12558364460885807,0.12558364460885807
148.031,0.11464645324735745,0.11464645324735745
148.032,0.08260607459631153,0.08260607459631153
148.03300000000002,0.035117113014744517,0.035117113014744517
148.03400000000002,0.018486018462415932,-0.018486018462415932
148.035,0.0672604996133459,-0.0672604996133459
148.036,0.10118722177749895,-0.10118722177749895
148.037,0.1135942193609274,-0.1135942193609274
148.038,0.10287430676621412,-0.10287430676621412
148.03900000000002,0.073015319015027,-0.073015319015027
148.04000000000002,0.03271580345219616,-0.03271580345219616
148.041,0.006792239154205015,0.006792239154205015
148.042,0.034730497140234684,0.034730497140234684
148.043,0.04381535110388235,0.04381535110388235
148.044,0.03250487043969663,0.03250487043969663
148.04500000000002,0.005745755898860061,0.005745755898860061
148.04600000000002,0.026121719569891177,-0.026121719569891177
148.047,0.05013816882118993,-0.05013816882118993
148.048,0.05450756011891689,-0.05450756011891689
148.049,0.03235741457162833,-0.03235741457162833
148.05,0.015637761369600822,0.015637761369600822
148.05100000000002,0.08064160543383547,0.08064160543383547
148.05200000000002,0.1473963812059429,0.1473963812059429
148.053,0.19799474189606125,0.19799474189606125
148.054,0.2167350250122626,0.2167350250122626
148.055,0.19472882607148945,0.19472882607148945
148.056,0.1329183024274554,0.1329183024274554
148.05700000000002,0.04254702981184377,0.04254702981184377
148.05800000000002,0.0571831090526459,-0.0571831090526459
148.059,0.14373831515894842,-0.14373831515894842
148.06,0.19695854142011882,-0.19695854142011882
148.061,0.20429494226480016,-0.20429494226480016
148.062,0.16412884051437837,-0.16412884051437837
148.06300000000002,0.08624002326232882,-0.08624002326232882
148.06400000000002,0.010716080582042986,0.010716080582042986
148.065,0.10402835478824546,0.10402835478824546
148.066,0.17272049953295698,0.17272049953295698
148.067,0.20273799396631098,0.20273799396631098
148.068,0.19016135072508522,0.19016135072508522
148.06900000000002,0.1416614979224169,0.1416614979224169
148.07000000000002,0.07219988570208047,0.07219988570208047
148.071,0.0007282477167789292,0.0007282477167789292
148.072,0.05485487690294322,-0.05485487690294322
148.073,0.08211316439258243,-0.08211316439258243
148.074,0.0767414837557121,-0.0767414837557121
148.07500000000002,0.0429480748120078,-0.0429480748120078
148.07600000000002,0.008334705130653264,0.008334705130653264
148.077,0.06272960993597199,0.06272960993597199
148.078,0.10618505540003831,0.10618505540003831
148.079,0.12823342529327553,0.12823342529327553
148.08,0.1240039013759755,0.1240039013759755
148.08100000000002,0.09468692340672669,0.09468692340672669
148.08200000000002,0.046589578659504305,0.046589578659504305
148.083,0.010754544308233527,-0.010754544308233527
148.084,0.0668234483069512,-0.0668234483069512
148.085,0.11215091001364508,-0.11215091001364508
148.086,0.1398193065809299,-0.1398193065809299
148.08700000000002,0.14626653706188042,-0.14626653706188042
148.088,0.13145221645681182,-0.13145221645681182
148.089,0.09852062177882037,-0.09852062177882037
148.09,0.05310586223296776,-0.05310586223296776
148.091,0.002388073642027977,-0.002388073642027977
148.092,0.04602087545089173,0.04602087545089173
148.09300000000002,0.08527276312416943,0.08527276312416943
148.094,0.11041688760544033,0.11041688760544033
148.095,0.11926741643437322,0.11926741643437322
148.096,0.1127776587886653,0.1127776587886653
148.097,0.09475482062920837,0.09475482062920837
148.098,0.07089798214480347,0.07089798214480347
148.09900000000002,0.04734420283500618,0.04734420283500618
148.1,0.029092507326857087,0.029092507326857087
148.101,0.01876473216669461,0.01876473216669461
148.102,0.016102692669133667,0.016102692669133667
148.103,0.018391359184072753,0.018391359184072753
148.104,0.021695705346028493,0.021695705346028493
148.10500000000002,0.022506300904493237,0.022506300904493237
148.106,0.019215757701073866,0.019215757701073866
148.107,0.012871286939364568,0.012871286939364568
148.108,0.006877671305921762,0.006877671305921762
148.109,0.005692922582680726,0.005692922582680726
148.11,0.012940724464936437,0.012940724464936437
148.11100000000002,0.029618713606375024,0.029618713606375024
148.112,0.05310497579735496,0.05310497579735496
148.113,0.07742998726239159,0.07742998726239159
148.114,0.09485437182964818,0.09485437182964818
148.115,0.09831646944915029,0.09831646944915029
148.116,0.08395810527765324,0.08395810527765324
148.11700000000002,0.05283979766966729,0.05283979766966729
148.118,0.011170700710805948,0.011170700710805948
148.119,0.031152571757377623,-0.031152571757377623
148.12,0.0633317775919453,-0.0633317775919453
148.121,0.07693205756415866,-0.07693205756415866
148.122,0.06856877059279765,-0.06856877059279765
148.12300000000002,0.041101620838174036,-0.041101620838174036
148.124,0.002885268457593182,-0.002885268457593182
148.125,0.03473800099974156,0.03473800099974156
148.126,0.060923468885401455,0.060923468885401455
148.127,0.06866159238782688,0.06866159238782688
148.128,0.05687283995889292,0.05687283995889292
148.12900000000002,0.030569033882545726,0.030569033882545726
148.13,0.0009631640659933938,-0.0009631640659933938
148.131,0.02733261751432836,-0.02733261751432836
148.132,0.04048535442555856,-0.04048535442555856
148.133,0.03724826043575047,-0.03724826043575047
148.134,0.020124649537852535,-0.020124649537852535
148.13500000000002,0.0038925889771237454,0.0038925889771237454
148.136,0.026027064767652375,0.026027064767652375
148.137,0.03894854392125402,0.03894854392125402
148.138,0.03935389092727082,0.03935389092727082
148.139,0.028971793921875877,0.028971793921875877
148.14,0.01364519651093321,0.01364519651093321
148.14100000000002,0.0008561051953106524,0.0008561051953106524
148.142,0.003359709332880767,-0.003359709332880767
148.143,0.0030791398976770523,0.0030791398976770523
148.144,0.01735797359587954,0.01735797359587954
148.145,0.03280742242059276,0.03280742242059276
148.14600000000002,0.04159821587787693,0.04159821587787693
148.14700000000002,0.03811017061092148,0.03811017061092148
148.148,0.021686423483676,0.021686423483676
148.149,0.0023585562990089404,-0.0023585562990089404
148.15,0.024021783674847197,-0.024021783674847197
148.151,0.031908564732635925,-0.031908564732635925
148.15200000000002,0.017497453412708364,-0.017497453412708364
148.15300000000002,0.02110917326424233,0.02110917326424233
148.154,0.07736288357846988,0.07736288357846988
148.155,0.13721426295571182,0.13721426295571182
148.156,0.1827596483689491,0.1827596483689491
148.157,0.1975885636424246,0.1975885636424246
148.15800000000002,0.17218575297271,0.17218575297271
148.15900000000002,0.10761946465245664,0.10761946465245664
148.16,0.016210447168783615,0.016210447168783615
148.161,0.08120998049808437,-0.08120998049808437
148.162,0.16076854634700277,-0.16076854634700277
148.163,0.20217304207663045,-0.20217304207663045
148.16400000000002,0.1945113687986041,-0.1945113687986041
148.16500000000002,0.13946373428239,-0.13946373428239
148.166,0.050939500145082306,-0.050939500145082306
148.167,0.04876182500116011,0.04876182500116011
148.168,0.13511149146057821,0.13511149146057821
148.169,0.18799409446999316,0.18799409446999316
148.17000000000002,0.1968861116735714,0.1968861116735714
148.17100000000002,0.16312227246265665,0.16312227246265665
148.172,0.0987302899613991,0.0987302899613991
148.173,0.022367816990980227,0.022367816990980227
148.174,0.04626376700837098,-0.04626376700837098
148.175,0.09178296103172234,-0.09178296103172234
148.17600000000002,0.10671690022078784,-0.10671690022078784
148.17700000000002,0.09242916372792442,-0.09242916372792442
148.178,0.05739770989194104,-0.05739770989194104
148.179,0.01367759431684279,-0.01367759431684279
148.18,0.027130407063939987,0.027130407063939987
148.181,0.05707098549312084,0.05707098549312084
148.18200000000002,0.07328053211208019,0.07328053211208019
148.18300000000002,0.07747737026256596,0.07747737026256596
148.184,0.07398523643794741,0.07398523643794741
148.185,0.0672422692693766,0.0672422692693766
148.186,0.05982743496832521,0.05982743496832521
148.187,0.051730674820980704,0.051730674820980704
148.18800000000002,0.04103799925400997,0.04103799925400997
148.18900000000002,0.025617403083432855,0.025617403083432855
148.19,0.0049961268266554,0.0049961268266554
148.191,0.018443667806933628,-0.018443667806933628
148.192,0.039540667310189126,-0.039540667310189126
148.193,0.05177616494828152,-0.05177616494828152
148.19400000000002,0.04956718280419459,-0.04956718280419459
148.19500000000002,0.030581675955400622,-0.030581675955400622
148.196,0.002831456288407752,0.002831456288407752
148.197,0.04372120496324228,0.04372120496324228
148.198,0.08222077419027585,0.08222077419027585
148.199,0.10836195279332883,0.10836195279332883
148.20000000000002,0.115115144058338,0.115115144058338
148.20100000000002,0.10063835669550225,0.10063835669550225
148.202,0.06895725006919218,0.06895725006919218
148.203,0.02881036017128591,0.02881036017128591
148.204,0.008996543917693223,-0.008996543917693223
148.205,0.03488456235564985,-0.03488456235564985
148.20600000000002,0.04338466231453231,-0.04338466231453231
148.20700000000002,0.03468661947477081,-0.03468661947477081
148.208,0.014372635111193688,-0.014372635111193688
148.209,0.008550228688497086,0.008550228688497086
148.21,0.024656144367300348,0.024656144367300348
148.211,0.027161742834379998,0.027161742834379998
148.21200000000002,0.01406652417797849,0.01406652417797849
148.213,0.0112794250955629,-0.0112794250955629
148.214,0.041308014162881324,-0.041308014162881324
148.215,0.06664781677306986,-0.06664781677306986
148.216,0.07901417210561412,-0.07901417210561412
148.217,0.07365643217406093,-0.07365643217406093
148.21800000000002,0.05063197247343898,-0.05063197247343898
148.219,0.014587002724043896,-0.014587002724043896
148.22,0.026788907613031654,0.026788907613031654
148.221,0.06506705435362448,0.06506705435362448
148.222,0.0933848357369651,0.0933848357369651
148.223,0.10806096753448124,0.10806096753448124
148.22400000000002,0.1091115091569359,0.1091115091569359
148.225,0.09964453192398515,0.09964453192398515
148.226,0.08446691353600166,0.08446691353600166
148.227,0.06844618654170187,0.06844618654170187
148.228,0.055177715149616224,0.055177715149616224
148.229,0.04633029722580995,0.04633029722580995
148.23000000000002,0.04176073982617723,0.04176073982617723
148.231,0.040208436913841794,0.040208436913841794
148.232,0.04020202983894383,0.04020202983894383
148.233,0.040785246176475054,0.040785246176475054
148.234,0.04179196884851377,0.04179196884851377
148.235,0.04361293209309047,0.04361293209309047
148.23600000000002,0.04661210923385961,0.04661210923385961
148.237,0.050489251399230106,0.050489251399230106
148.238,0.05389963804566533,0.05389963804566533
148.239,0.05453479733957023,0.05453479733957023
148.24,0.049684961791296,0.049684961791296
148.241,0.037116175033565346,0.037116175033565346
148.24200000000002,0.015970583372109548,0.015970583372109548
148.243,0.01262089747037376,-0.01262089747037376
148.244,0.04543667956296815,-0.04543667956296815
148.245,0.0776371364215338,-0.0776371364215338
148.246,0.10370167843011369,-0.10370167843011369
148.247,0.11858902498983903,-0.11858902498983903
148.24800000000002,0.11882842364115942,-0.11882842364115942
148.249,0.10328561092097788,-0.10328561092097788
148.25,0.07344817004907456,-0.07344817004907456
148.251,0.03320099467041504,-0.03320099467041504
148.252,0.01182661995075307,0.01182661995075307
148.253,0.05519189403321234,0.05519189403321234
148.25400000000002,0.090676238217408,0.090676238217408
148.255,0.11327316131827025,0.11327316131827025
148.256,0.11999930810677228,0.11999930810677228
148.257,0.11042826298832664,0.11042826298832664
148.258,0.08686571431598566,0.08686571431598566
148.259,0.054104399558529304,0.054104399558529304
148.26000000000002,0.01873396897969659,0.01873396897969659
148.261,0.011953197355870304,-0.011953197355870304
148.262,0.03132607942503929,-0.03132607942503929
148.263,0.034815387605304116,-0.034815387605304116
148.264,0.02104607941391723,-0.02104607941391723
148.265,0.007606210985517725,0.007606210985517725
148.26600000000002,0.04525742773668684,0.04525742773668684
148.267,0.08360741788556258,0.08360741788556258
148.268,0.11371314853109338,0.11371314853109338
148.269,0.12806471122382423,0.12806471122382423
148.27,0.12245658727246034,0.12245658727246034
148.27100000000002,0.09714859819980504,0.09714859819980504
148.27200000000002,0.056960160879585775,0.056960160879585775
148.273,0.010208254129530081,0.010208254129530081
148.274,0.033286066521397095,-0.033286066521397095
148.275,0.0646266091315244,-0.0646266091315244
148.276,0.07806665778129118,-0.07806665778129118
148.27700000000002,0.07242305145424188,-0.07242305145424188
148.27800000000002,0.05128266921894753,-0.05128266921894753
148.279,0.021933637127587557,-0.021933637127587557
148.28,0.006690399833947147,0.006690399833947147
148.281,0.026485854770176287,0.026485854770176287
148.282,0.032388643627747404,0.032388643627747404
148.28300000000002,0.023708162819314316,0.023708162819314316
148.28400000000002,0.004226379463553531,0.004226379463553531
148.285,0.018947631297402512,-0.018947631297402512
148.286,0.03742986304570528,-0.03742986304570528
148.287,0.04393696076200404,-0.04393696076200404
148.288,0.03432627087381901,-0.03432627087381901
148.28900000000002,0.008752208921285254,-0.008752208921285254
148.29000000000002,0.028349842210148468,0.028349842210148468
148.291,0.06941198319849251,0.06941198319849251
148.292,0.10567128301285411,0.10567128301285411
148.293,0.12935845639012444,0.12935845639012444
148.294,0.13556141820647816,0.13556141820647816
148.29500000000002,0.12330545348859023,0.12330545348859023
148.29600000000002,0.09562311858604033,0.09562311858604033
148.297,0.05866052071747774,0.05866052071747774
148.298,0.02010571503581149,0.02010571503581149
148.299,0.012630370861957063,-0.012630370861957063
148.3,0.03402813380987102,-0.03402813380987102
148.30100000000002,0.04150934091617642,-0.04150934091617642
148.30200000000002,0.03573458026431098,-0.03573458026431098
148.303,0.020155474019906805,-0.020155474019906805
148.304,1.9680912493047487e-06,1.9680912493047487e-06
148.305,0.019041185570563446,0.019041185570563446
148.306,0.03207761336939097,0.03207761336939097
148.30700000000002,0.03603583160468915,0.03603583160468915
148.30800000000002,0.030189763368467126,0.030189763368467126
148.309,0.01618580040358375,0.01618580040358375
148.31,0.0024074681155946687,-0.0024074681155946687
148.311,0.02090089909511028,-0.02090089909511028
148.312,0.03447025508879609,-0.03447025508879609
148.31300000000002,0.03914412076973095,-0.03914412076973095
148.31400000000002,0.03262522800884149,-0.03262522800884149
