Czas,AbsSum,Sum
264.272,0.004731238171327035,-0.004731238171327035
264.273,0.06528959002795265,0.06528959002795265
264.274,0.12152810745047549,0.12152810745047549
264.275,0.15272297705509907,0.15272297705509907
264.27599999999995,0.154540976126194,0.154540976126194
264.277,0.1305779991680538,0.1305779991680538
264.278,0.09113923822774139,0.09113923822774139
264.279,0.05008953664483373,0.05008953664483373
264.28,0.02066769700787785,0.02066769700787785
264.281,0.011514137472640407,0.011514137472640407
264.282,0.02413770830429507,0.02413770830429507
264.283,0.05262993623091061,0.05262993623091061
264.284,0.0857394766112789,0.0857394766112789
264.285,0.11066203921129181,0.11066203921129181
264.286,0.11732975823825464,0.11732975823825464
264.287,0.10179654687035633,0.10179654687035633
264.28799999999995,0.06758930027394605,0.06758930027394605
264.289,0.02455292290183353,0.02455292290183353
264.29,0.014449564521430647,-0.014449564521430647
264.291,0.037889069482201165,-0.037889069482201165
264.292,0.03950384613381197,-0.03950384613381197
264.293,0.02045801272694181,-0.02045801272694181
264.294,0.011049643911349882,0.011049643911349882
264.295,0.04263973358884643,0.04263973358884643
264.296,0.06212914733697117,0.06212914733697117
264.297,0.061939871759149945,0.061939871759149945
264.298,0.04199817950774398,0.04199817950774398
264.299,0.010062825399628439,0.010062825399628439
264.29999999999995,0.020719608922100896,-0.020719608922100896
264.301,0.03628126332162218,-0.03628126332162218
264.302,0.026649471572284922,-0.026649471572284922
264.303,0.010194997567317454,0.010194997567317454
264.304,0.06698517321933117,0.06698517321933117
264.305,0.1289132144012941,0.1289132144012941
264.306,0.17798529097911486,0.17798529097911486
264.307,0.19863178276736027,0.19863178276736027
264.308,0.18276944029839548,0.18276944029839548
264.309,0.1326563972638053,0.1326563972638053
264.31,0.060576315131674274,0.060576315131674274
264.311,0.0145938032681866,-0.0145938032681866
264.31199999999995,0.07287402418356936,-0.07287402418356936
264.313,0.09901557082036672,-0.09901557082036672
264.314,0.08686942926056673,-0.08686942926056673
264.315,0.04097241076766023,-0.04097241076766023
264.316,0.02505923589835546,0.02505923589835546
264.317,0.0927239200140535,0.0927239200140535
264.318,0.14402656399831648,0.14402656399831648
264.319,0.16637368491973747,0.16637368491973747
264.32,0.15553497076764833,0.15553497076764833
264.321,0.11594366477944007,0.11594366477944007
264.322,0.05850825280911498,0.05850825280911498
264.323,0.003114977396014962,-0.003114977396014962
264.324,0.05644198116630894,-0.05644198116630894
264.325,0.0930218571763205,-0.0930218571763205
264.326,0.10950553930411966,-0.10950553930411966
264.327,0.10691577936339525,-0.10691577936339525
264.328,0.08876604877110517,-0.08876604877110517
264.329,0.059018286546030696,-0.059018286546030696
264.33,0.0207890389661749,-0.0207890389661749
264.331,0.02373380103444056,0.02373380103444056
264.332,0.07231852594565491,0.07231852594565491
264.333,0.12134275385389715,0.12134275385389715
264.334,0.16496783041532592,0.16496783041532592
264.335,0.19553670907332843,0.19553670907332843
264.336,0.20536580457178988,0.20536580457178988
264.337,0.1894416569558901,0.1894416569558901
264.338,0.14801756296444268,0.14801756296444268
264.339,0.0879617879735306,0.0879617879735306
264.34,0.02203009748256557,0.02203009748256557
264.341,0.03406505375466384,-0.03406505375466384
264.342,0.0660795822117245,-0.0660795822117245
264.343,0.06578670809282194,-0.06578670809282194
264.344,0.03406265029412692,-0.03406265029412692
264.345,0.018728877034002833,0.018728877034002833
264.346,0.0754571226471501,0.0754571226471501
264.347,0.11739954268850727,0.11739954268850727
264.348,0.13031156542971378,0.13031156542971378
264.349,0.10939969429455809,0.10939969429455809
264.35,0.06143983543306519,0.06143983543306519
264.351,0.003140002852278112,0.003140002852278112
264.352,0.04393358634565925,-0.04393358634565925
264.353,0.06036741867233619,-0.06036741867233619
264.354,0.03561537249229951,-0.03561537249229951
264.355,0.027830769572654068,0.027830769572654068
264.356,0.11432223787457718,0.11432223787457718
264.357,0.19921670973335703,0.19921670973335703
264.358,0.2561534680305171,0.2561534680305171
264.359,0.2652073887221831,0.2652073887221831
264.36,0.2193310264946564,0.2193310264946564
264.361,0.126977958959962,0.126977958959962
264.362,0.009985105712478681,0.009985105712478681
264.363,0.10270056009620554,-0.10270056009620554
264.364,0.18352582042056953,-0.18352582042056953
264.365,0.21441073710750214,-0.21441073710750214
264.366,0.191873771003768,-0.191873771003768
264.367,0.1276152481444448,-0.1276152481444448
264.368,0.04442660426597689,-0.04442660426597689
264.369,0.031216161000651388,0.031216161000651388
264.37,0.07747573383393203,0.07747573383393203
264.371,0.0837402863680694,0.0837402863680694
264.372,0.053428099605935975,0.053428099605935975
264.373,0.002223703968271762,0.002223703968271762
264.374,0.047551126075233374,-0.047551126075233374
264.375,0.0744999648622614,-0.0744999648622614
264.376,0.0651468055282709,-0.0651468055282709
264.377,0.018123850485502246,-0.018123850485502246
264.378,0.055701714902081534,0.055701714902081534
264.379,0.13704906455199928,0.13704906455199928
264.38,0.2045951809513975,0.2045951809513975
264.381,0.24171797411344786,0.24171797411344786
264.382,0.24140021278914592,0.24140021278914592
264.383,0.20778525904799894,0.20778525904799894
264.384,0.15405212572442673,0.15405212572442673
264.385,0.0975172205695034,0.0975172205695034
264.386,0.053753390640489895,0.053753390640489895
264.387,0.031757680072338035,0.031757680072338035
264.388,0.031739179194116174,0.031739179194116174
264.389,0.04612003760080041,0.04612003760080041
264.39,0.06320043712399048,0.06320043712399048
264.391,0.07203182453605916,0.07203182453605916
264.392,0.06667849135905213,0.06667849135905213
264.393,0.04833572965635069,0.04833572965635069
264.394,0.024593938737137,0.024593938737137
264.395,0.0061904089738833434,0.0061904089738833434
264.396,0.002498742331769721,0.002498742331769721
264.397,0.017453046976390496,0.017453046976390496
264.398,0.04744044325248131,0.04744044325248131
264.399,0.08198717989487214,0.08198717989487214
264.4,0.10706571624497441,0.10706571624497441
264.40099999999995,0.10991437326873887,0.10991437326873887
264.402,0.08371292573071387,0.08371292573071387
264.403,0.030483656570319706,0.030483656570319706
264.404,0.03882565241671987,-0.03882565241671987
264.405,0.10717829899613707,-0.10717829899613707
264.406,0.15633302875777577,-0.15633302875777577
264.407,0.17222878276627418,-0.17222878276627418
264.408,0.14916635858792326,-0.14916635858792326
264.409,0.09148911893565825,-0.09148911893565825
264.41,0.012284720580901243,-0.012284720580901243
264.411,0.07041790175561369,0.07041790175561369
264.412,0.13871445539732385,0.13871445539732385
264.41299999999995,0.17957374243386282,0.17957374243386282
264.414,0.18787104017317358,0.18787104017317358
264.415,0.16692794078615658,0.16692794078615658
264.416,0.12660982335404114,0.12660982335404114
264.417,0.07978809968989964,0.07978809968989964
264.418,0.038413023152331416,0.038413023152331416
264.419,0.010441475089270735,0.010441475089270735
264.42,0.0015439451866501308,-0.0015439451866501308
264.421,0.0001659456996072617,0.0001659456996072617
264.422,0.010334824345698657,0.010334824345698657
264.423,0.023257625475962662,0.023257625475962662
264.424,0.03483405858729638,0.03483405858729638
264.42499999999995,0.04355782658157725,0.04355782658157725
264.426,0.05022954878758412,0.05022954878758412
264.427,0.05671209023920398,0.05671209023920398
264.428,0.06438871670747792,0.06438871670747792
264.429,0.07304145585167388,0.07304145585167388
264.43,0.08063675746347276,0.08063675746347276
264.431,0.08409388105531623,0.08409388105531623
264.432,0.08068794900296772,0.08068794900296772
264.433,0.06947105065806425,0.06947105065806425
264.434,0.05208221806563662,0.05208221806563662
264.435,0.0325596949872744,0.0325596949872744
264.436,0.016167228403712652,0.016167228403712652
264.43699999999995,0.007642357104524766,0.007642357104524766
264.438,0.009514179581603166,0.009514179581603166
264.439,0.021128251089516326,0.021128251089516326
264.44,0.03876101398774656,0.03876101398774656
264.441,0.056803354896876934,0.056803354896876934
264.442,0.06959614073973941,0.06959614073973941
264.443,0.07326048230701754,0.07326048230701754
264.444,0.06687234779527884,0.06687234779527884
264.445,0.052581166333652174,0.052581166333652174
264.446,0.03466913002341654,0.03466913002341654
264.447,0.017940519704154,0.017940519704154
264.448,0.00606936989957596,0.00606936989957596
264.449,0.0005290754866775771,0.0005290754866775771
264.45,0.00048249122344112827,0.00048249122344112827
264.451,0.003621388975509232,0.003621388975509232
264.452,0.007561614366285996,0.007561614366285996
264.453,0.011174972812911355,0.011174972812911355
264.454,0.015261383686824281,0.015261383686824281
264.455,0.022230665053446508,0.022230665053446508
264.456,0.03487293755992238,0.03487293755992238
264.457,0.054691890152724465,0.054691890152724465
264.458,0.08049860806052456,0.08049860806052456
264.459,0.10791909925126064,0.10791909925126064
264.46,0.13015975044914674,0.13015975044914674
264.461,0.1399072137032893,0.1399072137032893
264.462,0.13178359039829712,0.13178359039829712
264.463,0.10450847456873613,0.10450847456873613
264.464,0.061948739895584026,0.061948739895584026
264.465,0.012571038933382406,0.012571038933382406
264.466,0.03265547774626476,-0.03265547774626476
264.467,0.06331146869018833,-0.06331146869018833
264.468,0.0725747187896042,-0.0725747187896042
264.469,0.05925766050201242,-0.05925766050201242
264.47,0.028134257933821294,-0.028134257933821294
264.471,0.011587285591530438,0.011587285591530438
264.472,0.0491672144179085,0.0491672144179085
264.473,0.07566244466939231,0.07566244466939231
264.474,0.08657843828069067,0.08657843828069067
264.475,0.08296853669735027,0.08296853669735027
264.476,0.07063470110443149,0.07063470110443149
264.477,0.057736687980414425,0.057736687980414425
264.478,0.05166562798911456,0.05166562798911456
264.479,0.056289787867187524,0.056289787867187524
264.48,0.07054470530726875,0.07054470530726875
264.481,0.08886230562746733,0.08886230562746733
264.482,0.1032803514585281,0.1032803514585281
264.483,0.10647411017700881,0.10647411017700881
264.484,0.09461845816026582,0.09461845816026582
264.485,0.06904028074711377,0.06904028074711377
264.486,0.036042142764306506,0.036042142764306506
264.487,0.004922413787586288,0.004922413787586288
264.488,0.015141633808926191,-0.015141633808926191
264.489,0.018268995032716395,-0.018268995032716395
264.49,0.003993178198705816,-0.003993178198705816
264.491,0.022437048244950963,0.022437048244950963
264.492,0.0517112932714503,0.0517112932714503
264.493,0.07352632458716002,0.07352632458716002
264.494,0.08003758740007383,0.08003758740007383
264.495,0.06852255422743236,0.06852255422743236
264.496,0.042349227036417414,0.042349227036417414
264.497,0.009918079443405281,0.009918079443405281
264.498,0.018067876286477547,-0.018067876286477547
264.499,0.03208891206261322,-0.03208891206261322
264.5,0.02688927403894259,-0.02688927403894259
264.501,0.0031428070786285733,-0.0031428070786285733
264.502,0.03281695404081009,0.03281695404081009
264.503,0.07106811363532484,0.07106811363532484
264.504,0.10124600305957077,0.10124600305957077
264.505,0.11570467963365849,0.11570467963365849
264.506,0.11167170547245786,0.11167170547245786
264.507,0.09175180517351156,0.09175180517351156
264.508,0.0627139394497207,0.0627139394497207
264.509,0.03306969605828014,0.03306969605828014
264.51,0.010322109084177633,0.010322109084177633
264.511,0.0011852165430461525,-0.0011852165430461525
264.512,0.0011597102303751994,-0.0011597102303751994
264.513,0.007185965040696463,0.007185965040696463
264.514,0.018785058512071018,0.018785058512071018
264.515,0.028783663037105445,0.028783663037105445
264.516,0.03424726711350612,0.03424726711350612
264.517,0.03492950187291055,0.03492950187291055
264.518,0.03291978985791544,0.03291978985791544
264.519,0.03141932310872608,0.03141932310872608
264.52,0.0332031961547552,0.0332031961547552
264.521,0.039402348376491814,0.039402348376491814
264.522,0.04906685206724282,0.04906685206724282
264.523,0.05963153183199199,0.05963153183199199
264.524,0.0680364255441781,0.0680364255441781
264.525,0.07200365135908049,0.07200365135908049
264.52599999999995,0.07093290173133804,0.07093290173133804
264.527,0.06605768284690239,0.06605768284690239
264.528,0.05982405235278643,0.05982405235278643
264.529,0.05477965707929644,0.05477965707929644
264.53,0.05246011808228901,0.05246011808228901
264.531,0.052752368947049266,0.052752368947049266
264.532,0.05400550930542258,0.05400550930542258
264.533,0.05383677391236419,0.05383677391236419
264.534,0.050278165134790775,0.050278165134790775
264.535,0.042755499646492945,0.042755499646492945
264.536,0.03245375420025787,0.03245375420025787
264.537,0.02187979359490133,0.02187979359490133
264.53799999999995,0.013782838121974894,0.013782838121974894
264.539,0.009889193661433815,0.009889193661433815
264.54,0.010021746169861956,0.010021746169861956
264.541,0.01204738800575611,0.01204738800575611
264.542,0.012765365033636566,0.012765365033636566
264.543,0.009441910785710661,0.009441910785710661
264.544,0.0013774602556104742,0.0013774602556104742
264.545,0.009196374689396158,-0.009196374689396158
264.546,0.01739420504773337,-0.01739420504773337
264.547,0.017201183216132176,-0.017201183216132176
264.548,0.0038059694293747226,-0.0038059694293747226
264.549,0.02408736246429677,0.02408736246429677
264.54999999999995,0.06290190360136805,0.06290190360136805
264.551,0.10446472588905742,0.10446472588905742
264.552,0.1380504333712802,0.1380504333712802
264.553,0.15366603727360495,0.15366603727360495
264.554,0.14552420252760445,0.14552420252760445
264.555,0.1144664931652517,0.1144664931652517
264.556,0.06835515441205375,0.06835515441205375
264.557,0.020094028323491164,0.020094028323491164
264.558,0.01623822095465166,-0.01623822095465166
264.559,0.029942975312406972,-0.029942975312406972
264.56,0.017403602576305244,-0.017403602576305244
264.561,0.016421553132174305,0.016421553132174305
264.56199999999995,0.05938842982568171,0.05938842982568171
264.563,0.0961414075062672,0.0961414075062672
264.564,0.11344288120301704,0.11344288120301704
264.565,0.10506818388145889,0.10506818388145889
264.566,0.07450818943670634,0.07450818943670634
264.567,0.03437239371720602,0.03437239371720602
264.568,0.00246335678368359,0.00246335678368359
264.569,0.004351053519268122,-0.004351053519268122
264.57,0.023496516982326465,0.023496516982326465
264.571,0.08384772430744403,0.08384772430744403
264.572,0.16199841322455377,0.16199841322455377
264.573,0.2340433538032929,0.2340433538032929
264.574,0.2735952333868559,0.2735952333868559
264.575,0.25993218531750006,0.25993218531750006
264.576,0.18505937807425554,0.18505937807425554
264.577,0.05739591156094459,0.05739591156094459
264.578,0.09923081313093329,-0.09923081313093329
264.579,0.25118079560524464,-0.25118079560524464
264.58,0.36366363673667046,-0.36366363673667046
264.581,0.4099767935659906,-0.4099767935659906
264.582,0.37862869122136333,-0.37862869122136333
264.583,0.276286568937654,-0.276286568937654
264.584,0.1257499045649384,-0.1257499045649384
264.585,0.04036130938395144,0.04036130938395144
264.586,0.18826826777135852,0.18826826777135852
264.587,0.29149026445705184,0.29149026445705184
264.588,0.33672325452859764,0.33672325452859764
264.589,0.3256621130950035,0.3256621130950035
264.59,0.27258694219912805,0.27258694219912805
264.591,0.1988068932666287,0.1988068932666287
264.592,0.12590294463608043,0.12590294463608043
264.593,0.06989169840593146,0.06989169840593146
264.594,0.037933383652463126,0.037933383652463126
264.595,0.02823918045355156,0.02823918045355156
264.596,0.03274659113917222,0.03274659113917222
264.597,0.041292977690682076,0.041292977690682076
264.598,0.04568369113335713,0.04568369113335713
264.599,0.04229016454993273,0.04229016454993273
264.6,0.03249224150898211,0.03249224150898211
264.601,0.021123712162342656,0.021123712162342656
264.602,0.01377978613693287,0.01377978613693287
264.603,0.01416440327723345,0.01416440327723345
264.604,0.022511995804402885,0.022511995804402885
264.605,0.03560374050553805,0.03560374050553805
264.606,0.048232624902488475,0.048232624902488475
264.607,0.05541550264111539,0.05541550264111539
264.608,0.054406480819367165,0.054406480819367165
264.609,0.045707164261610034,0.045707164261610034
264.61,0.03271782544158053,0.03271782544158053
264.611,0.020238294710624105,0.020238294710624105
264.612,0.012481509640176913,0.012481509640176913
264.613,0.011432174231863268,0.011432174231863268
264.614,0.016211542860732564,0.016211542860732564
264.615,0.023676235526234768,0.023676235526234768
264.616,0.02996431991356041,0.02996431991356041
264.617,0.03231383637225971,0.03231383637225971
264.618,0.03037166773328348,0.03037166773328348
264.619,0.026424683864777698,0.026424683864777698
264.62,0.02443266631565999,0.02443266631565999
264.621,0.028243128906654924,0.028243128906654924
264.622,0.03971998662496112,0.03971998662496112
264.623,0.057577524656725165,0.057577524656725165
264.624,0.0774497689810516,0.0774497689810516
264.625,0.093241769391736,0.093241769391736
264.626,0.09929176173103449,0.09929176173103449
264.627,0.09252691871342056,0.09252691871342056
264.628,0.07376247806010006,0.07376247806010006
264.629,0.047596631191044514,0.047596631191044514
264.63,0.020882890256261888,0.020882890256261888
264.631,0.000317403707809083,0.000317403707809083
264.632,0.009955482806295435,-0.009955482806295435
264.633,0.009789300468493245,-0.009789300468493245
264.634,0.0029377211835863726,-0.0029377211835863726
264.635,0.004602580436430914,0.004602580436430914
264.636,0.007213662472717708,0.007213662472717708
264.637,0.00224086056201811,0.00224086056201811
264.638,0.008500399509705159,-0.008500399509705159
264.639,0.01897566608117185,-0.01897566608117185
264.64,0.020980098014997672,-0.020980098014997672
264.641,0.0073332534013687,-0.0073332534013687
264.642,0.024915608946123546,0.024915608946123546
264.643,0.07249391381241987,0.07249391381241987
264.644,0.125983898739225,0.125983898739225
264.645,0.17213383197401422,0.17213383197401422
264.646,0.1977678228059636,0.1977678228059636
264.647,0.19405022865658617,0.19405022865658617
264.648,0.159663571072042,0.159663571072042
264.649,0.10175980908751514,0.10175980908751514
264.65,0.034254690485883366,0.034254690485883366
264.65099999999995,0.02608238881576097,-0.02608238881576097
264.652,0.06453742726076395,-0.06453742726076395
264.653,0.07279365948558769,-0.07279365948558769
264.654,0.05130294554209047,-0.05130294554209047
264.655,0.00892062082912426,-0.00892062082912426
264.656,0.0400641306699856,0.0400641306699856
264.657,0.08051555977010794,0.08051555977010794
264.658,0.10114815640915564,0.10114815640915564
264.659,0.09781222115226851,0.09781222115226851
264.66,0.07434370822220004,0.07434370822220004
264.661,0.04078500015429576,0.04078500015429576
264.662,0.00966267103139673,0.00966267103139673
264.66299999999995,0.00836331509008903,-0.00836331509008903
264.664,0.007995633617157827,-0.007995633617157827
264.665,0.009204612317923688,0.009204612317923688
264.666,0.035750608922895166,0.035750608922895166
264.667,0.061177481843323056,0.061177481843323056
264.668,0.07591617944934725,0.07591617944934725
264.669,0.0747229990312821,0.0747229990312821
264.67,0.05849060585043797,0.05849060585043797
264.671,0.03385920382340313,0.03385920382340313
264.672,0.0108197557518237,0.0108197557518237
264.673,0.0008163975145546454,-0.0008163975145546454
264.674,0.005153552788575322,0.005153552788575322
264.67499999999995,0.029158370280059964,0.029158370280059964
264.676,0.06564681074724499,0.06564681074724499
264.677,0.1048535681785352,0.1048535681785352
264.678,0.13588995599169418,0.13588995599169418
264.679,0.15010018444543993,0.15010018444543993
264.68,0.14358759094755036,0.14358759094755036
264.681,0.11814685001875702,0.11814685001875702
264.682,0.08040485998200642,0.08040485998200642
264.683,0.039568492108850606,0.039568492108850606
264.684,0.004598245498207865,0.004598245498207865
264.685,0.01825697280437466,-0.01825697280437466
264.686,0.026833111095748707,-0.026833111095748707
264.68699999999995,0.023030170015725826,-0.023030170015725826
264.688,0.01158169230748296,-0.01158169230748296
264.689,0.0018296516814277908,0.0018296516814277908
264.69,0.01241505732842385,0.01241505732842385
264.691,0.017501744882522097,0.017501744882522097
264.692,0.0168556114440499,0.0168556114440499
264.693,0.012180542068394695,0.012180542068394695
264.694,0.00614251933063148,0.00614251933063148
264.695,0.0013648309903604439,0.0013648309903604439
264.696,0.0002490396060474964,-0.0002490396060474964
264.697,0.0022758561050402193,0.0022758561050402193
264.698,0.009150818469167321,0.009150818469167321
264.699,0.020116808419692545,0.020116808419692545
264.7,0.03461466236529165,0.03461466236529165
264.701,0.05170935034973434,0.05170935034973434
264.702,0.06983835206293865,0.06983835206293865
264.703,0.08661180012079495,0.08661180012079495
264.704,0.09893029786650387,0.09893029786650387
264.705,0.10357502972739008,0.10357502972739008
264.706,0.09820291097641287,0.09820291097641287
264.707,0.08244131127003151,0.08244131127003151
264.708,0.05863362633033531,0.05863362633033531
264.709,0.031819591607979314,0.031819591607979314
264.71,0.008755922837129004,0.008755922837129004
264.711,0.0038724256333864115,-0.0038724256333864115
264.712,0.0015573511510359461,-0.0015573511510359461
264.713,0.016306557561916124,0.016306557561916124
264.714,0.04573620952308732,0.04573620952308732
264.715,0.07888847073669569,0.07888847073669569
264.716,0.1061198912896768,0.1061198912896768
264.717,0.11881964894995245,0.11881964894995245
264.718,0.11213721980723923,0.11213721980723923
264.719,0.08668936014884543,0.08668936014884543
264.72,0.048612380965901814,0.048612380965901814
264.721,0.007847480492562342,0.007847480492562342
264.722,0.02485993161398181,-0.02485993161398181
264.723,0.041305576260643684,-0.041305576260643684
264.724,0.03841531137696519,-0.03841531137696519
264.725,0.01918821377252089,-0.01918821377252089
264.726,0.0083699491374849,0.0083699491374849
264.727,0.03401497311564361,0.03401497311564361
264.728,0.04883529612869575,0.04883529612869575
264.729,0.04842324389091379,0.04842324389091379
264.73,0.034541899034935764,0.034541899034935764
264.731,0.014662903576055486,0.014662903576055486
264.732,0.0005399074113155988,-0.0005399074113155988
264.733,0.0009521354540937832,-0.0009521354540937832
264.734,0.019211425012357175,0.019211425012357175
264.735,0.0589253485596557,0.0589253485596557
264.736,0.11006857566355377,0.11006857566355377
264.737,0.15953652569925802,0.15953652569925802
264.738,0.19315339270660892,0.19315339270660892
264.739,0.2001644850837878,0.2001644850837878
264.74,0.17685198528386747,0.17685198528386747
264.741,0.1280560160593187,0.1280560160593187
264.742,0.06602921582318633,0.06602921582318633
264.743,0.006904220756923651,0.006904220756923651
264.744,0.03416438574585268,-0.03416438574585268
264.745,0.04766513522480831,-0.04766513522480831
264.746,0.032706177104758205,-0.032706177104758205
264.747,0.0026876123374433014,0.0026876123374433014
264.748,0.04411443533099013,0.04411443533099013
264.749,0.07542852948803036,0.07542852948803036
264.75,0.08403896375866893,0.08403896375866893
264.751,0.06520132797019529,0.06520132797019529
264.752,0.023906220132732914,0.023906220132732914
264.753,0.02631076522428588,-0.02631076522428588
264.754,0.06736611284462668,-0.06736611284462668
264.755,0.0822788229711775,-0.0822788229711775
264.756,0.06077595512519862,-0.06077595512519862
264.757,0.0031201724011017395,-0.0031201724011017395
264.758,0.0790812507277372,0.0790812507277372
264.759,0.165448850330846,0.165448850330846
264.76,0.23214471158968553,0.23214471158968553
264.761,0.2584581141173239,0.2584581141173239
264.762,0.23278694103390363,0.23278694103390363
264.763,0.1562788792334362,0.1562788792334362
264.764,0.04304631140455406,0.04304631140455406
264.765,0.08315941335478894,-0.08315941335478894
264.766,0.19491792764133908,-0.19491792764133908
264.767,0.2681028418784822,-0.2681028418784822
264.768,0.2879079236716624,-0.2879079236716624
264.769,0.252284737718786,-0.252284737718786
264.77,0.17189267408216657,-0.17189267408216657
264.771,0.06666811790721483,-0.06666811790721483
264.772,0.039916896755114895,0.039916896755114895
264.773,0.12719742930083933,0.12719742930083933
264.774,0.18242290233623337,0.18242290233623337
264.775,0.20320960560101065,0.20320960560101065
264.77599999999995,0.1967535015594799,0.1967535015594799
264.777,0.17621567776223568,0.17621567776223568
264.778,0.15554926480074704,0.15554926480074704
264.779,0.1444902493817386,0.1444902493817386
264.78,0.14534529574704358,0.14534529574704358
264.781,0.15260398183639845,0.15260398183639845
264.782,0.15546834087245642,0.15546834087245642
264.783,0.14242257532649027,0.14242257532649027
264.784,0.106269841465225,0.106269841465225
264.785,0.047870016733007725,0.047870016733007725
264.786,0.022803725169287525,-0.022803725169287525
264.787,0.08881978468246199,-0.08881978468246199
264.78799999999995,0.13112728612373725,-0.13112728612373725
264.789,0.1346265593345759,-0.1346265593345759
264.79,0.09353004087627803,-0.09353004087627803
264.791,0.014198257466220165,-0.014198257466220165
264.792,0.08564138428199208,0.08564138428199208
264.793,0.18127450986830995,0.18127450986830995
264.794,0.24780452482355142,0.24780452482355142
264.795,0.26737904233400944,0.26737904233400944
264.796,0.23461125854342213,0.23461125854342213
264.797,0.15844662137145393,0.15844662137145393
264.798,0.059775821881082436,0.059775821881082436
264.799,0.03459636349616302,-0.03459636349616302
264.79999999999995,0.09985953878216292,-0.09985953878216292
264.801,0.12058380789527579,-0.12058380789527579
264.802,0.0952917664592643,-0.0952917664592643
264.803,0.03675802110921267,-0.03675802110921267
264.804,0.03211087851002903,0.03211087851002903
264.805,0.08558058273654456,0.08558058273654456
264.806,0.10332540247694522,0.10332540247694522
264.807,0.07702434272378067,0.07702434272378067
264.808,0.013230342745277568,0.013230342745277568
264.809,0.06842415052053219,-0.06842415052053219
264.81,0.14116730408236522,-0.14116730408236522
264.811,0.17935419339619207,-0.17935419339619207
264.81199999999995,0.16650443132238546,-0.16650443132238546
264.813,0.10062136173461933,-0.10062136173461933
264.814,0.004852110574833812,0.004852110574833812
264.815,0.12473041241273397,0.12473041241273397
264.816,0.2292885560343707,0.2292885560343707
264.817,0.2927624700132785,0.2927624700132785
264.818,0.3005764893682048,0.3005764893682048
264.819,0.25317109819936245,0.25317109819936245
264.82,0.16539441173370695,0.16539441173370695
264.821,0.06179951754407975,0.06179951754407975
264.822,0.03058537868829303,-0.03058537868829303
264.823,0.0897562021739835,-0.0897562021739835
264.824,0.10428383734086899,-0.10428383734086899
264.825,0.07542478114674966,-0.07542478114674966
264.826,0.015448287028232643,-0.015448287028232643
264.827,0.05698102544105188,0.05698102544105188
264.828,0.12269073841930833,0.12269073841930833
264.829,0.1672435259228673,0.1672435259228673
264.83,0.18401380610152995,0.18401380610152995
264.831,0.17443048509800807,0.17443048509800807
264.832,0.14571588393009316,0.14571588393009316
264.833,0.10724667323297621,0.10724667323297621
264.834,0.06700057752644972,0.06700057752644972
264.835,0.029350198543247386,0.029350198543247386
264.836,0.005167258610179082,-0.005167258610179082
264.837,0.03828369969488654,-0.03828369969488654
264.838,0.07149806749282828,-0.07149806749282828
264.839,0.10381335755348564,-0.10381335755348564
264.84,0.13073825392399185,-0.13073825392399185
264.841,0.14504251844270488,-0.14504251844270488
264.842,0.13904602683597767,-0.13904602683597767
264.843,0.10760842422440409,-0.10760842422440409
264.844,0.05069432943292951,-0.05069432943292951
264.845,0.025482088100085898,0.025482088100085898
264.846,0.10923599957774588,0.10923599957774588
264.847,0.18594660376461536,0.18594660376461536
264.848,0.2415778768054493,0.2415778768054493
264.849,0.26609486493082546,0.26609486493082546
264.85,0.2557493765815513,0.2557493765815513
264.851,0.21361971121614753,0.21361971121614753
264.852,0.14838451377206585,0.14838451377206585
264.853,0.07187038223514763,0.07187038223514763
264.854,0.003759485691101183,-0.003759485691101183
264.855,0.06831264756970512,-0.06831264756970512
264.856,0.11481552304280684,-0.11481552304280684
264.857,0.1396174848735583,-0.1396174848735583
264.858,0.14170533115767914,-0.14170533115767914
264.859,0.12181984195162165,-0.12181984195162165
264.86,0.0819202577297744,-0.0819202577297744
264.861,0.02525071364004039,-0.02525071364004039
264.862,0.04313705158381942,0.04313705158381942
264.863,0.1158765587356787,0.1158765587356787
264.864,0.18336886286990506,0.18336886286990506
264.865,0.23484817657150847,0.23484817657150847
264.866,0.2604236075764279,0.2604236075764279
264.867,0.2536248451626788,0.2536248451626788
264.868,0.2136447352259847,0.2136447352259847
264.869,0.14642022802508503,0.14642022802508503
264.87,0.06397497323201784,0.06397497323201784
264.871,0.01801673952368632,-0.01801673952368632
264.872,0.08387681130066482,-0.08387681130066482
264.873,0.12175498398317952,-0.12175498398317952
264.874,0.12648969329729975,-0.12648969329729975
264.875,0.10060685891062571,-0.10060685891062571
264.876,0.053147555263207136,-0.053147555263207136
264.877,0.0032794157064592877,0.0032794157064592877
264.878,0.05624211179364225,0.05624211179364225
264.879,0.09679898080508931,0.09679898080508931
264.88,0.12132833092637352,0.12132833092637352
264.881,0.1313638301746307,0.1313638301746307
264.882,0.1316458103662692,0.1316458103662692
264.883,0.12723649496252887,0.12723649496252887
264.884,0.12087230579646424,0.12087230579646424
264.885,0.11161697699338569,0.11161697699338569
264.886,0.0953709363290085,0.0953709363290085
264.887,0.0670673918425937,0.0670673918425937
264.888,0.023708590849371936,0.023708590849371936
264.889,0.032980565640904014,-0.032980565640904014
264.89,0.09543163766702634,-0.09543163766702634
264.891,0.15128481581078357,-0.15128481581078357
264.892,0.18647913475819689,-0.18647913475819689
264.893,0.18947743922529503,-0.18947743922529503
264.894,0.15523977901469266,-0.15523977901469266
264.895,0.08754557945090402,-0.08754557945090402
264.896,0.0012556489506567736,0.0012556489506567736
264.897,0.09316310539448924,0.09316310539448924
264.898,0.1693198978494035,0.1693198978494035
264.899,0.21523585378075238,0.21523585378075238
264.9,0.22479882726492217,0.22479882726492217
264.90099999999995,0.20178555362569295,0.20178555362569295
264.902,0.15836653077316676,0.15836653077316676
264.903,0.1110613935991438,0.1110613935991438
264.904,0.07542495005337524,0.07542495005337524
264.905,0.06115695904241125,0.06115695904241125
264.906,0.06919392779143729,0.06919392779143729
264.907,0.09170252139181145,0.09170252139181145
264.908,0.1149605211617486,0.1149605211617486
264.909,0.12418619472634007,0.12418619472634007
264.91,0.10875792304725884,0.10875792304725884
264.911,0.06614750261650437,0.06614750261650437
264.912,0.003303315787768879,0.003303315787768879
264.91299999999995,0.06497574886821389,-0.06497574886821389
264.914,0.12019805543276729,-0.12019805543276729
264.915,0.14561647539768374,-0.14561647539768374
264.916,0.13131458148583564,-0.13131458148583564
264.917,0.0774323983481473,-0.0774323983481473
264.918,0.005410648297125453,0.005410648297125453
264.919,0.0986112579375169,0.0986112579375169
264.92,0.18027995196463809,0.18027995196463809
264.921,0.23082878453682198,0.23082878453682198
264.922,0.23793441500133916,0.23793441500133916
264.923,0.1995857840198174,0.1995857840198174
264.924,0.12448557796321857,0.12448557796321857
264.92499999999995,0.029794275083803834,0.029794275083803834
264.926,0.06311902180497075,-0.06311902180497075
264.927,0.13379529196657436,-0.13379529196657436
264.928,0.16740350180027053,-0.16740350180027053
264.929,0.15795968014498685,-0.15795968014498685
264.93,0.10936729320551963,-0.10936729320551963
264.931,0.03414099410152349,-0.03414099410152349
264.932,0.049792367284463346,0.049792367284463346
264.933,0.12341359660355211,0.12341359660355211
264.934,0.1710392570028192,0.1710392570028192
264.935,0.18385857290826202,0.18385857290826202
264.936,0.16180027388252194,0.16180027388252194
264.93699999999995,0.11332779107652913,0.11332779107652913
264.938,0.05322029594813138,0.05322029594813138
264.939,0.0011509937527010017,-0.0011509937527010017
264.94,0.03418876334398302,-0.03418876334398302
264.941,0.03604149904712817,-0.03604149904712817
264.942,0.005202201381070082,-0.005202201381070082
264.943,0.050950773492496326,0.050950773492496326
264.944,0.1178737046434517,0.1178737046434517
264.945,0.17747646606696388,0.17747646606696388
264.946,0.21277026903272067,0.21277026903272067
264.947,0.21236324860096434,0.21236324860096434
264.948,0.17361120784688389,0.17361120784688389
264.949,0.10354424873473089,0.10354424873473089
264.95,0.017262514873142232,0.017262514873142232
264.951,0.06582204918711887,-0.06582204918711887
264.952,0.12691785380197274,-0.12691785380197274
264.953,0.15263651713207593,-0.15263651713207593
264.954,0.13833043058598404,-0.13833043058598404
264.955,0.0890891690495288,-0.0890891690495288
264.956,0.018160404820092402,-0.018160404820092402
264.957,0.05671077723211493,0.05671077723211493
264.958,0.1179539206537612,0.1179539206537612
264.959,0.15253516652526078,0.15253516652526078
264.96,0.15483342195912297,0.15483342195912297
264.961,0.12734400469883878,0.12734400469883878
264.962,0.07919396564465853,0.07919396564465853
264.963,0.023090450675842922,0.023090450675842922
264.964,0.028271468456688487,-0.028271468456688487
264.965,0.06525771643453493,-0.06525771643453493
264.966,0.08300393255090888,-0.08300393255090888
264.967,0.08150020022741367,-0.08150020022741367
264.968,0.06431974734699752,-0.06431974734699752
264.969,0.03665982843450666,-0.03665982843450666
264.97,0.0034861690229988085,-0.0034861690229988085
264.971,0.03160072399940028,0.03160072399940028
264.972,0.06653877212187154,0.06653877212187154
264.973,0.10020379628690423,0.10020379628690423
264.974,0.1315237156018787,0.1315237156018787
264.975,0.15886112165847632,0.15886112165847632
264.976,0.18003216230145402,0.18003216230145402
264.977,0.19298105195892412,0.19298105195892412
264.978,0.19677234868150206,0.19677234868150206
264.979,0.19235601614450748,0.19235601614450748
264.98,0.1826017295001252,0.1826017295001252
264.981,0.17138557781080443,0.17138557781080443
264.982,0.1619368160454877,0.1619368160454877
264.983,0.15504205399775284,0.15504205399775284
264.984,0.14788799365501193,0.14788799365501193
264.985,0.13420068097275872,0.13420068097275872
264.986,0.10592375631364015,0.10592375631364015
264.987,0.056102837536130545,0.056102837536130545
264.988,0.01788453962072356,-0.01788453962072356
264.989,0.11188572275229292,-0.11188572275229292
264.99,0.21433437312206938,-0.21433437312206938
264.991,0.3079363670302473,-0.3079363670302473
264.992,0.3734618719435633,-0.3734618719435633
264.993,0.3946886367068213,-0.3946886367068213
264.994,0.36306483707423975,-0.36306483707423975
264.995,0.28062707448119983,-0.28062707448119983
264.996,0.16016060419271927,-0.16016060419271927
264.997,0.022399807254906645,-0.022399807254906645
264.998,0.10901648174578726,0.10901648174578726
264.999,0.21339823019840454,0.21339823019840454
265.0,0.27794749669264207,0.27794749669264207
265.001,0.30033600571552044,0.30033600571552044
265.002,0.28819390950516977,0.28819390950516977
265.003,0.25575596295506053,0.25575596295506053
265.004,0.21880197453762462,0.21880197453762462
265.005,0.18954799203975004,0.18954799203975004
265.006,0.1731224607038948,0.1731224607038948
265.007,0.16670647437223018,0.16670647437223018
265.008,0.1615153874572257,0.1615153874572257
265.009,0.14685144752844836,0.14685144752844836
265.01,0.11477836084725124,0.11477836084725124
265.011,0.06378157373639137,0.06378157373639137
265.012,0.0001394658476971955,0.0001394658476971955
265.013,0.0634858797602329,-0.0634858797602329
265.014,0.11178975745415709,-0.11178975745415709
265.015,0.1316671007187431,-0.1316671007187431
265.016,0.11655828555745196,-0.11655828555745196
265.017,0.06886458228090231,-0.06886458228090231
265.018,0.00036818640499447497,0.00036818640499447497
265.019,0.07441350571267913,0.07441350571267913
265.02,0.13554639433813565,0.13554639433813565
265.021,0.16998449715399566,0.16998449715399566
265.022,0.17157641239134502,0.17157641239134502
265.023,0.1431548716507054,0.1431548716507054
265.024,0.09522991144574267,0.09522991144574267
265.025,0.04252917569774306,0.04252917569774306
265.02599999999995,0.0004688601009599225,-0.0004688601009599225
265.027,0.023611846620032795,-0.023611846620032795
265.028,0.0235611543263472,-0.0235611543263472
265.029,0.004050771536904363,-0.004050771536904363
265.03,0.025995562653791104,0.025995562653791104
265.031,0.05574819866899938,0.05574819866899938
265.032,0.0760351178821248,0.0760351178821248
265.033,0.08205824076452028,0.08205824076452028
265.034,0.07448081040197407,0.07448081040197407
265.035,0.05866749772200763,0.05866749772200763
265.036,0.04244889988905287,0.04244889988905287
265.037,0.033214001819663164,0.033214001819663164
265.03799999999995,0.03528741005993297,0.03528741005993297
265.039,0.048398631474785736,0.048398631474785736
265.04,0.06766919219613099,0.06766919219613099
265.041,0.0850644659208748,0.0850644659208748
265.042,0.09183090305027486,0.09183090305027486
265.043,0.08118446363233267,0.08118446363233267
265.044,0.05048761328885476,0.05048761328885476
265.045,0.002333983584450694,0.002333983584450694
265.046,0.05572108001263454,-0.05572108001263454
265.047,0.11268917240672272,-0.11268917240672272
265.048,0.15654191333078527,-0.15654191333078527
265.049,0.17689503551576602,-0.17689503551576602
265.04999999999995,0.16737634729024709,-0.16737634729024709
265.051,0.12716823768091978,-0.12716823768091978
265.052,0.0614067733367476,-0.0614067733367476
265.053,0.019642860865562328,0.019642860865562328
265.054,0.10247576198830899,0.10247576198830899
265.055,0.1729394091102725,0.1729394091102725
265.056,0.21902746122879257,0.21902746122879257
265.057,0.23332133551988998,0.23332133551988998
265.058,0.2145722117275839,0.2145722117275839
265.059,0.1680637443499562,0.1680637443499562
265.06,0.10462835792842795,0.10462835792842795
265.061,0.038469957892784956,0.038469957892784956
265.06199999999995,0.01578353632773155,-0.01578353632773155
265.063,0.046178615961675606,-0.046178615961675606
265.064,0.04600206732858203,-0.04600206732858203
265.065,0.015227366005070686,-0.015227366005070686
265.066,0.03949972123567269,0.03949972123567269
265.067,0.1063376586669531,0.1063376586669531
265.068,0.1708406091477288,0.1708406091477288
265.069,0.21905375359089696,0.21905375359089696
265.07,0.24039443384913883,0.24039443384913883
265.071,0.22967962939457331,0.22967962939457331
265.072,0.18789905913484461,0.18789905913484461
265.073,0.12166071162944414,0.12166071162944414
265.074,0.04155674208115956,0.04155674208115956
265.075,0.04007592364416357,-0.04007592364416357
265.076,0.11144831073025296,-0.11144831073025296
265.077,0.16318909976635632,-0.16318909976635632
265.078,0.18950089315760865,-0.18950089315760865
265.079,0.18853670703350922,-0.18853670703350922
265.08,0.16211848985983224,-0.16211848985983224
265.081,0.11502148025307657,-0.11502148025307657
265.082,0.05405292965138164,-0.05405292965138164
265.083,0.012911879835881157,0.012911879835881157
265.084,0.0778597367043592,0.0778597367043592
265.085,0.13351751810254497,0.13351751810254497
265.086,0.17416388342576528,0.17416388342576528
265.087,0.19631630636296005,0.19631630636296005
265.088,0.1991776760999373,0.1991776760999373
265.089,0.18470156831058349,0.18470156831058349
265.09,0.15717617277213458,0.15717617277213458
265.091,0.12233729042672747,0.12233729042672747
265.092,0.08616870915906927,0.08616870915906927
265.093,0.053676517765611775,0.053676517765611775
265.094,0.02797325371996018,0.02797325371996018
265.095,0.009942974404464344,0.009942974404464344
265.096,0.0014133131152589407,-0.0014133131152589407
265.097,0.008078835654267369,-0.008078835654267369
265.098,0.01189633406915358,-0.01189633406915358
265.099,0.013639976229538497,-0.013639976229538497
265.1,0.012649587118306327,-0.012649587118306327
265.101,0.007192461429056385,-0.007192461429056385
265.102,0.004561052183341463,0.004561052183341463
265.103,0.023318627392936886,0.023318627392936886
265.104,0.04770718943315644,0.04770718943315644
265.105,0.07402526865425108,0.07402526865425108
265.106,0.0969234097592977,0.0969234097592977
265.107,0.1108878054564546,0.1108878054564546
265.108,0.11207367713530947,0.11207367713530947
265.109,0.09984512903455545,0.09984512903455545
265.11,0.07741097851287115,0.07741097851287115
265.111,0.051208817807306906,0.051208817807306906
265.112,0.029105270479860668,0.029105270479860668
265.113,0.017910255475398262,0.017910255475398262
265.114,0.020993182254217535,0.020993182254217535
265.115,0.0368253375072487,0.0368253375072487
265.116,0.05902453711744626,0.05902453711744626
265.117,0.07801354997231891,0.07801354997231891
265.118,0.08387077566375578,0.08387077566375578
265.119,0.06952946499766122,0.06952946499766122
265.12,0.03331956316271434,0.03331956316271434
265.121,0.019990085748632702,-0.019990085748632702
265.122,0.0800449377359641,-0.0800449377359641
265.123,0.13346005556105367,-0.13346005556105367
265.124,0.16734433486439482,-0.16734433486439482
265.125,0.1727483963150095,-0.1727483963150095
265.126,0.14701121288064312,-0.14701121288064312
265.127,0.09432752880573603,-0.09432752880573603
265.128,0.024417245719860814,-0.024417245719860814
265.129,0.05023533087439125,0.05023533087439125
265.13,0.11768196696921329,0.11768196696921329
265.131,0.1693361367775723,0.1693361367775723
265.132,0.20151557664557673,0.20151557664557673
265.133,0.2153513205036539,0.2153513205036539
265.134,0.21526133779800194,0.21526133779800194
265.135,0.20664036580705147,0.20664036580705147
265.136,0.19362888677195134,0.19362888677195134
265.137,0.1777339755579408,0.1777339755579408
265.138,0.15772807632420704,0.15772807632420704
265.139,0.1307787818910069,0.1307787818910069
265.14,0.0943302574910414,0.0943302574910414
265.141,0.04800975441025668,0.04800975441025668
265.142,0.005155345514592846,-0.005155345514592846
265.143,0.05867163873545189,-0.05867163873545189
265.144,0.1037317025742227,-0.1037317025742227
265.145,0.13125383037639848,-0.13125383037639848
265.146,0.134210734490542,-0.134210734490542
265.147,0.10958444891976826,-0.10958444891976826
265.148,0.05942599782894953,-0.05942599782894953
265.149,0.009222585382283599,0.009222585382283599
265.15,0.08547444615120026,0.08547444615120026
265.15099999999995,0.15649847093177027,0.15649847093177027
265.152,0.20974364127909206,0.20974364127909206
265.153,0.23507134058173063,0.23507134058173063
265.154,0.2264815494150758,0.2264815494150758
265.155,0.18324191236511655,0.18324191236511655
265.156,0.11031914822037403,0.11031914822037403
265.157,0.018052877830794678,0.018052877830794678
265.158,0.07897301916928856,-0.07897301916928856
265.159,0.16386735310821576,-0.16386735310821576
265.16,0.2200752440393382,-0.2200752440393382
265.161,0.23444215347102537,-0.23444215347102537
265.162,0.2001929404824322,-0.2001929404824322
265.16299999999995,0.11915285708286494,-0.11915285708286494
265.164,0.0025191681256739873,-0.0025191681256739873
265.165,0.13030976467443645,0.13030976467443645
265.166,0.25492861985178994,0.25492861985178994
265.167,0.3466828459116369,0.3466828459116369
265.168,0.3860164894600766,0.3860164894600766
265.169,0.3631249648064958,0.3631249648064958
265.17,0.28065375653046454,0.28065375653046454
265.171,0.15358849270445574,0.15358849270445574
265.172,0.006183130396118397,0.006183130396118397
265.173,0.13341797328960814,-0.13341797328960814
265.174,0.23953443132269192,-0.23953443132269192
265.17499999999995,0.29463114911313115,-0.29463114911313115
265.176,0.29283096878956616,-0.29283096878956616
265.177,0.24036430077031246,-0.24036430077031246
265.178,0.1529386997470109,-0.1529386997470109
265.179,0.05089807229039711,-0.05089807229039711
265.18,0.046339710091561015,0.046339710091561015
265.181,0.12492282595214954,0.12492282595214954
265.182,0.17899637862256057,0.17899637862256057
265.183,0.21038895521018008,0.21038895521018008
265.184,0.22591833324317157,0.22591833324317157
265.185,0.23343028322702208,0.23343028322702208
265.186,0.23804239072034372,0.23804239072034372
265.18699999999995,0.23991902656922015,0.23991902656922015
265.188,0.23431321889719503,0.23431321889719503
265.189,0.21378510298890196,0.21378510298890196
265.19,0.1717313575762749,0.1717313575762749
265.191,0.10590109827597316,0.10590109827597316
265.192,0.020584523204972838,0.020584523204972838
265.193,0.07336941763739913,-0.07336941763739913
265.194,0.16079037656840311,-0.16079037656840311
265.195,0.22598152781549352,-0.22598152781549352
265.196,0.2568432632988624,-0.2568432632988624
265.197,0.24799678616045073,-0.24799678616045073
265.198,0.20193759102119258,-0.20193759102119258
265.199,0.12793300900557936,-0.12793300900557936
265.2,0.03914147531450218,-0.03914147531450218
265.201,0.050996183642363135,0.050996183642363135
265.202,0.13185942599810807,0.13185942599810807
265.203,0.19727200251904042,0.19727200251904042
265.204,0.2452766726400757,0.2452766726400757
265.205,0.2764062392994555,0.2764062392994555
265.206,0.29136103076786135,0.29136103076786135
265.207,0.2892066600164638,0.2892066600164638
265.208,0.26697249237166165,0.26697249237166165
265.209,0.22094555777526637,0.22094555777526637
265.21,0.14923290959247804,0.14923290959247804
265.211,0.05457815315007397,0.05457815315007397
265.212,0.05380764608439892,-0.05380764608439892
265.213,0.1604031128850042,-0.1604031128850042
265.214,0.24588807801204504,-0.24588807801204504
265.215,0.291550873577168,-0.291550873577168
265.216,0.2844039546187632,-0.2844039546187632
265.217,0.2214486313712789,-0.2214486313712789
265.218,0.11166089579268867,-0.11166089579268867
265.219,0.025117532835902345,0.025117532835902345
265.22,0.16229097455363384,0.16229097455363384
265.221,0.2726167837125639,0.2726167837125639
265.222,0.3346715330598775,0.3346715330598775
265.223,0.3379028418986971,0.3379028418986971
265.224,0.2848921391290493,0.2848921391290493
265.225,0.19026193005182024,0.19026193005182024
265.226,0.0766231729697493,0.0766231729697493
265.227,0.0312249075600185,-0.0312249075600185
265.228,0.11220346000945136,-0.11220346000945136
265.229,0.15340801799970494,-0.15340801799970494
265.23,0.15207331160651982,-0.15207331160651982
265.231,0.11480512591047576,-0.11480512591047576
265.232,0.05462711155536715,-0.05462711155536715
265.233,0.013060980843486503,0.013060980843486503
265.234,0.07435953390264705,0.07435953390264705
265.235,0.11956853360793174,0.11956853360793174
265.236,0.14422046628500773,0.14422046628500773
265.237,0.1485540648798822,0.1485540648798822
265.238,0.13600102443255158,0.13600102443255158
265.239,0.11144821347324085,0.11144821347324085
265.24,0.07992313434072784,0.07992313434072784
265.241,0.0460126824035445,0.0460126824035445
265.242,0.01392167661736532,0.01392167661736532
265.243,0.012223171024650092,-0.012223171024650092
265.244,0.02830008457555011,-0.02830008457555011
265.245,0.030667135117605215,-0.030667135117605215
265.246,0.017179674397793554,-0.017179674397793554
265.247,0.011598806908191817,0.011598806908191817
265.248,0.05155342118718775,0.05155342118718775
265.249,0.09508198390148004,0.09508198390148004
265.25,0.13234124470248365,0.13234124470248365
265.251,0.153527887883532,0.153527887883532
265.252,0.1516209138207829,0.1516209138207829
265.253,0.12474632215163473,0.12474632215163473
265.254,0.07733402449035864,0.07733402449035864
265.255,0.019541166176277436,0.019541166176277436
265.256,0.035068858423779714,-0.035068858423779714
265.257,0.0730397805960682,-0.0730397805960682
265.258,0.08475405790441237,-0.08475405790441237
265.259,0.06727516391041322,-0.06727516391041322
265.26,0.025405978198002277,-0.025405978198002277
265.261,0.02942713287538079,0.02942713287538079
265.262,0.08221111361417921,0.08221111361417921
265.263,0.11846674101151033,0.11846674101151033
265.264,0.12827573576909512,0.12827573576909512
265.265,0.10904941361136689,0.10904941361136689
265.266,0.06623644155360342,0.06623644155360342
265.267,0.011769931468756045,0.011769931468756045
265.268,0.03928695678242344,-0.03928695678242344
265.269,0.07292137837444368,-0.07292137837444368
265.27,0.07997998635928005,-0.07997998635928005
265.271,0.05854260249969356,-0.05854260249969356
265.272,0.014234818579146324,-0.014234818579146324
265.273,0.04153982826330371,0.04153982826330371
265.274,0.09487733798660658,0.09487733798660658
265.275,0.13318706382630174,0.13318706382630174
265.27599999999995,0.14846222844056944,0.14846222844056944
265.277,0.1391339298402927,0.1391339298402927
265.278,0.11007875499355779,0.11007875499355779
265.279,0.07088972233347879,0.07088972233347879
265.28,0.032995919419374076,0.032995919419374076
265.281,0.006496227513812292,0.006496227513812292
265.282,0.002409610042602872,-0.002409610042602872
265.283,0.007259815264477165,0.007259815264477165
265.284,0.03145464489904359,0.03145464489904359
265.285,0.06260734319998962,0.06260734319998962
265.286,0.09194277398500295,0.09194277398500295
265.287,0.11188218732160449,0.11188218732160449
265.28799999999995,0.11787746889367279,0.11787746889367279
265.289,0.10923328714400626,0.10923328714400626
265.29,0.08880007064142137,0.08880007064142137
265.291,0.06174895634284083,0.06174895634284083
265.292,0.03387770835895876,0.03387770835895876
265.293,0.00998441044545939,0.00998441044545939
265.294,0.007228644553946562,-0.007228644553946562
265.295,0.017460086223717308,-0.017460086223717308
265.296,0.022323395020297676,-0.022323395020297676
265.297,0.02430893215745611,-0.02430893215745611
265.298,0.025583653278819396,-0.025583653278819396
265.299,0.027040970916979767,-0.027040970916979767
265.29999999999995,0.027909434430713143,-0.027909434430713143
265.301,0.026035532082964163,-0.026035532082964163
265.302,0.01873417965448776,-0.01873417965448776
265.303,0.003917324568760927,-0.003917324568760927
265.304,0.018879743125724602,0.018879743125724602
265.305,0.0479276576761094,0.0479276576761094
265.306,0.07940500458158173,0.07940500458158173
265.307,0.10818576937517643,0.10818576937517643
265.308,0.12911230912944505,0.12911230912944505
265.309,0.13839634066378714,0.13839634066378714
265.31,0.13473544870437015,0.13473544870437015
265.311,0.11979878829191626,0.11979878829191626
265.31199999999995,0.09790665966885714,0.09790665966885714
265.313,0.07495728584540706,0.07495728584540706
265.314,0.056875272404621535,0.056875272404621535
265.315,0.048005111524506816,0.048005111524506816
265.316,0.049904077068045005,0.049904077068045005
265.317,0.06088922831787058,0.06088922831787058
265.318,0.0764878692905302,0.0764878692905302
265.319,0.09068606863810857,0.09068606863810857
265.32,0.09763814663066261,0.09763814663066261
265.321,0.09335922324458945,0.09335922324458945
265.322,0.07691635022272192,0.07691635022272192
265.323,0.05076693816429412,0.05076693816429412
265.324,0.02013115570050572,0.02013115570050572
265.325,0.008438640629308547,-0.008438640629308547
265.326,0.02889278951613472,-0.02889278951613472
265.327,0.03739932544262381,-0.03739932544262381
265.328,0.033438369841738314,-0.033438369841738314
265.329,0.019944283536891483,-0.019944283536891483
265.33,0.00243304496148411,-0.00243304496148411
265.331,0.012654116441892738,0.012654116441892738
265.332,0.01992592949222871,0.01992592949222871
265.333,0.016764736966466076,0.016764736966466076
265.334,0.004284261707655945,0.004284261707655945
265.335,0.012787694818291229,-0.012787694818291229
265.336,0.027311816142174927,-0.027311816142174927
265.337,0.03172548679922971,-0.03172548679922971
265.338,0.02028399275799342,-0.02028399275799342
265.339,0.009066884002461029,0.009066884002461029
265.34,0.05372536055899246,0.05372536055899246
265.341,0.10667858766274874,0.10667858766274874
265.342,0.15793712701503937,0.15793712701503937
265.343,0.19681346039003866,0.19681346039003866
265.344,0.21446410096925628,0.21446410096925628
265.345,0.20603585895266052,0.20603585895266052
265.346,0.1718572331690067,0.1718572331690067
265.347,0.1173695080236552,0.1173695080236552
265.348,0.05182961806900854,0.05182961806900854
265.349,0.013855266806275801,-0.013855266806275801
265.35,0.06957479773909658,-0.06957479773909658
265.351,0.10809584589189658,-0.10809584589189658
265.352,0.12624877381550104,-0.12624877381550104
265.353,0.1249608074487738,-0.1249608074487738
265.354,0.10821666191106116,-0.10821666191106116
265.355,0.08133674798482948,-0.08133674798482948
265.356,0.04915285787292323,-0.04915285787292323
265.357,0.01467267411377915,-0.01467267411377915
265.358,0.021347486641555946,0.021347486641555946
265.359,0.05980751215288738,0.05980751215288738
265.36,0.10187818414824656,0.10187818414824656
265.361,0.14733805228351282,0.14733805228351282
265.362,0.19326758151066614,0.19326758151066614
265.363,0.2336554081955693,0.2336554081955693
265.364,0.2602038169103078,0.2602038169103078
265.365,0.26424015129496703,0.26424015129496703
265.366,0.2392615795061357,0.2392615795061357
265.367,0.18338197007204515,0.18338197007204515
265.368,0.1009002229041005,0.1009002229041005
265.369,0.0023980661680498283,0.0023980661680498283
265.37,0.09684077200629315,-0.09684077200629315
265.371,0.17982383221719278,-0.17982383221719278
265.372,0.23156246446635098,-0.23156246446635098
265.373,0.24256069376196854,-0.24256069376196854
265.374,0.21114717024698348,-0.21114717024698348
265.375,0.14399399065607865,-0.14399399065607865
265.376,0.054638951705591854,-0.054638951705591854
265.377,0.03963549468626981,0.03963549468626981
265.378,0.12176658463309376,0.12176658463309376
265.379,0.1786923220668204,0.1786923220668204
265.38,0.20398325770219006,0.20398325770219006
265.381,0.1986892987424731,0.1986892987424731
265.382,0.1702692306912501,0.1702692306912501
265.383,0.1299993819035261,0.1299993819035261
265.384,0.08965824899065966,0.08965824899065966
265.385,0.05844242438154623,0.05844242438154623
265.386,0.04094648970164405,0.04094648970164405
265.387,0.03668132574790306,0.03668132574790306
265.388,0.04112671120047695,0.04112671120047695
265.389,0.047863052381473814,0.047863052381473814
265.39,0.05103802662743395,0.05103802662743395
265.391,0.04737672690692962,0.04737672690692962
265.392,0.037140953443867586,0.037140953443867586
265.393,0.023811454573270607,0.023811454573270607
265.394,0.012683163081649518,0.012683163081649518
265.395,0.008895536472481425,0.008895536472481425
265.396,0.015568558758885853,0.015568558758885853
265.397,0.03264324968026755,0.03264324968026755
265.398,0.056768719456871786,0.056768719456871786
265.399,0.08222794349212181,0.08222794349212181
265.4,0.10256816461920648,0.10256816461920648
265.40099999999995,0.1124015881062026,0.1124015881062026
265.402,0.10882367239704971,0.10882367239704971
265.403,0.09205359211089026,0.09205359211089026
265.404,0.0651716485316689,0.0651716485316689
265.405,0.03311627500994141,0.03311627500994141
265.406,0.0013144058163241379,0.0013144058163241379
265.407,0.02560905365712851,-0.02560905365712851
265.408,0.04467579959430856,-0.04467579959430856
265.409,0.05477609490089841,-0.05477609490089841
265.41,0.056319073025382305,-0.056319073025382305
265.411,0.05054648471576573,-0.05054648471576573
265.412,0.038826172965430006,-0.038826172965430006
265.41299999999995,0.022200660154466312,-0.022200660154466312
265.414,0.001328546204945269,-0.001328546204945269
265.415,0.023220110348384893,0.023220110348384893
265.416,0.05050058519755796,0.05050058519755796
265.417,0.07881346937560774,0.07881346937560774
265.418,0.10562104602204725,0.10562104602204725
265.419,0.12785130136462342,0.12785130136462342
265.42,0.14252341316757033,0.14252341316757033
265.421,0.14749581289406666,0.14749581289406666
265.422,0.14207908268109093,0.14207908268109093
265.423,0.1272920759018108,0.1272920759018108
265.424,0.10565690614749013,0.10565690614749013
265.42499999999995,0.08058409962900992,0.08058409962900992
265.426,0.05553763955902413,0.05553763955902413
265.427,0.033242376760264314,0.033242376760264314
265.428,0.015178826590575234,0.015178826590575234
265.429,0.0015100339935463225,0.0015100339935463225
265.43,0.008562347639299972,-0.008562347639299972
265.431,0.016159405308916908,-0.016159405308916908
265.432,0.02204204536804455,-0.02204204536804455
265.433,0.02613206911649879,-0.02613206911649879
265.434,0.027412224779465366,-0.027412224779465366
265.435,0.02424958022681467,-0.02424958022681467
265.436,0.01504232869502553,-0.01504232869502553
265.43699999999995,0.0010210271880086719,0.0010210271880086719
265.438,0.0233447340562154,0.0233447340562154
265.439,0.049669515499642714,0.049669515499642714
265.44,0.07629218758047607,0.07629218758047607
265.441,0.0987384562531366,0.0987384562531366
265.442,0.11273450708468102,0.11273450708468102
265.443,0.11523463603350304,0.11523463603350304
265.444,0.1052400917515186,0.1052400917515186
265.445,0.084192155409887,0.084192155409887
265.446,0.0558253281368275,0.0558253281368275
265.447,0.025496391020148668,0.025496391020148668
265.448,0.0008706434802012719,-0.0008706434802012719
265.449,0.01799419481918596,-0.01799419481918596
265.45,0.022334458879939567,-0.022334458879939567
265.451,0.012842196648112147,-0.012842196648112147
265.452,0.008805634179154476,0.008805634179154476
265.453,0.038533522184942104,0.038533522184942104
265.454,0.07068598912128232,0.07068598912128232
265.455,0.09915903980022578,0.09915903980022578
265.456,0.11860053282688665,0.11860053282688665
265.457,0.1254244499362902,0.1254244499362902
265.458,0.11843072953510791,0.11843072953510791
265.459,0.09891640220115305,0.09891640220115305
265.46,0.0702829520029229,0.0702829520029229
265.461,0.037259678054239354,0.037259678054239354
265.462,0.004944003950636322,0.004944003950636322
265.463,0.02211387479823601,-0.02211387479823601
265.464,0.04058900717915903,-0.04058900717915903
265.465,0.0487130136277093,-0.0487130136277093
265.466,0.04625566572094664,-0.04625566572094664
265.467,0.034248832136630325,-0.034248832136630325
265.468,0.014598906905714304,-0.014598906905714304
265.469,0.010269226173945878,0.010269226173945878
265.47,0.037649379239536485,0.037649379239536485
265.471,0.06466962554883637,0.06466962554883637
265.472,0.08836150457357217,0.08836150457357217
265.473,0.105795808649912,0.105795808649912
265.474,0.11437617174115289,0.11437617174115289
265.475,0.11230492802545511,0.11230492802545511
265.476,0.09913193835793765,0.09913193835793765
265.477,0.0762089113534874,0.0762089113534874
265.478,0.046840737182700876,0.046840737182700876
265.479,0.015975230127055262,0.015975230127055262
265.48,0.010602180607878653,-0.010602180607878653
265.481,0.02743807121618691,-0.02743807121618691
265.482,0.030667251582500166,-0.030667251582500166
265.483,0.019005230552196828,-0.019005230552196828
265.484,0.0058356004439437115,0.0058356004439437115
265.485,0.03947064524444244,0.03947064524444244
265.486,0.07585581870132008,0.07585581870132008
265.487,0.10871821710949492,0.10871821710949492
265.488,0.13299314704479803,0.13299314704479803
265.489,0.145844592347532,0.145844592347532
265.49,0.14697683455680277,0.14697683455680277
265.491,0.13817921823916857,0.13817921823916857
265.492,0.12230605679816353,0.12230605679816353
265.493,0.10208772158241142,0.10208772158241142
265.494,0.07922425090762264,0.07922425090762264
265.495,0.05410332130500772,0.05410332130500772
265.496,0.026243308337823734,0.026243308337823734
265.497,0.004726827540302292,-0.004726827540302292
265.498,0.03796952634202677,-0.03796952634202677
265.499,0.07072199797444645,-0.07072199797444645
265.5,0.09835085749008343,-0.09835085749008343
265.501,0.11529573029157703,-0.11529573029157703
265.502,0.11667572663742376,-0.11667572663742376
265.503,0.10004178579204626,-0.10004178579204626
265.504,0.06663424626856629,-0.06663424626856629
265.505,0.021609756666891355,-0.021609756666891355
265.506,0.0269836613661798,0.0269836613661798
265.507,0.07027708149169509,0.07027708149169509
265.508,0.10109613211429536,0.10109613211429536
265.509,0.11610549648718815,0.11610549648718815
265.51,0.11682224325280566,0.11682224325280566
265.511,0.10906684924956478,0.10906684924956478
265.512,0.10092817024425549,0.10092817024425549
265.513,0.09983933230653297,0.09983933230653297
265.514,0.10971432239992907,0.10971432239992907
265.515,0.12914521535913215,0.12914521535913215
265.516,0.15136928404655148,0.15136928404655148
265.517,0.1661610791145014,0.1661610791145014
265.518,0.1631596826623123,0.1631596826623123
265.519,0.13561950899656727,0.13561950899656727
265.52,0.08335785864897627,0.08335785864897627
265.521,0.013853258111267586,0.013853258111267586
265.522,0.05901416676763194,-0.05901416676763194
265.523,0.11835608249328078,-0.11835608249328078
265.524,0.14888263839393578,-0.14888263839393578
265.525,0.14137137593707183,-0.14137137593707183
265.52599999999995,0.09563140546226989,-0.09563140546226989
265.527,0.021012275780605938,-0.021012275780605938
265.528,0.06576741855242907,0.06576741855242907
265.529,0.14488753388730968,0.14488753388730968
265.53,0.19856910823938567,0.19856910823938567
265.531,0.21560964725657739,0.21560964725657739
265.532,0.19402388373006985,0.19402388373006985
265.533,0.14109123299780313,0.14109123299780313
265.534,0.07090175639281537,0.07090175639281537
265.535,0.00023223594549781623,0.00023223594549781623
265.536,0.05595933455648705,-0.05595933455648705
265.537,0.08809461935607577,-0.08809461935607577
265.53799999999995,0.09364214477674515,-0.09364214477674515
265.539,0.07659539318458564,-0.07659539318458564
265.54,0.045171881653216284,-0.045171881653216284
265.541,0.0086677759905337,-0.0086677759905337
265.542,0.02541742070476416,0.02541742070476416
265.543,0.05307693959314763,0.05307693959314763
265.544,0.07390368247543733,0.07390368247543733
265.545,0.089803076480786,0.089803076480786
265.546,0.10300048463116673,0.10300048463116673
265.547,0.11424431244156041,0.11424431244156041
265.548,0.12197283642592405,0.12197283642592405
265.549,0.12279453004518093,0.12279453004518093
265.54999999999995,0.11308941630447111,0.11308941630447111
265.551,0.0910753087405971,0.0910753087405971
265.552,0.05846896847565808,0.05846896847565808
265.553,0.020987575873400388,0.020987575873400388
265.554,0.01265933010885667,-0.01265933010885667
265.555,0.033087114987423116,-0.033087114987423116
265.556,0.0331631173298782,-0.0331631173298782
265.557,0.010575713505968087,-0.010575713505968087
265.558,0.03086063267643291,0.03086063267643291
265.559,0.08169332221235348,0.08169332221235348
265.56,0.12907328276094,0.12907328276094
265.561,0.16014129514806275,0.16014129514806275
265.56199999999995,0.1655689833646008,0.1655689833646008
265.563,0.14219847517964368,0.14219847517964368
265.564,0.09399407587939601,0.09399407587939601
265.565,0.03103349550240897,0.03103349550240897
265.566,0.033143555048586903,-0.033143555048586903
265.567,0.08503435663005698,-0.08503435663005698
265.568,0.11450698696685901,-0.11450698696685901
265.569,0.11705513884420082,-0.11705513884420082
265.57,0.09442888686236661,-0.09442888686236661
265.571,0.053604128968555154,-0.053604128968555154
265.572,0.004533123702350927,-0.004533123702350927
265.573,0.04257658373904061,0.04257658373904061
265.574,0.07965711673149589,0.07965711673149589
265.575,0.10224663181045912,0.10224663181045912
265.576,0.10977836707033095,0.10977836707033095
265.577,0.10482583120832945,0.10482583120832945
265.578,0.09172266274308294,0.09172266274308294
265.579,0.0750844898346057,0.0750844898346057
265.58,0.058682105994951606,0.058682105994951606
265.581,0.04490483679787993,0.04490483679787993
265.582,0.03480321565542699,0.03480321565542699
265.583,0.02850531571035786,0.02850531571035786
265.584,0.025722496997578448,0.025722496997578448
265.585,0.026107249033329616,0.026107249033329616
265.586,0.029358161879455835,0.029358161879455835
265.587,0.03511643084290772,0.03511643084290772
265.588,0.04279811329645433,0.04279811329645433
265.589,0.0515187633705918,0.0515187633705918
265.59,0.06019619978196533,0.06019619978196533
265.591,0.06780423973710215,0.06780423973710215
265.592,0.07365349439448421,0.07365349439448421
265.593,0.07754359240670472,0.07754359240670472
265.594,0.07968225744915047,0.07968225744915047
265.595,0.08037931898601669,0.08037931898601669
265.596,0.0796467568313528,0.0796467568313528
265.597,0.07691007275438477,0.07691007275438477
265.598,0.0710205319801378,0.0710205319801378
265.599,0.060648306546002395,0.060648306546002395
265.6,0.04497094367057031,0.04497094367057031
265.601,0.024415920472438346,0.024415920472438346
265.602,0.001139068778233776,0.001139068778233776
265.603,0.021034593532567536,-0.021034593532567536
265.604,0.0373170117218925,-0.0373170117218925
265.605,0.043186890788632915,-0.043186890788632915
265.606,0.03580129151449607,-0.03580129151449607
265.607,0.015128167899246536,-0.015128167899246536
265.608,0.015625316113061505,0.015625316113061505
265.609,0.050521420611416845,0.050521420611416845
265.61,0.08227652222261694,0.08227652222261694
265.611,0.10416250099222779,0.10416250099222779
265.612,0.11186660197894249,0.11186660197894249
265.613,0.10472772092728921,0.10472772092728921
265.614,0.08593630605861002,0.08593630605861002
265.615,0.06159921311368177,0.06159921311368177
265.616,0.038929875836513306,0.038929875836513306
265.617,0.02410929321332289,0.02410929321332289
265.618,0.020477620684805853,0.020477620684805853
265.619,0.02761823184708212,0.02761823184708212
265.62,0.04161535189206922,0.04161535189206922
265.621,0.056393702311073435,0.056393702311073435
265.622,0.06570617532081657,0.06570617532081657
265.623,0.06513547648644336,0.06513547648644336
265.624,0.05348219390814135,0.05348219390814135
265.625,0.03311994935105633,0.03311994935105633
265.626,0.00923644371106569,0.00923644371106569
265.627,0.011766103173246556,-0.011766103173246556
265.628,0.024182661167722608,-0.024182661167722608
265.629,0.024625541848071975,-0.024625541848071975
265.63,0.012871533915374656,-0.012871533915374656
265.631,0.00827420741950502,0.00827420741950502
265.632,0.03398373285641454,0.03398373285641454
265.633,0.05890036908607321,0.05890036908607321
265.634,0.07861531856741344,0.07861531856741344
265.635,0.09067108064067941,0.09067108064067941
265.636,0.09483342073221834,0.09483342073221834
265.637,0.09264151555701572,0.09264151555701572
265.638,0.08648779791821282,0.08648779791821282
265.639,0.07861314629806126,0.07861314629806126
265.64,0.07039012666473776,0.07039012666473776
265.641,0.06212180066619255,0.06212180066619255
265.642,0.053367059777404524,0.053367059777404524
265.643,0.043598547818136435,0.043598547818136435
265.644,0.032880373726543954,0.032880373726543954
265.645,0.022259409362882066,0.022259409362882066
265.646,0.013687816753049864,0.013687816753049864
265.647,0.009484757323248827,0.009484757323248827
265.648,0.011528786061244523,0.011528786061244523
265.649,0.02048109562658129,0.02048109562658129
265.65,0.035335127696483504,0.035335127696483504
265.65099999999995,0.05347434698739173,0.05347434698739173
265.652,0.07124107824065229,0.07124107824065229
265.653,0.08484152067546624,0.08484152067546624
265.654,0.09129923470471768,0.09129923470471768
265.655,0.0891599020161069,0.0891599020161069
265.656,0.07874383829032605,0.07874383829032605
265.657,0.061902340856619276,0.061902340856619276
265.658,0.0413999910311329,0.0413999910311329
265.659,0.020158183016591336,0.020158183016591336
265.66,0.0006178213241445629,0.0006178213241445629
265.661,0.015591704839289955,-0.015591704839289955
265.662,0.02762320216023506,-0.02762320216023506
265.66299999999995,0.035110414098292075,-0.035110414098292075
265.664,0.037781189609336185,-0.037781189609336185
265.665,0.035189852969384816,-0.035189852969384816
265.666,0.02670868876720378,-0.02670868876720378
265.667,0.011798389550843447,-0.011798389550843447
265.668,0.009549555545702137,0.009549555545702137
265.669,0.03638921032396869,0.03638921032396869
265.67,0.06661371390654902,0.06661371390654902
265.671,0.09709298779731634,0.09709298779731634
265.672,0.1241590517650093,0.1241590517650093
265.673,0.14431344487686526,0.14431344487686526
265.674,0.154945835012396,0.154945835012396
265.67499999999995,0.15484349850296608,0.15484349850296608
265.676,0.14434193340810975,0.14434193340810975
265.677,0.12509140398394725,0.12509140398394725
265.678,0.09954636216922985,0.09954636216922985
265.679,0.07037506408337046,0.07037506408337046
265.68,0.04000129416247189,0.04000129416247189
265.681,0.010423160022759337,0.010423160022759337
265.682,0.01666958633378335,-0.01666958633378335
265.683,0.039591364223266035,-0.039591364223266035
265.684,0.0563722001034479,-0.0563722001034479
265.685,0.06469804239043986,-0.06469804239043986
265.686,0.062214758530681036,-0.062214758530681036
265.68699999999995,0.04718673387730288,-0.04718673387730288
265.688,0.01934119984353455,-0.01934119984353455
265.689,0.01938767306587641,0.01938767306587641
265.69,0.06452792748464509,0.06452792748464509
265.691,0.10938325041147112,0.10938325041147112
265.692,0.14604805520874198,0.14604805520874198
265.693,0.16696580144047446,0.16696580144047446
265.694,0.16668105484578688,0.16668105484578688
265.695,0.14333240797197933,0.14333240797197933
265.696,0.09945648718969635,0.09945648718969635
265.697,0.04182429463506132,0.04182429463506132
265.698,0.019727469841699152,-0.019727469841699152
265.699,0.07424174194338051,-0.07424174194338051
265.7,0.11191989995719831,-0.11191989995719831
265.701,0.12618910895963975,-0.12618910895963975
265.702,0.11505527831408391,-0.11505527831408391
265.703,0.08141470601615197,-0.08141470601615197
265.704,0.03226006932652026,-0.03226006932652026
265.705,0.02300567005925025,0.02300567005925025
265.706,0.07471539957224604,0.07471539957224604
265.707,0.11501020541658935,0.11501020541658935
265.708,0.13934330433448294,0.13934330433448294
265.709,0.14708649003401209,0.14708649003401209
265.71,0.14115371244809727,0.14115371244809727
265.711,0.12681062409027466,0.12681062409027466
265.712,0.11003590930139051,0.11003590930139051
265.713,0.09589047074217705,0.09589047074217705
265.714,0.08731555143449876,0.08731555143449876
265.715,0.08463670758305053,0.08463670758305053
265.716,0.08584195907115277,0.08584195907115277
265.717,0.08748929831987073,0.08748929831987073
265.718,0.08593897981118226,0.08593897981118226
265.719,0.07853992738696092,0.07853992738696092
265.72,0.06443963864940305,0.06443963864940305
265.721,0.04481570893412368,0.04481570893412368
265.722,0.022503527153209024,0.022503527153209024
265.723,0.0011667619168540533,0.0011667619168540533
265.724,0.01572305333378754,-0.01572305333378754
265.725,0.025794895041848287,-0.025794895041848287
265.726,0.028323577612712425,-0.028323577612712425
265.727,0.02428149207525332,-0.02428149207525332
265.728,0.01591656108720474,-0.01591656108720474
265.729,0.006011217607646002,-0.006011217607646002
265.73,0.002941495145016848,0.002941495145016848
265.731,0.009401599984051323,0.009401599984051323
265.732,0.013107344870882054,0.013107344870882054
265.733,0.014996456825686622,0.014996456825686622
265.734,0.016782248240058584,0.016782248240058584
265.735,0.020340506239709955,0.020340506239709955
265.736,0.027105484669645685,0.027105484669645685
265.737,0.037651628650760216,0.037651628650760216
265.738,0.05156316843039965,0.05156316843039965
265.739,0.06759377465807503,0.06759377465807503
265.74,0.0840270552296356,0.0840270552296356
265.741,0.09909514868279334,0.09909514868279334
265.742,0.11131234453754302,0.11131234453754302
265.743,0.11963026132546362,0.11963026132546362
265.744,0.1234004733628784,0.1234004733628784
265.745,0.12220981892773697,0.12220981892773697
265.746,0.11570390974954448,0.11570390974954448
265.747,0.10351725929887445,0.10351725929887445
265.748,0.08538256683740975,0.08538256683740975
265.749,0.061413078503683716,0.061413078503683716
265.75,0.032468667066849255,0.032468667066849255
265.751,0.000458959965769834,0.000458959965769834
265.752,0.03157169036066099,-0.03157169036066099
265.753,0.059685247194852464,-0.059685247194852464
265.754,0.07963303062820914,-0.07963303062820914
265.755,0.08768705227045126,-0.08768705227045126
265.756,0.08153226741198938,-0.08153226741198938
265.757,0.060985304523598405,-0.060985304523598405
265.758,0.02832256664428834,-0.02832256664428834
265.759,0.011918297172340608,0.011918297172340608
265.76,0.053673858261696905,0.053673858261696905
265.761,0.09049976443149199,0.09049976443149199
265.762,0.1168840717358135,0.1168840717358135
265.763,0.12943009652648851,0.12943009652648851
265.764,0.12762391723222777,0.12762391723222777
265.765,0.1139863955134397,0.1139863955134397
265.766,0.09354586636685625,0.09354586636685625
265.767,0.0727237285349922,0.0727237285349922
265.768,0.05786455002218971,0.05786455002218971
265.769,0.053732334011383776,0.053732334011383776
265.77,0.0623137928924844,0.0623137928924844
265.771,0.08221212807988931,0.08221212807988931
265.772,0.1087920175262056,0.1087920175262056
265.773,0.1350738230696229,0.1350738230696229
265.774,0.15320720830687118,0.15320720830687118
265.775,0.15621830509107237,0.15621830509107237
265.77599999999995,0.1396516493063109,0.1396516493063109
265.777,0.10273723376252497,0.10273723376252497
265.778,0.04880582866484051,0.04880582866484051
265.779,0.015164990844264037,-0.015164990844264037
265.78,0.07979941550985514,-0.07979941550985514
265.781,0.13510998046316203,-0.13510998046316203
265.782,0.17243755463889587,-0.17243755463889587
265.783,0.18611905742180768,-0.18611905742180768
265.784,0.1745164061098834,-0.1745164061098834
265.785,0.14018839917572956,-0.14018839917572956
265.786,0.08918978926192811,-0.08918978926192811
265.787,0.029688374959776387,-0.029688374959776387
265.78799999999995,0.029751660580448647,0.029751660580448647
265.789,0.08180524353525653,0.08180524353525653
265.79,0.12156751739591543,0.12156751739591543
265.791,0.14704535435482358,0.14704535435482358
265.792,0.15891905649062732,0.15891905649062732
265.793,0.15973028083405372,0.15973028083405372
265.794,0.15279374226216125,0.15279374226216125
265.795,0.14117760540961477,0.14117760540961477
265.796,0.12703991164231176,0.12703991164231176
265.797,0.11146727510766308,0.11146727510766308
265.798,0.09478433763717997,0.09478433763717997
265.799,0.07714574198273216,0.07714574198273216
265.79999999999995,0.05913663002420022,0.05913663002420022
265.801,0.042119092281978965,0.042119092281978965
265.802,0.028164574303280565,0.028164574303280565
265.803,0.01956985938154432,0.01956985938154432
265.804,0.018112710885614947,0.018112710885614947
265.805,0.024308401687628045,0.024308401687628045
265.806,0.036944113185624516,0.036944113185624516
265.807,0.0530886005688509,0.0530886005688509
265.808,0.06862564953410732,0.06862564953410732
265.809,0.07919087932779112,0.07919087932779112
265.81,0.08125808992972616,0.08125808992972616
265.811,0.07306718166826354,0.07306718166826354
265.81199999999995,0.05512776522268892,0.05512776522268892
265.813,0.03015626939846694,0.03015626939846694
265.814,0.002468806986949623,0.002468806986949623
265.815,0.02299549469220241,-0.02299549469220241
265.816,0.04175239021545896,-0.04175239021545896
265.817,0.05067421459545485,-0.05067421459545485
265.818,0.048510284309759344,-0.048510284309759344
265.819,0.0359455520460199,-0.0359455520460199
265.82,0.01525026612771263,-0.01525026612771263
265.821,0.010327461951296968,0.010327461951296968
265.822,0.037236116216438964,0.037236116216438964
265.823,0.062198302319907084,0.062198302319907084
265.824,0.08259837958261085,0.08259837958261085
265.825,0.09667026811413848,0.09667026811413848
265.826,0.10353774562315565,0.10353774562315565
265.827,0.1031807770138633,0.1031807770138633
265.828,0.09638082222778754,0.09638082222778754
265.829,0.08465299112987679,0.08465299112987679
265.83,0.07013031627033417,0.07013031627033417
265.831,0.05534969391850186,0.05534969391850186
265.832,0.04291126419551361,0.04291126419551361
265.833,0.03503589826315179,0.03503589826315179
265.834,0.03310626963929497,0.03310626963929497
265.835,0.03731696007933061,0.03731696007933061
265.836,0.04655581343516668,0.04655581343516668
265.837,0.0585864391353732,0.0585864391353732
265.838,0.07051469352237572,0.07051469352237572
265.839,0.07943009380105992,0.07943009380105992
265.84,0.08305087525591315,0.08305087525591315
265.841,0.08019412869549103,0.08019412869549103
265.842,0.0709458430196741,0.0709458430196741
265.843,0.05650255633001988,0.05650255633001988
265.844,0.03876236248956055,0.03876236248956055
265.845,0.019819451389990306,0.019819451389990306
265.846,0.0015348778847539268,0.0015348778847539268
265.847,0.014689647783428295,-0.014689647783428295
265.848,0.02790006903174569,-0.02790006903174569
265.849,0.0374067427728646,-0.0374067427728646
265.85,0.042565652295360024,-0.042565652295360024
265.851,0.042669286592418865,-0.042669286592418865
265.852,0.03703635754193124,-0.03703635754193124
265.853,0.025290294922028056,-0.025290294922028056
265.854,0.007715104907559889,-0.007715104907559889
265.855,0.014482148617787294,0.014482148617787294
265.856,0.039161026555997624,0.039161026555997624
265.857,0.06356371501203317,0.06356371501203317
265.858,0.08490310939961798,0.08490310939961798
265.859,0.10104622706824107,0.10104622706824107
265.86,0.11105125291464768,0.11105125291464768
265.861,0.11534219029844306,0.11534219029844306
265.862,0.11542085680591363,0.11542085680591363
265.863,0.11318512277645709,0.11318512277645709
265.864,0.11008335177988937,0.11008335177988937
265.865,0.10642373162425534,0.10642373162425534
265.866,0.10113143968891225,0.10113143968891225
265.867,0.09210456004800238,0.09210456004800238
265.868,0.07710405025076983,0.07710405025076983
265.869,0.054898512589560244,0.054898512589560244
265.87,0.026252099954630737,0.026252099954630737
265.871,0.005648947286035266,-0.005648947286035266
265.872,0.03557829716635641,-0.03557829716635641
265.873,0.057443562222956435,-0.057443562222956435
265.874,0.06595215155080647,-0.06595215155080647
265.875,0.05826508823012244,-0.05826508823012244
265.876,0.03509015996232645,-0.03509015996232645
265.877,0.0008073464265760943,-0.0008073464265760943
265.878,0.03748934363359124,0.03748934363359124
265.879,0.07180033249574569,0.07180033249574569
265.88,0.09535583332974529,0.09535583332974529
265.881,0.10442602850346039,0.10442602850346039
265.882,0.09923772216815085,0.09923772216815085
265.883,0.0837048282314139,0.0837048282314139
265.884,0.06406018988596274,0.06406018988596274
265.885,0.0468343829650375,0.0468343829650375
265.886,0.036840947402754454,0.036840947402754454
265.887,0.03582140182667848,0.03582140182667848
265.888,0.04217637600337398,0.04217637600337398
265.889,0.05183678458625929,0.05183678458625929
265.89,0.059938483764892636,0.059938483764892636
265.891,0.06269075479563901,0.06269075479563901
265.892,0.05876936801702559,0.05876936801702559
265.893,0.04974115427614012,0.04974115427614012
265.894,0.03937828026575896,0.03937828026575896
265.895,0.032123374820161255,0.032123374820161255
265.896,0.03127795067618622,0.03127795067618622
265.897,0.03759364137005594,0.03759364137005594
265.898,0.048807452179976174,0.048807452179976174
265.899,0.060324623982020764,0.060324623982020764
265.9,0.06683425121789921,0.06683425121789921
265.90099999999995,0.06429310589699244,0.06429310589699244
265.902,0.051560000431655206,0.051560000431655206
265.903,0.031066218051153616,0.031066218051153616
265.904,0.008235958297202028,0.008235958297202028
265.905,0.010188274389628105,-0.010188274389628105
265.906,0.018362469210080334,-0.018362469210080334
265.907,0.013336095770681178,-0.013336095770681178
265.908,0.0038827546071933394,0.0038827546071933394
265.909,0.028590326018651968,0.028590326018651968
265.91,0.05391707269617263,0.05391707269617263
265.911,0.07311411335477236,0.07311411335477236
265.912,0.0818070474462973,0.0818070474462973
265.91299999999995,0.07942250375163495,0.07942250375163495
265.914,0.06926933803053448,0.06926933803053448
265.915,0.05722359660685683,0.05722359660685683
265.916,0.049463252612424125,0.049463252612424125
265.917,0.050050051169281407,0.050050051169281407
265.918,0.059233566438991136,0.059233566438991136
265.919,0.07312213755495822,0.07312213755495822
265.92,0.08489963096547148,0.08489963096547148
265.921,0.08722318394627226,0.08722318394627226
265.922,0.07500350920515464,0.07500350920515464
265.923,0.04760032262224434,0.04760032262224434
265.924,0.009627034407548862,0.009627034407548862
265.92499999999995,0.02999582741881257,-0.02999582741881257
265.926,0.06051551757826357,-0.06051551757826357
265.927,0.0726016595791662,-0.0726016595791662
265.928,0.06134380599651945,-0.06134380599651945
265.929,0.0280069019679674,-0.0280069019679674
265.93,0.02006041182682794,0.02006041182682794
265.931,0.07138340384319863,0.07138340384319863
265.932,0.11360323970075492,0.11360323970075492
265.933,0.13700580604746349,0.13700580604746349
265.934,0.13724553089395575,0.13724553089395575
265.935,0.11643051084395917,0.11643051084395917
265.936,0.08225983611332999,0.08225983611332999
265.93699999999995,0.04552165916378037,0.04552165916378037
265.938,0.01676908845373748,0.01676908845373748
265.939,0.003226982269456613,0.003226982269456613
265.94,0.006875284149421956,0.006875284149421956
265.941,0.024247278013592277,0.024247278013592277
265.942,0.04791530764554852,0.04791530764554852
265.943,0.06910177805500295,0.06910177805500295
265.944,0.08052330534179841,0.08052330534179841
265.945,0.07855086976064363,0.07855086976064363
265.946,0.0640441400756584,0.0640441400756584
265.947,0.041689314043996895,0.041689314043996895
265.948,0.018171074726549996,0.018171074726549996
265.949,0.00012840139606107304,-0.00012840139606107304
265.95,0.009101898981119572,-0.009101898981119572
265.951,0.007928571363365555,-0.007928571363365555
265.952,0.0011336962984540566,0.0011336962984540566
265.953,0.013992236846681605,0.013992236846681605
265.954,0.026466241360475706,0.026466241360475706
265.955,0.03585955889902803,0.03585955889902803
265.956,0.04178878479842263,0.04178878479842263
265.957,0.046001661824885964,0.046001661824885964
265.958,0.05130972560416547,0.05130972560416547
265.959,0.0600884312923331,0.0600884312923331
265.96,0.07295079520460002,0.07295079520460002
265.961,0.08812626879398433,0.08812626879398433
265.962,0.10180698738674798,0.10180698738674798
265.963,0.10935970405026985,0.10935970405026985
265.964,0.10697641752997167,0.10697641752997167
265.965,0.09316679857639754,0.09316679857639754
265.966,0.06954089253852636,0.06954089253852636
265.967,0.040573959396590364,0.040573959396590364
265.968,0.012399624306880241,0.012399624306880241
265.969,0.00898246997861707,-0.00898246997861707
265.97,0.019491542140435913,-0.019491542140435913
265.971,0.01814786941879687,-0.01814786941879687
265.972,0.0072589659415664975,-0.0072589659415664975
265.973,0.00844839615555859,0.00844839615555859
265.974,0.02345554200182609,0.02345554200182609
265.975,0.03329312543660223,0.03329312543660223
265.976,0.03598540359143132,0.03598540359143132
265.977,0.03262572485974369,0.03262572485974369
265.978,0.026904553632798756,0.026904553632798756
265.979,0.023758061608712522,0.023758061608712522
265.98,0.02758980488629903,0.02758980488629903
265.981,0.040648554859863406,0.040648554859863406
265.982,0.062084039570636795,0.062084039570636795
265.983,0.08797564096985089,0.08797564096985089
265.984,0.11231641709248219,0.11231641709248219
265.985,0.12863999511722746,0.12863999511722746
265.986,0.13179376685327848,0.13179376685327848
265.987,0.11934043252259907,0.11934043252259907
265.988,0.092207836030755,0.092207836030755
265.989,0.05444998253708966,0.05444998253708966
265.99,0.012246368168746802,0.012246368168746802
265.991,0.02753138269936417,-0.02753138269936417
265.992,0.058773253142404114,-0.058773253142404114
265.993,0.07724046857313294,-0.07724046857313294
265.994,0.08111460440940799,-0.08111460440940799
265.995,0.07095813943535167,-0.07095813943535167
265.996,0.04922166971945385,-0.04922166971945385
265.997,0.019522861472421327,-0.019522861472421327
265.998,0.014077587409944137,0.014077587409944137
265.999,0.04764970536593194,0.04764970536593194
266.0,0.07776788268600288,0.07776788268600288
266.001,0.10172334793773308,0.10172334793773308
266.002,0.11765547323346603,0.11765547323346603
266.003,0.12466647355915117,0.12466647355915117
266.004,0.12292909661432794,0.12292909661432794
266.005,0.11373571177536301,0.11373571177536301
266.006,0.09940435443753315,0.09940435443753315
266.007,0.08297356378709564,0.08297356378709564
266.008,0.06768145575194673,0.06768145575194673
266.009,0.05631157367716533,0.05631157367716533
266.01,0.05056243325720744,0.05056243325720744
266.011,0.050625410496678125,0.050625410496678125
266.012,0.05511909006384297,0.05511909006384297
266.013,0.06143386570317211,0.06143386570317211
266.014,0.06641759841102912,0.06641759841102912
266.015,0.06722313398056445,0.06722313398056445
266.016,0.06208051731637232,0.06208051731637232
266.017,0.05077289446771083,0.05077289446771083
266.018,0.034682110829113544,0.034682110829113544
266.019,0.016400087402475005,0.016400087402475005
266.02,0.0009675609891554027,-0.0009675609891554027
266.021,0.014591263925674225,-0.014591263925674225
266.022,0.022568614158804068,-0.022568614158804068
266.023,0.024261330373722134,-0.024261330373722134
266.024,0.02025160864384612,-0.02025160864384612
266.025,0.011974766094206668,-0.011974766094206668
266.02599999999995,0.0011811220553625823,-0.0011811220553625823
266.027,0.010581569881540576,0.010581569881540576
266.028,0.022302221533400113,0.022302221533400113
266.029,0.0335749306184181,0.0335749306184181
266.03,0.04442139660708633,0.04442139660708633
266.031,0.054972161792218754,0.054972161792218754
266.032,0.06515206304831245,0.06515206304831245
266.033,0.0744997137966128,0.0744997137966128
266.034,0.0821889969858629,0.0821889969858629
266.035,0.08723824314323259,0.08723824314323259
266.036,0.08882155533388247,0.08882155533388247
266.037,0.08656207603663368,0.08656207603663368
266.03799999999995,0.0806991964350976,0.0806991964350976
266.039,0.07207303623748218,0.07207303623748218
266.04,0.061938082274664685,0.061938082274664685
266.041,0.051676698297220325,0.051676698297220325
266.042,0.042510815937664814,0.042510815937664814
266.043,0.03529845793941311,0.03529845793941311
266.044,0.030458702613041844,0.030458702613041844
266.045,0.028014182052298553,0.028014182052298553
266.046,0.02769766120883288,0.02769766120883288
266.047,0.029055957537253985,0.029055957537253985
266.048,0.031504526368145935,0.031504526368145935
266.049,0.03432876891170733,0.03432876891170733
266.04999999999995,0.03667254777746454,0.03667254777746454
266.051,0.03757809803351786,0.03757809803351786
266.052,0.036130312005837384,0.036130312005837384
266.053,0.03171294804392799,0.03171294804392799
266.054,0.024321069979754695,0.024321069979754695
266.055,0.014819480700356324,0.014819480700356324
266.056,0.0050175747515923685,0.0050175747515923685
266.057,0.002537529853158915,-0.002537529853158915
266.058,0.005068389509388926,-0.005068389509388926
266.059,0.0002890438917688698,-0.0002890438917688698
266.06,0.012840070769853273,0.012840070769853273
266.061,0.033554341490091844,0.033554341490091844
266.06199999999995,0.059132862890228566,0.059132862890228566
266.063,0.08526595004093585,0.08526595004093585
266.064,0.10691163788623026,0.10691163788623026
266.065,0.11945804396134685,0.11945804396134685
266.066,0.11989679553421784,0.11989679553421784
266.067,0.10768116509691539,0.10768116509691539
266.068,0.08500739159888737,0.08500739159888737
266.069,0.056405401877554384,0.056405401877554384
266.07,0.027715324118000595,0.027715324118000595
266.071,0.004703084305065719,0.004703084305065719
266.072,0.008321882107315326,-0.008321882107315326
266.073,0.009516194602222527,-0.009516194602222527
266.074,0.00013196448191976629,0.00013196448191976629
266.075,0.017174299497459966,0.017174299497459966
266.076,0.03669809777409938,0.03669809777409938
266.077,0.05366113246780557,0.05366113246780557
266.078,0.06419212945660369,0.06419212945660369
266.079,0.06650333125175134,0.06650333125175134
266.08,0.06118287446769921,0.06118287446769921
266.081,0.05081908307753724,0.05081908307753724
266.082,0.039100520583203124,0.039100520583203124
266.083,0.02967816644399668,0.02967816644399668
266.084,0.025129223227823516,0.025129223227823516
266.085,0.026313718587440915,0.026313718587440915
266.086,0.03228390247981583,0.03228390247981583
266.087,0.04073509034648937,0.04073509034648937
266.088,0.04882782188518253,0.04882782188518253
266.089,0.05411149805263471,0.05411149805263471
266.09,0.05526554831892638,0.05526554831892638
266.091,0.05244521089469445,0.05244521089469445
266.092,0.04714931281489143,0.04714931281489143
266.093,0.041674927796722994,0.041674927796722994
266.094,0.03834374223185599,0.03834374223185599
266.095,0.03874355993963996,0.03874355993963996
266.096,0.04321210888145144,0.04321210888145144
266.097,0.05070860167180302,0.05070860167180302
266.098,0.059099283065739305,0.059099283065739305
266.099,0.06576330346105141,0.06576330346105141
266.1,0.06833893012791692,0.06833893012791692
266.101,0.06539926869055646,0.06539926869055646
266.102,0.05687570050585755,0.05687570050585755
266.103,0.04412341366231742,0.04412341366231742
266.104,0.029622208393754734,0.029622208393754734
266.105,0.01639904009556914,0.01639904009556914
266.106,0.0073229131119065816,0.0073229131119065816
266.107,0.004444511451201727,0.004444511451201727
266.108,0.008531573823449268,0.008531573823449268
266.109,0.01889652639214945,0.01889652639214945
266.11,0.03354181847475757,0.03354181847475757
266.111,0.0495785817902723,0.0495785817902723
266.112,0.063820276858227,0.063820276858227
266.113,0.07342370827070877,0.07342370827070877
266.114,0.07644765129373177,0.07644765129373177
266.115,0.07222155073972569,0.07222155073972569
266.116,0.061457112084051246,0.061457112084051246
266.117,0.04608617507565116,0.04608617507565116
266.118,0.028860568538862097,0.028860568538862097
266.119,0.012795325760041498,0.012795325760041498
266.12,0.0005679487601188971,0.0005679487601188971
266.121,0.006002968478347803,-0.006002968478347803
266.122,0.00629013300432435,-0.00629013300432435
266.123,0.0009287857365964935,-0.0009287857365964935
266.124,0.008389941559889369,0.008389941559889369
266.125,0.019357638073025818,0.019357638073025818
266.126,0.029617727030793572,0.029617727030793572
266.127,0.037329467799404714,0.037329467799404714
266.128,0.04158896907480569,0.04158896907480569
266.129,0.04260195516178622,0.04260195516178622
266.13,0.041564261461936036,0.041564261461936036
266.131,0.040281142373392864,0.040281142373392864
266.132,0.04062576190869227,0.04062576190869227
266.133,0.04398144655747438,0.04398144655747438
266.134,0.050818282765745515,0.050818282765745515
266.135,0.06051964409098631,0.06051964409098631
266.136,0.07150706127269135,0.07150706127269135
266.137,0.08163075406805453,0.08163075406805453
266.138,0.08872068130691058,0.08872068130691058
266.139,0.09114944990033536,0.09114944990033536
266.14,0.08825597071244573,0.08825597071244573
266.141,0.08051774720568217,0.08051774720568217
266.142,0.06942877358443034,0.06942877358443034
266.143,0.05711956479360758,0.05711956479360758
266.144,0.04582375360586366,0.04582375360586366
266.145,0.03733380020438282,0.03733380020438282
266.146,0.03258738899197211,0.03258738899197211
266.147,0.03148781789004107,0.03148781789004107
266.148,0.032997848424302756,0.032997848424302756
266.149,0.03547492731688462,0.03547492731688462
266.15,0.03715515276009218,0.03715515276009218
266.15099999999995,0.03665848934851379,0.03665848934851379
266.152,0.03338571455129835,0.03338571455129835
266.153,0.027707075065151354,0.027707075065151354
266.154,0.02089502812308197,0.02089502812308197
266.155,0.014815636648591424,0.014815636648591424
266.156,0.011450945895178588,0.011450945895178588
266.157,0.012365645177570217,0.012365645177570217
266.158,0.018247157046148876,0.018247157046148876
266.159,0.0286357182184116,0.0286357182184116
266.16,0.04192205199026611,0.04192205199026611
266.161,0.05563186039938173,0.05563186039938173
266.162,0.06694967599966217,0.06694967599966217
266.16299999999995,0.07337340558447081,0.07337340558447081
266.164,0.07334954186597908,0.07334954186597908
266.165,0.06672956783021489,0.06672956783021489
266.166,0.05491698602542372,0.05491698602542372
266.167,0.04063966011983866,0.04063966011983866
266.168,0.02737193750563538,0.02737193750563538
266.169,0.018524871678769594,0.018524871678769594
266.17,0.01659578729468647,0.01659578729468647
266.171,0.02249737190069978,0.02249737190069978
266.172,0.035257580599745486,0.035257580599745486
266.173,0.052196037391107675,0.052196037391107675
266.174,0.06955849177357609,0.06955849177357609
266.17499999999995,0.0834604002978534,0.0834604002978534
266.176,0.09089192001873525,0.09089192001873525
266.177,0.09050233896881332,0.09050233896881332
266.178,0.08292878702135686,0.08292878702135686
266.179,0.07055512752795834,0.07055512752795834
266.18,0.05675157158931299,0.05675157158931299
266.181,0.04480658799750459,0.04480658799750459
266.182,0.03686978699556831,0.03686978699556831
266.183,0.03323997904439713,0.03323997904439713
266.184,0.03224472128696787,0.03224472128696787
266.185,0.030786327703720806,0.030786327703720806
266.186,0.025422455829789303,0.025422455829789303
266.18699999999995,0.013669681235916942,0.013669681235916942
266.188,0.004875575789545228,-0.004875575789545228
266.189,0.027977454281012726,-0.027977454281012726
266.19,0.050993688917458035,-0.050993688917458035
266.191,0.0679032818441101,-0.0679032818441101
266.192,0.07288603432859542,-0.07288603432859542
266.193,0.06202577737015791,-0.06202577737015791
266.194,0.034643307544673374,-0.034643307544673374
266.195,0.006155341807591919,0.006155341807591919
266.196,0.05392243233007643,0.05392243233007643
266.197,0.10023379098796759,0.10023379098796759
266.198,0.1366393889017481,0.1366393889017481
266.199,0.15668690238941907,0.15668690238941907
266.2,0.1574744275354465,0.1574744275354465
266.201,0.14031267607062747,0.14031267607062747
266.202,0.11032150694043108,0.11032150694043108
266.203,0.07507922719599103,0.07507922719599103
266.204,0.042700089704081234,0.042700089704081234
266.205,0.019861934231471645,0.019861934231471645
266.206,0.01030204271081181,0.01030204271081181
266.207,0.014150491780513308,0.014150491780513308
266.208,0.028224687827239636,0.028224687827239636
266.209,0.04714123569832718,0.04714123569832718
266.21,0.0648898584904658,0.0648898584904658
266.211,0.07641623130859232,0.07641623130859232
266.212,0.07879687534166124,0.07879687534166124
266.213,0.07173917430164978,0.07173917430164978
266.214,0.057350378933607615,0.057350378933607615
266.215,0.03932451121189695,0.03932451121189695
266.216,0.021836298735932402,0.021836298735932402
266.217,0.008472726642936523,0.008472726642936523
266.218,0.0014749395358433226,0.0014749395358433226
266.219,0.0014358324759242702,0.0014358324759242702
266.22,0.007449313097989352,0.007449313097989352
266.221,0.01758417120749667,0.01758417120749667
266.222,0.02949210940464031,0.02949210940464031
266.223,0.0409651583476891,0.0409651583476891
266.224,0.05031785513435749,0.05031785513435749
266.225,0.05655385880316932,0.05655385880316932
266.226,0.05935170292871539,0.05935170292871539
266.227,0.05894595478867637,0.05894595478867637
266.228,0.055980685558643994,0.055980685558643994
266.229,0.051381498525632896,0.051381498525632896
266.23,0.046251038483053675,0.046251038483053675
266.231,0.04176278056054694,0.04176278056054694
266.232,0.03902281163970289,0.03902281163970289
266.233,0.03888992230055144,0.03888992230055144
266.234,0.04177879218083391,0.04177879218083391
266.235,0.04750100578534422,0.04750100578534422
266.236,0.05520762460613682,0.05520762460613682
266.237,0.063477893258721,0.063477893258721
266.238,0.07055671977357614,0.07055671977357614
266.239,0.07469455054107432,0.07469455054107432
266.24,0.07450664767380344,0.07450664767380344
266.241,0.06925962899738924,0.06925962899738924
266.242,0.05901566759572163,0.05901566759572163
266.243,0.044610429861826395,0.044610429861826395
266.244,0.027491768815852913,0.027491768815852913
266.245,0.009482514515163354,0.009482514515163354
266.246,0.007461118802470135,-0.007461118802470135
266.247,0.021445370626365534,-0.021445370626365534
266.248,0.030778340269064564,-0.030778340269064564
266.249,0.03408018303009419,-0.03408018303009419
266.25,0.030408280094859963,-0.030408280094859963
266.251,0.01942721563886174,-0.01942721563886174
266.252,0.0016117065127637664,-0.0016117065127637664
266.253,0.02158057047597306,0.02158057047597306
266.254,0.04766487897902927,0.04766487897902927
266.255,0.07331045030565941,0.07331045030565941
266.256,0.09479390857366088,0.09479390857366088
266.257,0.1086860117127526,0.1086860117127526
266.258,0.11263615215676781,0.11263615215676781
266.259,0.1060484720754502,0.1060484720754502
266.26,0.09043066164823843,0.09043066164823843
266.261,0.06925654872376596,0.06925654872376596
266.262,0.04730687922534771,0.04730687922534771
266.263,0.02960578539268699,0.02960578539268699
266.264,0.02020559003526401,0.02020559003526401
266.265,0.021143277438302688,0.021143277438302688
266.266,0.03186918506856662,0.03186918506856662
266.267,0.04933204516947942,0.04933204516947942
266.268,0.06872499987731273,0.06872499987731273
266.269,0.08470743880871345,0.08470743880871345
266.27,0.09277602935186513,0.09277602935186513
266.271,0.09041037266111696,0.09041037266111696
266.272,0.07768104814411303,0.07768104814411303
266.273,0.057162562362680136,0.057162562362680136
266.274,0.03319380637000613,0.03319380637000613
266.275,0.01071275748262357,0.01071275748262357
266.27599999999995,0.005995397871877195,-0.005995397871877195
266.277,0.014289128541343343,-0.014289128541343343
266.278,0.013647396663623024,-0.013647396663623024
266.279,0.005543782012035092,-0.005543782012035092
266.28,0.007190485445383921,0.007190485445383921
266.281,0.0212828838600585,0.0212828838600585
266.282,0.03392424160555718,0.03392424160555718
266.283,0.043404246429519455,0.043404246429519455
266.284,0.04932919640124789,0.04932919640124789
266.285,0.0524166592963764,0.0524166592963764
266.286,0.053991162764102096,0.053991162764102096
266.287,0.055381064711096606,0.055381064711096606
266.28799999999995,0.057420865694775,0.057420865694775
266.289,0.06020230665021442,0.06020230665021442
266.29,0.063119158291018,0.063119158291018
266.291,0.06515137787879932,0.06515137787879932
266.292,0.06526668606588326,0.06526668606588326
266.293,0.06279902154192718,0.06279902154192718
266.294,0.05769201263667534,0.05769201263667534
266.295,0.05055385006509616,0.05055385006509616
266.296,0.042532789593984655,0.042532789593984655
266.297,0.03506810805942662,0.03506810805942662
266.298,0.029588781678770104,0.029588781678770104
266.299,0.027223936252447345,0.027223936252447345
266.29999999999995,0.028567642867289633,0.028567642867289633
266.301,0.03352085226041002,0.03352085226041002
266.302,0.041224891250691176,0.041224891250691176
266.303,0.05010382705348304,0.05010382705348304
266.304,0.058037681310948,0.058037681310948
266.305,0.0626816835214572,0.0626816835214572
266.306,0.06191932060072047,0.06191932060072047
266.307,0.054390363071079584,0.054390363071079584
266.308,0.039983463165345734,0.039983463165345734
266.309,0.020149011859352584,0.020149011859352584
266.31,0.0021060292335312036,-0.0021060292335312036
266.311,0.022622243066952263,-0.022622243066952263
266.31199999999995,0.03687000634333826,-0.03687000634333826
266.313,0.04096920421168271,-0.04096920421168271
266.314,0.03270644322359573,-0.03270644322359573
266.315,0.012269295934999591,-0.012269295934999591
266.316,0.017541228906640338,0.017541228906640338
266.317,0.051737094288072605,0.051737094288072605
266.318,0.08415378525991835,0.08415378525991835
266.319,0.10881836224501207,0.10881836224501207
266.32,0.12133108377062274,0.12133108377062274
266.321,0.1198948228404968,0.1198948228404968
266.322,0.1057122905024801,0.1057122905024801
266.323,0.08264231420371848,0.08264231420371848
266.324,0.05621246402546953,0.05621246402546953
266.325,0.0322630567718003,0.0322630567718003
266.326,0.01559213510159374,0.01559213510159374
266.327,0.008954204432133572,0.008954204432133572
266.328,0.012645284350353725,0.012645284350353725
266.329,0.024724532375175245,0.024724532375175245
266.33,0.0417387251145227,0.0417387251145227
266.331,0.059688862601409154,0.059688862601409154
266.332,0.07494495305859306,0.07494495305859306
266.333,0.08487866755100093,0.08487866755100093
266.334,0.08811338940807989,0.08811338940807989
266.335,0.08443514934826157,0.08443514934826157
266.336,0.07451228614484129,0.07451228614484129
266.337,0.05960095696336665,0.05960095696336665
266.338,0.04136348174679272,0.04136348174679272
266.339,0.02182451573401578,0.02182451573401578
266.34,0.0033842963682777505,0.0033842963682777505
266.341,0.01125206454898342,-0.01125206454898342
266.342,0.019354713174110527,-0.019354713174110527
266.343,0.018694123711349264,-0.018694123711349264
266.344,0.008216210695432213,-0.008216210695432213
266.345,0.011343966192902899,0.011343966192902899
266.346,0.03717013263425528,0.03717013263425528
266.347,0.06460377188333566,0.06460377188333566
266.348,0.08797780179180736,0.08797780179180736
266.349,0.10191040998111389,0.10191040998111389
266.35,0.10274107285635226,0.10274107285635226
266.351,0.08969106395600046,0.08969106395600046
266.352,0.06536013162326793,0.06536013162326793
266.353,0.03533315204105647,0.03533315204105647
266.354,0.006923117265994927,0.006923117265994927
266.355,0.012656667893278906,-0.012656667893278906
266.356,0.018204047117930666,-0.018204047117930666
266.357,0.007981106355133605,-0.007981106355133605
266.358,0.01572406023303219,0.01572406023303219
266.359,0.04711452236124947,0.04711452236124947
266.36,0.07835894674203603,0.07835894674203603
266.361,0.10162274984782904,0.10162274984782904
266.362,0.1110930753994328,0.1110930753994328
266.363,0.10443887459001622,0.10443887459001622
266.364,0.08331597816845004,0.08331597816845004
266.365,0.05280692982139268,0.05280692982139268
266.366,0.019989833241987665,0.019989833241987665
266.367,0.007932514078857644,-0.007932514078857644
266.368,0.02541067192986457,-0.02541067192986457
266.369,0.02975968614598501,-0.02975968614598501
266.37,0.021521183345936556,-0.021521183345936556
266.371,0.0039544211270079455,-0.0039544211270079455
266.372,0.018119629548592586,0.018119629548592586
266.373,0.0397370408370028,0.0397370408370028
266.374,0.05705449006819219,0.05705449006819219
266.375,0.06813000078008091,0.06813000078008091
266.376,0.07306837034088298,0.07306837034088298
266.377,0.07357730437628618,0.07357730437628618
266.378,0.07214056496351273,0.07214056496351273
266.379,0.07109405512262268,0.07109405512262268
266.38,0.07187747385401466,0.07187747385401466
266.381,0.07464582731391012,0.07464582731391012
266.382,0.07829957657890896,0.07829957657890896
266.383,0.08087223240159624,0.08087223240159624
266.384,0.08013269271067891,0.08013269271067891
266.385,0.0742308845980908,0.0742308845980908
266.386,0.062234276303699376,0.062234276303699376
266.387,0.04445145145987062,0.04445145145987062
266.388,0.02249580562876119,0.02249580562876119
266.389,0.0009082792932512129,-0.0009082792932512129
266.39,0.02233858320922133,-0.02233858320922133
266.391,0.03824414761642003,-0.03824414761642003
266.392,0.04558647691404827,-0.04558647691404827
266.393,0.042450392630004385,-0.042450392630004385
266.394,0.028509515443575495,-0.028509515443575495
266.395,0.005234958771936582,-0.005234958771936582
266.396,0.02423360639473171,0.02423360639473171
266.397,0.05557376589229124,0.05557376589229124
266.398,0.08405798150615063,0.08405798150615063
266.399,0.10547208964744592,0.10547208964744592
266.4,0.11696492958163152,0.11696492958163152
266.40099999999995,0.11761319317895325,0.11761319317895325
266.402,0.10854374677943301,0.10854374677943301
266.403,0.09256858149027325,0.09256858149027325
266.404,0.07342463009651556,0.07342463009651556
266.405,0.05482892661983585,0.05482892661983585
266.406,0.03961795936422563,0.03961795936422563
266.407,0.029214850477819132,0.029214850477819132
266.408,0.023563004288093437,0.023563004288093437
266.409,0.021512300811581175,0.021512300811581175
266.41,0.021494653157466015,0.021494653157466015
266.411,0.022232035766322822,0.022232035766322822
266.412,0.023216558014928168,0.023216558014928168
266.41299999999995,0.02479226918570343,0.02479226918570343
266.414,0.02782166611996062,0.02782166611996062
266.415,0.033081597942447916,0.033081597942447916
266.416,0.04064356235511668,0.04064356235511668
266.417,0.04950922027081761,0.04950922027081761
266.418,0.05768377844333794,0.05768377844333794
266.419,0.0627066358092978,0.0627066358092978
266.42,0.06247864359578181,0.06247864359578181
266.421,0.05609569805582826,0.05609569805582826
266.422,0.04437067229482672,0.04437067229482672
266.423,0.02981586240936096,0.02981586240936096
266.424,0.01603909530355252,0.01603909530355252
266.42499999999995,0.006716423044730302,0.006716423044730302
266.426,0.0044673460384667685,0.0044673460384667685
266.427,0.010012848120593443,0.010012848120593443
266.428,0.021917198799613624,0.021917198799613624
266.429,0.03702404700768791,0.03702404700768791
266.43,0.051459558181139675,0.051459558181139675
266.431,0.06187357067619481,0.06187357067619481
266.432,0.06649739250230025,0.06649739250230025
266.433,0.06565056381517098,0.06565056381517098
266.434,0.061514129605964474,0.061514129605964474
266.435,0.05724264065755014,0.05724264065755014
266.436,0.05572257033247885,0.05572257033247885
266.43699999999995,0.05841690538889788,0.05841690538889788
266.438,0.06471486534815707,0.06471486534815707
266.439,0.07203579567076934,0.07203579567076934
266.44,0.07667414151445162,0.07667414151445162
266.441,0.07510888022190754,0.07510888022190754
266.442,0.06532901231409438,0.06532901231409438
266.443,0.04770906077798065,0.04770906077798065
266.444,0.02511396551630063,0.02511396551630063
266.445,0.002172833692575482,0.002172833692575482
266.446,0.016053774292141942,-0.016053774292141942
266.447,0.025577365984484235,-0.025577365984484235
266.448,0.024657740497530223,-0.024657740497530223
266.449,0.014262663902968042,-0.014262663902968042
266.45,0.002335215325292017,0.002335215325292017
266.451,0.02067742518932625,0.02067742518932625
266.452,0.036566792890518895,0.036566792890518895
266.453,0.04734908477781752,0.04734908477781752
266.454,0.052601443228088796,0.052601443228088796
266.455,0.054012944862450674,0.054012944862450674
266.456,0.05452715131390118,0.05452715131390118
266.457,0.05707232047496946,0.05707232047496946
266.458,0.06334271775318312,0.06334271775318312
266.459,0.07306735227843086,0.07306735227843086
266.46,0.08402221450720004,0.08402221450720004
266.461,0.09277435881308604,0.09277435881308604
266.462,0.0958866910486027,0.0958866910486027
266.463,0.09115262396094703,0.09115262396094703
266.464,0.07842475932350079,0.07842475932350079
266.465,0.05975069145562828,0.05975069145562828
266.466,0.03877652821082744,0.03877652821082744
266.467,0.019635315621723715,0.019635315621723715
266.468,0.005712080632018779,0.005712080632018779
266.469,0.001290577645227331,-0.001290577645227331
266.47,0.0016808342558215505,-0.0016808342558215505
266.471,0.002582235511725539,0.002582235511725539
266.472,0.008772964198894728,0.008772964198894728
266.473,0.014464255667910875,0.014464255667910875
266.474,0.018379424341024908,0.018379424341024908
266.475,0.020730175901815917,0.020730175901815917
266.476,0.022940584811719678,0.022940584811719678
266.477,0.026888541326441695,0.026888541326441695
266.478,0.033973558053634,0.033973558053634
266.479,0.04437896964874444,0.04437896964874444
266.48,0.056817725677505315,0.056817725677505315
266.481,0.06886534277692236,0.06886534277692236
266.482,0.07776106583709641,0.07776106583709641
266.483,0.08138143911165985,0.08138143911165985
266.484,0.07902412066977837,0.07902412066977837
266.485,0.07170747329231686,0.07170747329231686
266.486,0.061867459434355565,0.061867459434355565
266.487,0.05255252518706577,0.05255252518706577
266.488,0.04639922752937076,0.04639922752937076
266.489,0.04475041847334471,0.04475041847334471
266.49,0.04722609169830583,0.04722609169830583
266.491,0.051894532294586515,0.051894532294586515
266.492,0.055978031957548025,0.055978031957548025
266.493,0.05684049615561482,0.05684049615561482
266.494,0.052910298392809585,0.052910298392809585
266.495,0.04422248634132586,0.04422248634132586
266.496,0.03240605295918497,0.03240605295918497
266.497,0.020140935063104104,0.020140935063104104
266.498,0.010292820267759017,0.010292820267759017
266.499,0.005036449798266451,0.005036449798266451
266.5,0.005265801108929047,0.005265801108929047
266.501,0.010471053118899398,0.010471053118899398
266.502,0.01908480450619421,0.01908480450619421
266.503,0.029130949569922793,0.029130949569922793
266.504,0.038910935477749486,0.038910935477749486
266.505,0.0474677046880112,0.0474677046880112
266.506,0.054671321890786384,0.054671321890786384
266.507,0.060929225196808545,0.060929225196808545
266.508,0.06667558836207843,0.06667558836207843
266.509,0.07188007558948373,0.07188007558948373
266.51,0.07580424828770416,0.07580424828770416
266.511,0.07713002994114593,0.07713002994114593
266.512,0.0744302096132532,0.0744302096132532
266.513,0.06680641469502868,0.06680641469502868
266.514,0.05444176527066369,0.05444176527066369
266.515,0.0388345273033357,0.0388345273033357
266.516,0.022589353061085893,0.022589353061085893
266.517,0.00880326266007847,0.00880326266007847
266.518,0.00023432463336581222,0.00023432463336581222
266.519,0.0014745085883439701,-0.0014745085883439701
266.52,0.003742470807887921,0.003742470807887921
266.521,0.014377719346946538,0.014377719346946538
266.522,0.027812111161857445,0.027812111161857445
266.523,0.04107069185390988,0.04107069185390988
266.524,0.051615660620446535,0.051615660620446535
266.525,0.057921064371105,0.057921064371105
266.52599999999995,0.05966658019605653,0.05966658019605653
266.527,0.057534946965694944,0.057534946965694944
266.528,0.05274212518834154,0.05274212518834154
266.529,0.0465163467470866,0.0465163467470866
266.53,0.03974020243949661,0.03974020243949661
266.531,0.03288224239878956,0.03288224239878956
266.532,0.02620824196345417,0.02620824196345417
266.533,0.02013341202998009,0.02013341202998009
266.534,0.015508652864932193,0.015508652864932193
266.535,0.01365583319307806,0.01365583319307806
266.536,0.01607252273322546,0.01607252273322546
266.537,0.02387502841644573,0.02387502841644573
266.53799999999995,0.03718041061381716,0.03718041061381716
266.539,0.054687715494354805,0.054687715494354805
266.54,0.0736762379789031,0.0736762379789031
266.541,0.09050321521864446,0.09050321521864446
266.542,0.1015009439140202,0.1015009439140202
266.543,0.10401100061684487,0.10401100061684487
266.544,0.09721460032714702,0.09721460032714702
266.545,0.0824589525677859,0.0824589525677859
266.546,0.06293293487862184,0.06293293487862184
266.547,0.04276248124802584,0.04276248124802584
266.548,0.025801659275757727,0.025801659275757727
266.549,0.014514618512230903,0.014514618512230903
266.54999999999995,0.009329117269326392,0.009329117269326392
266.551,0.008692739815298722,0.008692739815298722
266.552,0.009825072222614306,0.009825072222614306
266.553,0.009913349986564457,0.009913349986564457
266.554,0.0073319125470208135,0.0073319125470208135
266.555,0.0024394392030984147,0.0024394392030984147
266.556,0.002362398373496166,-0.002362398373496166
266.557,0.0033783162014703327,-0.0033783162014703327
266.558,0.0030368970078025193,0.0030368970078025193
266.559,0.018977084034431657,0.018977084034431657
266.56,0.04384609720477384,0.04384609720477384
266.561,0.07401209839217615,0.07401209839217615
266.56199999999995,0.1034448818929552,0.1034448818929552
266.563,0.12521082114990612,0.12521082114990612
266.564,0.13341123352864526,0.13341123352864526
266.565,0.12498369630708894,0.12498369630708894
266.566,0.10079994619261301,0.10079994619261301
266.567,0.06568867377983767,0.06568867377983767
266.568,0.027328682212091726,0.027328682212091726
266.569,0.005700546330841161,-0.005700546330841161
266.57,0.026164491047890315,-0.026164491047890315
266.571,0.030073110314167484,-0.030073110314167484
266.572,0.01768936253550768,-0.01768936253550768
266.573,0.0066375385284482835,0.0066375385284482835
266.574,0.0357549787165683,0.0357549787165683
266.575,0.061725119331505596,0.061725119331505596
266.576,0.07799375746575254,0.07799375746575254
266.577,0.08109719387472603,0.08109719387472603
266.578,0.07144553919609842,0.07144553919609842
266.579,0.05300058558863685,0.05300058558863685
266.58,0.031987549978026664,0.031987549978026664
266.581,0.015046855582949048,0.015046855582949048
266.582,0.007369409109296177,0.007369409109296177
266.583,0.011333402424940076,0.011333402424940076
266.584,0.025989110740720633,0.025989110740720633
266.585,0.047478978624629464,0.047478978624629464
266.586,0.07021392177134067,0.07021392177134067
266.587,0.08843032689340968,0.08843032689340968
266.588,0.09767690293885334,0.09767690293885334
266.589,0.09583840183000314,0.09583840183000314
266.59,0.08346666341079745,0.08346666341079745
266.591,0.0634023941673223,0.0634023941673223
266.592,0.03986788887389503,0.03986788887389503
266.593,0.017336374893811346,0.017336374893811346
266.594,0.0004915435050825145,-0.0004915435050825145
266.595,0.011346862107147748,-0.011346862107147748
266.596,0.014568471069705269,-0.014568471069705269
266.597,0.010836244537481443,-0.010836244537481443
266.598,0.0016270166121145069,-0.0016270166121145069
266.599,0.011380271844687373,0.011380271844687373
266.6,0.026742436060026575,0.026742436060026575
266.601,0.04340935917166977,0.04340935917166977
266.602,0.0605949548877851,0.0605949548877851
266.603,0.07746658678284302,0.07746658678284302
266.604,0.09282502987396568,0.09282502987396568
266.605,0.10495019850331166,0.10495019850331166
266.606,0.11172719270109033,0.11172719270109033
266.607,0.11106350554914601,0.11106350554914601
266.608,0.10149591270841318,0.10149591270841318
266.609,0.08280196010475893,0.08280196010475893
266.61,0.056404770587724196,0.056404770587724196
266.611,0.02540221014774069,0.02540221014774069
266.612,0.005847936094862671,-0.005847936094862671
266.613,0.03252514174728027,-0.03252514174728027
266.614,0.05034389774554926,-0.05034389774554926
266.615,0.05649776291654518,-0.05649776291654518
266.616,0.05029511299052891,-0.05029511299052891
266.617,0.033307190874348525,-0.033307190874348525
266.618,0.00897988996244481,-0.00897988996244481
266.619,0.01819059283910618,0.01819059283910618
266.62,0.04369606094006029,0.04369606094006029
266.621,0.06398864494795076,0.06398864494795076
266.622,0.0771322967301975,0.0771322967301975
266.623,0.08297950015517319,0.08297950015517319
266.624,0.08286485210400185,0.08286485210400185
266.625,0.07895158216968934,0.07895158216968934
266.626,0.07346422239252348,0.07346422239252348
266.627,0.06805941016087669,0.06805941016087669
266.628,0.06352182207852342,0.06352182207852342
266.629,0.05984626665080839,0.05984626665080839
266.63,0.0566238830307082,0.0566238830307082
266.631,0.05354060493346635,0.05354060493346635
266.632,0.05075909584707006,0.05075909584707006
266.633,0.04900565122569467,0.04900565122569467
266.634,0.0493043653057359,0.0493043653057359
266.635,0.052449096286037555,0.052449096286037555
266.636,0.05842442395554559,0.05842442395554559
266.637,0.06603233273175979,0.06603233273175979
266.638,0.07292938976357832,0.07292938976357832
266.639,0.07614207793691063,0.07614207793691063
266.64,0.07295034225660069,0.07295034225660069
266.641,0.06187403195502261,0.06187403195502261
266.642,0.04342295987957501,0.04342295987957501
266.643,0.020312808770230006,0.020312808770230006
266.644,0.002998882026252314,-0.002998882026252314
266.645,0.02138468344622879,-0.02138468344622879
266.646,0.030442971995060186,-0.030442971995060186
266.647,0.027800467965460318,-0.027800467965460318
266.648,0.013902855612508036,-0.013902855612508036
266.649,0.007987315589992994,0.007987315589992994
266.65,0.03262696293788925,0.03262696293788925
266.65099999999995,0.05423909589323683,0.05423909589323683
266.652,0.06814181610331027,0.06814181610331027
266.653,0.07205985250308866,0.07205985250308866
266.654,0.0667076167363223,0.0667076167363223
266.655,0.05545782061618043,0.05545782061618043
266.656,0.04319989930462742,0.04319989930462742
266.657,0.034753018951182435,0.034753018951182435
266.658,0.03334240883320372,0.03334240883320372
266.659,0.03962585008564368,0.03962585008564368
266.66,0.05157514787386863,0.05157514787386863
266.661,0.06523505083399472,0.06523505083399472
266.662,0.07609343025377058,0.07609343025377058
266.66299999999995,0.08059829197409218,0.08059829197409218
266.664,0.07731572874054282,0.07731572874054282
266.665,0.0673514203665928,0.0673514203665928
266.666,0.053912098515791484,0.053912098515791484
266.667,0.041175278879634236,0.041175278879634236
266.668,0.032865754605620134,0.032865754605620134
266.669,0.03102796271662056,0.03102796271662056
266.67,0.035405224180150796,0.035405224180150796
266.671,0.043619419055112685,0.043619419055112685
266.672,0.05206522534985747,0.05206522534985747
266.673,0.05718954218951766,0.05718954218951766
266.674,0.05670319793775791,0.05670319793775791
266.67499999999995,0.0503093497512086,0.0503093497512086
266.676,0.03971479076226969,0.03971479076226969
266.677,0.027949604252522686,0.027949604252522686
266.678,0.01826375281763748,0.01826375281763748
266.679,0.01300997584701058,0.01300997584701058
266.68,0.01291248170825754,0.01291248170825754
266.681,0.016966978306726777,0.016966978306726777
266.682,0.02297819991843153,0.02297819991843153
266.683,0.028505182398880002,0.028505182398880002
266.684,0.03183878585982525,0.03183878585982525
266.685,0.03263316413973705,0.03263316413973705
266.686,0.0319527592729516,0.0319527592729516
266.68699999999995,0.031725815555294856,0.031725815555294856
266.688,0.03382792821507641,0.03382792821507641
266.689,0.039166888224477114,0.039166888224477114
266.69,0.047146264945930216,0.047146264945930216
266.691,0.055745386479479686,0.055745386479479686
266.692,0.06221784567515476,0.06221784567515476
266.693,0.06416633515847536,0.06416633515847536
266.694,0.06059060484004597,0.06059060484004597
266.695,0.052490969513479424,0.052490969513479424
266.696,0.042752720630818475,0.042752720630818475
266.697,0.03528994286375431,0.03528994286375431
266.698,0.03370171453155191,0.03370171453155191
266.699,0.039890141031972526,0.039890141031972526
266.7,0.05313402756693786,0.05313402756693786
266.701,0.06998257757963922,0.06998257757963922
266.702,0.08506992344723296,0.08506992344723296
266.703,0.09264155514926053,0.09264155514926053
266.704,0.0883339341852567,0.0883339341852567
266.705,0.07064600672384569,0.07064600672384569
266.706,0.041623645166720236,0.041623645166720236
266.707,0.0065198960384231786,0.0065198960384231786
266.708,0.027484583194891887,-0.027484583194891887
266.709,0.05312223825789697,-0.05312223825789697
266.71,0.06489184892439659,-0.06489184892439659
266.711,0.06038408268042794,-0.06038408268042794
266.712,0.04071925353696959,-0.04071925353696959
266.713,0.01002463134305065,-0.01002463134305065
266.714,0.02582494773412125,0.02582494773412125
266.715,0.06077205623897064,0.06077205623897064
266.716,0.08996167014804035,0.08996167014804035
266.717,0.11056798265414702,0.11056798265414702
266.718,0.12190699693291585,0.12190699693291585
266.719,0.12493161311849943,0.12493161311849943
266.72,0.12139918278080941,0.12139918278080941
266.721,0.1130715829370188,0.1130715829370188
266.722,0.10123917337206012,0.10123917337206012
266.723,0.08668857987613943,0.08668857987613943
266.724,0.07003232672792858,0.07003232672792858
266.725,0.052166116794957196,0.052166116794957196
