Czas,AbsSum,Sum
206.386,0.04031900858790465,-0.04031900858790465
206.387,0.043235207086651704,-0.043235207086651704
206.388,0.03742597816008265,-0.03742597816008265
206.389,0.02441476573781642,-0.02441476573781642
206.39000000000001,0.007729752330014302,-0.007729752330014302
206.39100000000002,0.008221429984968616,0.008221429984968616
206.392,0.01956973799159483,0.01956973799159483
206.393,0.024207619090033185,0.024207619090033185
206.394,0.02239176267414241,0.02239176267414241
206.395,0.016516702474006766,0.016516702474006766
206.39600000000002,0.010143945598937826,0.010143945598937826
206.39700000000002,0.006637642897262338,0.006637642897262338
206.398,0.0079000996020607,0.0079000996020607
206.399,0.013665615724909286,0.013665615724909286
206.4,0.021609884941101217,0.021609884941101217
206.401,0.02823582422277351,0.02823582422277351
206.40200000000002,0.030212125940728904,0.030212125940728904
206.40300000000002,0.02567188897311847,0.02567188897311847
206.404,0.014988331240362144,0.014988331240362144
206.405,0.0007313468174732173,0.0007313468174732173
206.406,0.013193571717961664,-0.013193571717961664
206.407,0.02292120541174057,-0.02292120541174057
206.40800000000002,0.026019632812535633,-0.026019632812535633
206.40900000000002,0.022387130027041936,-0.022387130027041936
206.41,0.014311549237785541,-0.014311549237785541
206.411,0.005650416283916286,-0.005650416283916286
206.412,0.00041045826845761464,-0.00041045826845761464
206.413,0.0012306943451123795,-0.0012306943451123795
206.41400000000002,0.00832057957908736,-0.00832057957908736
206.41500000000002,0.019254116913080647,-0.019254116913080647
206.416,0.029723370458124877,-0.029723370458124877
206.417,0.03501461839639753,-0.03501461839639753
206.418,0.03170793195499901,-0.03170793195499901
206.419,0.019010095784016835,-0.019010095784016835
206.42000000000002,0.0007547672311141769,0.0007547672311141769
206.42100000000002,0.022691193393288973,0.022691193393288973
206.422,0.04075822862778005,0.04075822862778005
206.423,0.049618872236958524,0.049618872236958524
206.424,0.046311962926082854,0.046311962926082854
206.425,0.03120378335609511,0.03120378335609511
206.42600000000002,0.007916460803218705,0.007916460803218705
206.42700000000002,0.017732542528790758,-0.017732542528790758
206.428,0.03942665750710865,-0.03942665750710865
206.429,0.05213512982636462,-0.05213512982636462
206.43,0.05343194801929844,-0.05343194801929844
206.431,0.0439683259971936,-0.0439683259971936
206.43200000000002,0.02700847931634941,-0.02700847931634941
206.43300000000002,0.007242077589556277,-0.007242077589556277
206.434,0.01069827656427838,0.01069827656427838
206.435,0.0235263937112134,0.0235263937112134
206.436,0.030015597024347536,0.030015597024347536
206.437,0.030975207556324304,0.030975207556324304
206.43800000000002,0.02858609386704615,0.02858609386704615
206.43900000000002,0.025390882403553434,0.025390882403553434
206.44,0.023315298785923096,0.023315298785923096
206.441,0.02304275434701557,0.02304275434701557
206.442,0.023907246414767897,0.023907246414767897
206.443,0.0242753966157556,0.0242753966157556
206.44400000000002,0.022228884748441438,0.022228884748441438
206.44500000000002,0.016285142758351173,0.016285142758351173
206.446,0.005921160452434523,0.005921160452434523
206.447,0.008231817366850925,-0.008231817366850925
206.448,0.02452556260107604,-0.02452556260107604
206.449,0.040663641893658085,-0.040663641893658085
206.45000000000002,0.05415813275878984,-0.05415813275878984
206.45100000000002,0.06275184726090799,-0.06275184726090799
206.452,0.0647446835712959,-0.0647446835712959
206.453,0.05922489662979498,-0.05922489662979498
206.454,0.04623552817705131,-0.04623552817705131
206.455,0.02689027085713338,-0.02689027085713338
206.45600000000002,0.0034059132363353653,-0.0034059132363353653
206.45700000000002,0.021025779134498008,0.021025779134498008
206.458,0.04260866974198759,0.04260866974198759
206.459,0.05758253281649506,0.05758253281649506
206.46,0.06305541396916975,0.06305541396916975
206.461,0.05783441115177553,0.05783441115177553
206.46200000000002,0.042987885514295276,0.042987885514295276
206.46300000000002,0.021887804111881605,0.021887804111881605
206.464,0.0003982741131413418,-0.0003982741131413418
206.465,0.01829638516369607,-0.01829638516369607
206.466,0.027212876770846234,-0.027212876770846234
206.467,0.024886603238542596,-0.024886603238542596
206.46800000000002,0.01215919960677794,-0.01215919960677794
206.46900000000002,0.007141619739781297,0.007141619739781297
206.47,0.027243314897605266,0.027243314897605266
206.471,0.04212285741836004,0.04212285741836004
206.472,0.047339995476769155,0.047339995476769155
206.473,0.04141273688605223,0.04141273688605223
206.47400000000002,0.026259022244429005,0.026259022244429005
206.47500000000002,0.006524596636683808,0.006524596636683808
206.476,0.012005591394012874,-0.012005591394012874
206.477,0.02438684480943019,-0.02438684480943019
206.478,0.02820117423712081,-0.02820117423712081
206.479,0.02434536667686855,-0.02434536667686855
206.48000000000002,0.016614888343845082,-0.016614888343845082
206.48100000000002,0.010201702631438277,-0.010201702631438277
206.482,0.009624793210922621,-0.009624793210922621
206.483,0.016842944537236136,-0.016842944537236136
206.484,0.03026757878378398,-0.03026757878378398
206.485,0.04509740829529281,-0.04509740829529281
206.48600000000002,0.05493062095039702,-0.05493062095039702
206.48700000000002,0.05413512113454511,-0.05413512113454511
206.488,0.04014529503090809,-0.04014529503090809
206.489,0.014826735548574726,-0.014826735548574726
206.49,0.015666628452262705,0.015666628452262705
206.491,0.042610888040737586,0.042610888040737586
206.49200000000002,0.05751174600344254,0.05751174600344254
206.493,0.05507233077182164,0.05507233077182164
206.494,0.03529695760394531,0.03529695760394531
206.495,0.003935963643361004,0.003935963643361004
206.496,0.028995263282412302,-0.028995263282412302
206.497,0.052242160808597046,-0.052242160808597046
206.49800000000002,0.056952747077889956,-0.056952747077889956
206.499,0.039750831251141226,-0.039750831251141226
206.5,0.0041922288026221,-0.0041922288026221
206.501,0.03994991277757631,0.03994991277757631
206.502,0.07942787987942802,0.07942787987942802
206.50300000000001,0.10147791315841494,0.10147791315841494
206.50400000000002,0.09776486457258321,0.09776486457258321
206.505,0.06706233611821351,0.06706233611821351
206.506,0.015805528054280957,0.015805528054280957
206.507,0.043673573259241996,-0.043673573259241996
206.508,0.09668252718681178,-0.09668252718681178
206.50900000000001,0.13037188025008595,-0.13037188025008595
206.51000000000002,0.137303827562515,-0.137303827562515
206.511,0.11730892729774406,-0.11730892729774406
206.512,0.07712099860506719,-0.07712099860506719
206.513,0.02799773028905746,-0.02799773028905746
206.514,0.017836998099725887,0.017836998099725887
206.51500000000001,0.050757782791146545,0.050757782791146545
206.51600000000002,0.06619716790663685,0.06619716790663685
206.517,0.06530759183060868,0.06530759183060868
206.518,0.0537602651422571,0.0537602651422571
206.519,0.03923084037623308,0.03923084037623308
206.52,0.02851925295715279,0.02851925295715279
206.52100000000002,0.025306348232048498,0.025306348232048498
206.52200000000002,0.02926054645198702,0.02926054645198702
206.523,0.03669016796572514,0.03669016796572514
206.524,0.04238159309197016,0.04238159309197016
206.525,0.041865767325551216,0.041865767325551216
206.526,0.033247875909684116,0.033247875909684116
206.52700000000002,0.017941989786038462,0.017941989786038462
206.52800000000002,8.650056979377347e-05,8.650056979377347e-05
206.529,0.015087695260287167,-0.015087695260287167
206.53,0.023286931128063664,-0.023286931128063664
206.531,0.022806344947563447,-0.022806344947563447
206.532,0.015188385968226878,-0.015188385968226878
206.53300000000002,0.004654841377526272,-0.004654841377526272
206.53400000000002,0.0034641646559297585,0.0034641646559297585
206.535,0.004716363767551952,0.004716363767551952
206.536,0.002801356359098095,-0.002801356359098095
206.537,0.017690905519744983,-0.017690905519744983
206.538,0.03568300520503732,-0.03568300520503732
206.53900000000002,0.051083285496793675,-0.051083285496793675
206.54000000000002,0.05870906178718542,-0.05870906178718542
206.541,0.05562869015199367,-0.05562869015199367
206.542,0.04210248480237244,-0.04210248480237244
206.543,0.02142277196661057,-0.02142277196661057
206.544,0.0012524485090320626,0.0012524485090320626
206.54500000000002,0.020627701726559002,0.020627701726559002
206.54600000000002,0.03293615003952285,0.03293615003952285
206.547,0.0369693747152006,0.0369693747152006
206.548,0.034149443773928714,0.034149443773928714
206.549,0.02767954264141233,0.02767954264141233
206.55,0.02113900650592356,0.02113900650592356
206.55100000000002,0.01707184597630398,0.01707184597630398
206.55200000000002,0.01609365071644077,0.01609365071644077
206.553,0.0168263577613416,0.0168263577613416
206.554,0.016649076312279056,0.016649076312279056
206.555,0.012947071694782398,0.012947071694782398
206.556,0.004361838748468359,0.004361838748468359
206.55700000000002,0.008445112231944977,-0.008445112231944977
206.55800000000002,0.022812390474010496,-0.022812390474010496
206.559,0.034884796222681896,-0.034884796222681896
206.56,0.040916392292503226,-0.040916392292503226
206.561,0.03860098007308174,-0.03860098007308174
206.562,0.027952595611775162,-0.027952595611775162
206.56300000000002,0.011422016861321334,-0.011422016861321334
206.56400000000002,0.006793377395507787,0.006793377395507787
206.565,0.02200945400575594,0.02200945400575594
206.566,0.030459109681906862,0.030459109681906862
206.567,0.030379019540741937,0.030379019540741937
206.568,0.022442481222044248,0.022442481222044248
206.56900000000002,0.009434021818794512,0.009434021818794512
206.57000000000002,0.004684092462639204,-0.004684092462639204
206.571,0.015976228455142138,-0.015976228455142138
206.572,0.02161182448879181,-0.02161182448879181
206.573,0.02050003089925656,-0.02050003089925656
206.574,0.013341430599239463,-0.013341430599239463
206.57500000000002,0.002165003208914903,-0.002165003208914903
206.57600000000002,0.010421292762560168,0.010421292762560168
206.577,0.021976923953078407,0.021976923953078407
206.578,0.03073225583330218,0.03073225583330218
206.579,0.03573873205887787,0.03573873205887787
206.58,0.03670761256880808,0.03670761256880808
206.58100000000002,0.033693488020896924,0.033693488020896924
206.58200000000002,0.02681500809937872,0.02681500809937872
206.583,0.016157165080169067,0.016157165080169067
206.584,0.0018947134645612433,0.0018947134645612433
206.585,0.015437120741682192,-0.015437120741682192
206.586,0.03467279810382089,-0.03467279810382089
206.58700000000002,0.053902374721116614,-0.053902374721116614
206.58800000000002,0.0706081733852796,-0.0706081733852796
206.589,0.0820488265556634,-0.0820488265556634
206.59,0.08579230913322486,-0.08579230913322486
206.591,0.08024571923611605,-0.08024571923611605
206.592,0.06503506773751559,-0.06503506773751559
206.59300000000002,0.041145683168059326,-0.041145683168059326
206.59400000000002,0.010814726430506273,-0.010814726430506273
206.595,0.022763732750053004,0.022763732750053004
206.596,0.05583016228228585,0.05583016228228585
206.597,0.08447085264950246,0.08447085264950246
206.598,0.10501527051467503,0.10501527051467503
206.59900000000002,0.11442759115680456,0.11442759115680456
206.60000000000002,0.1107129673621082,0.1107129673621082
206.601,0.09332979329156849,0.09332979329156849
206.602,0.06353959220675987,0.06353959220675987
206.603,0.02456794544862441,0.02456794544862441
206.604,0.01856844482486178,-0.01856844482486178
206.60500000000002,0.05966510160659461,-0.05966510160659461
206.60600000000002,0.09234508806071394,-0.09234508806071394
206.607,0.11131807022135883,-0.11131807022135883
206.608,0.11358514778629585,-0.11358514778629585
206.609,0.09923952558745383,-0.09923952558745383
206.61,0.07157568333194055,-0.07157568333194055
206.61100000000002,0.03639412086961314,-0.03639412086961314
206.61200000000002,0.000628399306585168,-0.000628399306585168
206.613,0.02935182413252429,0.02935182413252429
206.614,0.04927652363987541,0.04927652363987541
206.615,0.05788505628269434,0.05788505628269434
206.616,0.0569242972818909,0.0569242972818909
206.61700000000002,0.050236695581877405,0.050236695581877405
206.618,0.04224147127596847,0.04224147127596847
206.619,0.0363229699016431,0.0363229699016431
206.62,0.03368071510860171,0.03368071510860171
206.621,0.03304330538790217,0.03304330538790217
206.622,0.031348654306851076,0.031348654306851076
206.62300000000002,0.025147254158846336,0.025147254158846336
206.624,0.012215626084173783,0.012215626084173783
206.625,0.007225819063772527,-0.007225819063772527
206.626,0.03017213288507546,-0.03017213288507546
206.627,0.05154742008484791,-0.05154742008484791
206.62800000000001,0.06576836948842454,-0.06576836948842454
206.62900000000002,0.06863114270134048,-0.06863114270134048
206.63,0.05885143162454601,-0.05885143162454601
206.631,0.03868190080651818,-0.03868190080651818
206.632,0.013338784793539648,-0.013338784793539648
206.633,0.010613057351303122,0.010613057351303122
206.63400000000001,0.027386725984441848,0.027386725984441848
206.63500000000002,0.03387689857713832,0.03387689857713832
206.636,0.030657552563499935,0.030657552563499935
206.637,0.021689822956363063,0.021689822956363063
206.638,0.01280388449430169,0.01280388449430169
206.639,0.009460325610201428,0.009460325610201428
206.64000000000001,0.01457368494793938,0.01457368494793938
206.64100000000002,0.027189157547661012,0.027189157547661012
206.642,0.04253093523188914,0.04253093523188914
206.643,0.05347456781032969,0.05347456781032969
206.644,0.05299445887470275,0.05299445887470275
206.645,0.036776214942433265,0.036776214942433265
206.64600000000002,0.005092463512438579,0.005092463512438579
206.64700000000002,0.03674114649146,-0.03674114649146
206.648,0.0795537838992731,-0.0795537838992731
206.649,0.11282775829779845,-0.11282775829779845
206.65,0.12775448146607257,-0.12775448146607257
206.651,0.11986833592289953,-0.11986833592289953
206.65200000000002,0.09041393297928096,-0.09041393297928096
206.65300000000002,0.046009211227294566,-0.046009211227294566
206.654,0.003281151061596301,0.003281151061596301
206.655,0.04683651578292465,0.04683651578292465
206.656,0.07641103548447871,0.07641103548447871
206.657,0.08819142351717613,0.08819142351717613
206.65800000000002,0.08338119104811437,0.08338119104811437
206.65900000000002,0.0672130911255196,0.0672130911255196
206.66,0.04680977241028996,0.04680977241028996
206.661,0.02867118533013556,0.02867118533013556
206.662,0.01664928506101066,0.01664928506101066
206.663,0.011057244062844246,0.011057244062844246
206.66400000000002,0.009135214595166561,0.009135214595166561
206.66500000000002,0.006611926971263698,0.006611926971263698
206.666,0.00026948361189979266,-0.00026948361189979266
206.667,0.013027034166183343,-0.013027034166183343
206.668,0.030141488221256684,-0.030141488221256684
206.669,0.04745240134661423,-0.04745240134661423
206.67000000000002,0.05957896405105192,-0.05957896405105192
206.67100000000002,0.06183386732318775,-0.06183386732318775
206.672,0.051937672827330916,-0.051937672827330916
206.673,0.03093138606368529,-0.03093138606368529
206.674,0.002984699095408269,-0.002984699095408269
206.675,0.025807830134952896,0.025807830134952896
206.67600000000002,0.049204639726423124,0.049204639726423124
206.67700000000002,0.06255515894336551,0.06255515894336551
206.678,0.06393287389511101,0.06393287389511101
206.679,0.05434347581478867,0.05434347581478867
206.68,0.03703105752081434,0.03703105752081434
206.681,0.016216569605070626,0.016216569605070626
206.68200000000002,0.004229700127839763,-0.004229700127839763
206.68300000000002,0.021709606789968684,-0.021709606789968684
206.684,0.03514499385283731,-0.03514499385283731
206.685,0.04457571691245307,-0.04457571691245307
206.686,0.05039259958497039,-0.05039259958497039
206.687,0.052619044764456085,-0.052619044764456085
206.68800000000002,0.05060513948175241,-0.05060513948175241
206.68900000000002,0.04329421395456853,-0.04329421395456853
206.69,0.029949892727066017,-0.029949892727066017
206.691,0.011004619874684077,-0.011004619874684077
206.692,0.011396094811327322,0.011396094811327322
206.693,0.03348559415630047,0.03348559415630047
206.69400000000002,0.050693027922629294,0.050693027922629294
206.69500000000002,0.05897422000674076,0.05897422000674076
206.696,0.056206585231485126,0.056206585231485126
206.697,0.043119738728301577,0.043119738728301577
206.698,0.02335604186338735,0.02335604186338735
206.699,0.002544086982965358,0.002544086982965358
206.70000000000002,0.013377023773546683,-0.013377023773546683
206.70100000000002,0.02005348756889479,-0.02005348756889479
206.702,0.016187644730851745,-0.016187644730851745
206.703,0.00404980449127894,-0.00404980449127894
206.704,0.01119465305140017,0.01119465305140017
206.705,0.02316545504616005,0.02316545504616005
206.70600000000002,0.026419894304166202,0.026419894304166202
206.70700000000002,0.018359170906814243,0.018359170906814243
206.708,0.0002312282247640742,0.0002312282247640742
206.709,0.023136418516506288,-0.023136418516506288
206.71,0.044815507770117544,-0.044815507770117544
206.711,0.05799520215570683,-0.05799520215570683
206.71200000000002,0.0582078206628797,-0.0582078206628797
206.71300000000002,0.04481725995546489,-0.04481725995546489
206.714,0.021266041384336173,-0.021266041384336173
206.715,0.006008619351942121,0.006008619351942121
206.716,0.029631930614738972,0.029631930614738972
206.717,0.04363643466474504,0.04363643466474504
206.71800000000002,0.045313469570773555,0.045313469570773555
206.71900000000002,0.035958499356590234,0.035958499356590234
206.72,0.020272777097209867,0.020272777097209867
206.721,0.00463745333830021,0.00463745333830021
206.722,0.005145766200856675,-0.005145766200856675
206.723,0.0058783474901112675,-0.0058783474901112675
206.72400000000002,0.001930540282315267,0.001930540282315267
206.72500000000002,0.014247644674525144,0.014247644674525144
206.726,0.024920904688987104,0.024920904688987104
206.727,0.027831145818530925,0.027831145818530925
206.728,0.019069267887770254,0.019069267887770254
206.729,0.0015852494670067362,-0.0015852494670067362
206.73000000000002,0.03037256216149783,-0.03037256216149783
206.73100000000002,0.06054259771899998,-0.06054259771899998
206.732,0.08430552910696171,-0.08430552910696171
206.733,0.09511756179555614,-0.09511756179555614
206.734,0.08958298717098903,-0.08958298717098903
206.735,0.06839318568506199,-0.06839318568506199
206.73600000000002,0.0360437241673536,-0.0360437241673536
206.73700000000002,0.0005381984664924977,0.0005381984664924977
206.738,0.03399066679442497,0.03399066679442497
206.739,0.058502444572923216,0.058502444572923216
206.74,0.07118978573251401,0.07118978573251401
206.741,0.07249276805795883,0.07249276805795883
206.74200000000002,0.06554875347743346,0.06554875347743346
206.743,0.054823199000942305,0.054823199000942305
206.744,0.04449114972387481,0.04449114972387481
206.745,0.03710504409031779,0.03710504409031779
206.746,0.03295332974897392,0.03295332974897392
206.747,0.030263035853231146,0.030263035853231146
206.74800000000002,0.02611613206488751,0.02611613206488751
206.749,0.01772679667166484,0.01772679667166484
206.75,0.0036315193378047327,0.0036315193378047327
206.751,0.015602040594698252,-0.015602040594698252
206.752,0.037365469334206904,-0.037365469334206904
206.75300000000001,0.05768291046624992,-0.05768291046624992
206.75400000000002,0.07233551042523771,-0.07233551042523771
206.755,0.07807461295923254,-0.07807461295923254
206.756,0.07355006867709378,-0.07355006867709378
206.757,0.05968351566271938,-0.05968351566271938
206.758,0.039395565129342586,-0.039395565129342586
206.75900000000001,0.016791631687674547,-0.016791631687674547
206.76000000000002,0.003935568771042884,0.003935568771042884
206.761,0.01956018817169852,0.01956018817169852
206.762,0.02853768018582721,0.02853768018582721
206.763,0.031197082158116566,0.031197082158116566
206.764,0.02938869213344655,0.02938869213344655
206.76500000000001,0.025722727586843522,0.025722727586843522
206.76600000000002,0.022646463713878344,0.022646463713878344
206.767,0.021644131417853246,0.021644131417853246
206.768,0.022798253937480233,0.022798253937480233
206.769,0.02483820032500714,0.02483820032500714
206.77,0.025654101717805175,0.025654101717805175
206.77100000000002,0.023113224825781233,0.023113224825781233
206.77200000000002,0.0159209680680148,0.0159209680680148
206.773,0.0042475719331653275,0.0042475719331653275
206.774,0.010097112246852537,-0.010097112246852537
206.775,0.024028789778676306,-0.024028789778676306
206.776,0.034017781268987655,-0.034017781268987655
206.77700000000002,0.03715389591092931,-0.03715389591092931
206.77800000000002,0.03212578118263024,-0.03212578118263024
206.779,0.019792488183582098,-0.019792488183582098
206.78,0.0031252940601769717,-0.0031252940601769717
206.781,0.013522064699227544,0.013522064699227544
206.782,0.025645412887331236,0.025645412887331236
206.78300000000002,0.029976873991916012,0.029976873991916012
206.78400000000002,0.02559432071929925,0.02559432071929925
206.785,0.014368198665254754,0.014368198665254754
206.786,0.0005371445431635205,0.0005371445431635205
206.787,0.010533064997768632,-0.010533064997768632
206.788,0.014080253875589057,-0.014080253875589057
206.78900000000002,0.007646068724163361,-0.007646068724163361
206.79000000000002,0.007816695783649937,0.007816695783649937
206.791,0.02785386508612453,0.02785386508612453
206.792,0.04556998511548359,0.04556998511548359
206.793,0.05360932750818799,0.05360932750818799
206.794,0.04650671882114985,0.04650671882114985
206.79500000000002,0.022686122723926876,0.022686122723926876
206.79600000000002,0.014565849242824957,-0.014565849242824957
206.797,0.05755220141384484,-0.05755220141384484
206.798,0.09602021924724362,-0.09602021924724362
206.799,0.11994597772436226,-0.11994597772436226
206.8,0.12244670572131183,-0.12244670572131183
206.80100000000002,0.1019253223535623,-0.1019253223535623
206.80200000000002,0.06273989855680397,-0.06273989855680397
206.803,0.014117980332554769,-0.014117980332554769
206.804,0.03242302443337126,0.03242302443337126
206.805,0.06640250331839488,0.06640250331839488
206.806,0.08143441156971422,0.08143441156971422
206.80700000000002,0.07704647922321828,0.07704647922321828
206.80800000000002,0.05865284390885213,0.05865284390885213
206.809,0.03564568742598479,0.03564568742598479
206.81,0.018178939905869537,0.018178939905869537
206.811,0.013661325297433346,0.013661325297433346
206.812,0.024104942204619423,0.024104942204619423
206.81300000000002,0.04523453194550193,0.04523453194550193
206.81400000000002,0.06771633616854567,0.06771633616854567
206.815,0.08018154334999697,0.08018154334999697
206.816,0.07311677663372117,0.07311677663372117
206.817,0.04237306397784351,0.04237306397784351
206.818,0.008879948678163755,-0.008879948678163755
206.81900000000002,0.07046731991259014,-0.07046731991259014
206.82000000000002,0.12779437627689513,-0.12779437627689513
206.821,0.1659761449252266,-0.1659761449252266
206.822,0.1742614523752504,-0.1742614523752504
206.823,0.1493686120019584,-0.1493686120019584
206.824,0.09665622140834726,-0.09665622140834726
206.82500000000002,0.028711599025077677,-0.028711599025077677
206.82600000000002,0.03825338220477012,0.03825338220477012
206.827,0.08911026581867369,0.08911026581867369
206.828,0.11417258430865335,0.11417258430865335
206.829,0.11184463930152456,0.11184463930152456
206.83,0.08872746284310978,0.08872746284310978
206.83100000000002,0.057148109553454944,0.057148109553454944
206.83200000000002,0.03089717988004754,0.03089717988004754
206.833,0.02053624471774119,0.02053624471774119
206.834,0.029784790428769282,0.029784790428769282
206.835,0.05416402355188982,0.05416402355188982
206.836,0.082363993056683,0.082363993056683
206.83700000000002,0.09993420310972158,0.09993420310972158
206.83800000000002,0.0941503517187805,0.0941503517187805
206.839,0.058518949900481204,0.058518949900481204
206.84,0.0045267941820928345,-0.0045267941820928345
206.841,0.08363865500394635,-0.08363865500394635
206.842,0.16133778135299992,-0.16133778135299992
206.84300000000002,0.2187775837647082,-0.2187775837647082
206.84400000000002,0.24107377336523014,-0.24107377336523014
206.845,0.22160671823843014,-0.22160671823843014
206.846,0.16400682195852853,-0.16400682195852853
206.847,0.08123138172141145,-0.08123138172141145
206.848,0.00798593131988921,0.00798593131988921
206.84900000000002,0.08425292589729742,0.08425292589729742
206.85000000000002,0.1326949950960266,0.1326949950960266
206.851,0.1466921564057407,0.1466921564057407
206.852,0.12913967577272278,0.12913967577272278
206.853,0.09095383545698149,0.09095383545698149
206.854,0.0473654773605588,0.0473654773605588
206.85500000000002,0.013177788227566234,0.013177788227566234
206.85600000000002,0.001573833110099908,-0.001573833110099908
206.857,0.005700626744314986,0.005700626744314986
206.858,0.029844083098714422,0.029844083098714422
206.859,0.06000169687024434,0.06000169687024434
206.86,0.08329693324443209,0.08329693324443209
206.86100000000002,0.08895798701578711,0.08895798701578711
206.86200000000002,0.07163889880288893,0.07163889880288893
206.863,0.03297998023961878,0.03297998023961878
206.864,0.01897610417943228,-0.01897610417943228
206.865,0.07223822379017218,-0.07223822379017218
206.866,0.11437410236604606,-0.11437410236604606
206.86700000000002,0.13598518742997126,-0.13598518742997126
206.868,0.13313300328011135,-0.13313300328011135
206.869,0.10807029100249853,-0.10807029100249853
206.87,0.06817126670758962,-0.06817126670758962
206.871,0.023495514221141676,-0.023495514221141676
206.872,0.01620293777504007,0.01620293777504007
206.87300000000002,0.04409945002244343,0.04409945002244343
206.874,0.05780680425627677,0.05780680425627677
206.875,0.05940575306242467,0.05940575306242467
206.876,0.05410738749574054,0.05410738749574054
206.877,0.04806441151180967,0.04806441151180967
206.87800000000001,0.046074121584575196,0.046074121584575196
206.87900000000002,0.0499028786442017,0.0499028786442017
206.88,0.0577287433929156,0.0577287433929156
206.881,0.06482908633358991,0.06482908633358991
206.882,0.06525225911532508,0.06525225911532508
206.883,0.05392339473667023,0.05392339473667023
206.88400000000001,0.028523902889727025,0.028523902889727025
206.88500000000002,0.009425728030440245,-0.009425728030440245
206.886,0.054597736563818104,-0.054597736563818104
206.887,0.09898924896714709,-0.09898924896714709
206.888,0.133828667501868,-0.133828667501868
206.889,0.15172564566505328,-0.15172564566505328
206.89000000000001,0.14848713846625738,-0.14848713846625738
206.89100000000002,0.12413506705399437,-0.12413506705399437
206.892,0.08289190693114594,-0.08289190693114594
206.893,0.032178084232581027,-0.032178084232581027
206.894,0.01908791354408941,0.01908791354408941
206.895,0.062441408274797876,0.062441408274797876
206.89600000000002,0.09159995117790394,0.09159995117790394
206.89700000000002,0.10358312264463732,0.10358312264463732
206.898,0.09901488694766825,0.09901488694766825
206.899,0.08160989903558434,0.08160989903558434
206.9,0.05703470183822931,0.05703470183822931
206.901,0.03146063873096773,0.03146063873096773
206.90200000000002,0.01016507162265475,0.01016507162265475
206.90300000000002,0.0035083685444528123,-0.0035083685444528123
206.904,0.008631298442791284,-0.008631298442791284
206.905,0.006559823188985957,-0.006559823188985957
206.906,0.0002809248895210848,-0.0002809248895210848
206.907,0.0065635628698481364,0.0065635628698481364
206.90800000000002,0.010717113909587543,0.010717113909587543
206.90900000000002,0.010157903626619749,0.010157903626619749
206.91,0.004562488534550056,0.004562488534550056
206.911,0.00471011848321899,-0.00471011848321899
206.912,0.015088672491148366,-0.015088672491148366
206.913,0.0235779078682477,-0.0235779078682477
206.91400000000002,0.027650504327883695,-0.027650504327883695
206.91500000000002,0.02600231319997039,-0.02600231319997039
206.916,0.018963635170324688,-0.018963635170324688
206.917,0.008446604328816247,-0.008446604328816247
206.918,0.0025691960824901767,0.0025691960824901767
206.919,0.01088345662781701,0.01088345662781701
206.92000000000002,0.014025767556275352,0.014025767556275352
206.92100000000002,0.011039961162541053,0.011039961162541053
206.922,0.0028633582421720926,0.0028633582421720926
206.923,0.007836555088327927,-0.007836555088327927
206.924,0.017357533678493308,-0.017357533678493308
206.925,0.0220238356416513,-0.0220238356416513
206.92600000000002,0.01932807260985605,-0.01932807260985605
206.92700000000002,0.008823536757570433,-0.008823536757570433
206.928,0.0075150149223606345,0.0075150149223606345
206.929,0.025610328797107857,0.025610328797107857
206.93,0.04024315488806189,0.04024315488806189
206.931,0.04642802525768404,0.04642802525768404
206.93200000000002,0.04084332483671948,0.04084332483671948
206.93300000000002,0.02291582939918879,0.02291582939918879
206.934,0.004766299636585404,-0.004766299636585404
206.935,0.03686713567189113,-0.03686713567189113
206.936,0.06647507314888185,-0.06647507314888185
206.937,0.08675185773536907,-0.08675185773536907
206.93800000000002,0.09263516454051066,-0.09263516454051066
206.93900000000002,0.08214379733199836,-0.08214379733199836
206.94,0.05693216805133957,-0.05693216805133957
206.941,0.021938131970511816,-0.021938131970511816
206.942,0.015789099125092285,0.015789099125092285
206.943,0.04877460910453936,0.04877460910453936
206.94400000000002,0.07087595212845116,0.07087595212845116
206.94500000000002,0.0786604803109731,0.0786604803109731
206.946,0.07206045480209321,0.07206045480209321
206.947,0.054167124629861174,0.054167124629861174
206.948,0.03025894289165538,0.03025894289165538
206.949,0.006357857428824481,0.006357857428824481
206.95000000000002,0.012283272647408139,-0.012283272647408139
206.95100000000002,0.022366234535760046,-0.022366234535760046
206.952,0.023125482906034237,-0.023125482906034237
206.953,0.01620288944074867,-0.01620288944074867
206.954,0.004920901547722311,-0.004920901547722311
206.955,0.006791046336109721,0.006791046336109721
206.95600000000002,0.015493262274188617,0.015493262274188617
206.95700000000002,0.019060217690097317,0.019060217690097317
206.958,0.017045381206508028,0.017045381206508028
206.959,0.010548361250689704,0.010548361250689704
206.96,0.0016889132969930855,0.0016889132969930855
206.961,0.007112320313169592,-0.007112320313169592
206.96200000000002,0.013820793285697831,-0.013820793285697831
206.96300000000002,0.017259906430799454,-0.017259906430799454
206.964,0.017274013353749437,-0.017274013353749437
206.965,0.01459111564236929,-0.01459111564236929
206.966,0.01047632382866312,-0.01047632382866312
206.967,0.006308194182690507,-0.006308194182690507
206.96800000000002,0.0032044254000531238,-0.0032044254000531238
206.96900000000002,0.001781956037978147,-0.001781956037978147
206.97,0.0020800001454339867,-0.0020800001454339867
206.971,0.003624861045333818,-0.003624861045333818
206.972,0.005587368525114931,-0.005587368525114931
206.973,0.006980974482962073,-0.006980974482962073
206.97400000000002,0.006863498880084785,-0.006863498880084785
206.97500000000002,0.004524755968403457,-0.004524755968403457
206.976,0.00034686959202641886,0.00034686959202641886
206.977,0.0075292934231979145,0.0075292934231979145
206.978,0.01618775437862865,0.01618775437862865
206.979,0.02489080067078974,0.02489080067078974
206.98000000000002,0.03176070463968168,0.03176070463968168
206.98100000000002,0.034776217626815625,0.034776217626815625
206.982,0.03220269170981542,0.03220269170981542
206.983,0.023072188137288764,0.023072188137288764
206.984,0.007593625892894798,0.007593625892894798
206.985,0.012639803622557651,-0.012639803622557651
206.98600000000002,0.03474950018711308,-0.03474950018711308
206.98700000000002,0.05501019682726838,-0.05501019682726838
206.988,0.06956802270183765,-0.06956802270183765
206.989,0.07528656687084764,-0.07528656687084764
206.99,0.07051242682183054,-0.07051242682183054
206.991,0.05555055693838444,-0.05555055693838444
206.99200000000002,0.03270091091269323,-0.03270091091269323
206.993,0.005818079877389855,-0.005818079877389855
206.994,0.020515144024336244,0.020515144024336244
206.995,0.04199907485789445,0.04199907485789445
206.996,0.05555491133522311,0.05555491133522311
206.997,0.05994567394390481,0.05994567394390481
206.99800000000002,0.05592201576469403,0.05592201576469403
206.999,0.045865818356099375,0.045865818356099375
207.0,0.03304361775468038,0.03304361775468038
207.001,0.02068795559667322,0.02068795559667322
207.002,0.011166567978532445,0.011166567978532445
207.00300000000001,0.005465238356058595,0.005465238356058595
207.00400000000002,0.003111447063073296,0.003111447063073296
207.005,0.002533219734252002,0.002533219734252002
207.006,0.0017210190351329144,0.0017210190351329144
207.007,0.0010224712262809305,-0.0010224712262809305
207.008,0.006476000265394936,-0.006476000265394936
207.00900000000001,0.014215093014231734,-0.014215093014231734
207.01000000000002,0.02272343286549893,-0.02272343286549893
207.011,0.029852918802838024,-0.029852918802838024
207.012,0.03348250743286096,-0.03348250743286096
207.013,0.03217230115984202,-0.03217230115984202
207.014,0.025618304234007152,-0.025618304234007152
207.01500000000001,0.01477925542255664,-0.01477925542255664
207.01600000000002,0.0016476981523930118,-0.0016476981523930118
207.017,0.011258443424065432,0.011258443424065432
207.018,0.021530748605816545,0.021530748605816545
207.019,0.027450102521290078,0.027450102521290078
207.02,0.0283551564677555,0.0283551564677555
207.02100000000002,0.024711734310475766,0.024711734310475766
207.02200000000002,0.017884827725870044,0.017884827725870044
207.023,0.009697941423492751,0.009697941423492751
207.024,0.0019179885453417056,0.0019179885453417056
207.025,0.0041856020368419376,-0.0041856020368419376
207.026,0.008091452734908649,-0.008091452734908649
207.02700000000002,0.010033627985573447,-0.010033627985573447
207.02800000000002,0.010786765053218326,-0.010786765053218326
207.029,0.011312339111177063,-0.011312339111177063
207.03,0.012383578099249306,-0.012383578099249306
207.031,0.014304463078269197,-0.014304463078269197
207.032,0.01680291999942072,-0.01680291999942072
207.03300000000002,0.019121913303123204,-0.019121913303123204
207.03400000000002,0.02027208209564747,-0.02027208209564747
207.035,0.019363212286721422,-0.019363212286721422
207.036,0.015911741822209852,-0.015911741822209852
207.037,0.010032077396038725,-0.010032077396038725
207.038,0.0024562702656086583,-0.0024562702656086583
207.03900000000002,0.0056221498896148695,0.0056221498896148695
207.04000000000002,0.012833943825019827,0.012833943825019827
207.041,0.01796806210098879,0.01796806210098879
207.042,0.020261607897929718,0.020261607897929718
207.043,0.019569777335933035,0.019569777335933035
207.044,0.016376391477080924,0.016376391477080924
207.04500000000002,0.011651378576452416,0.011651378576452416
207.04600000000002,0.006602518838430136,0.006602518838430136
207.047,0.002393173680695615,0.002393173680695615
207.048,0.00010054483751901999,-0.00010054483751901999
207.049,0.0004394241745345887,-0.0004394241745345887
207.05,0.0013429144024897333,0.0013429144024897333
207.05100000000002,0.004803515917725429,0.004803515917725429
207.05200000000002,0.009214003940785215,0.009214003940785215
207.053,0.013698681331362764,0.013698681331362764
207.054,0.017351599997234544,0.017351599997234544
207.055,0.019320301328903732,0.019320301328903732
207.056,0.01886792256485984,0.01886792256485984
207.05700000000002,0.01543921815392168,0.01543921815392168
207.05800000000002,0.008752688411107554,0.008752688411107554
207.059,0.001079343923503341,-0.001079343923503341
207.06,0.013430230797993364,-0.013430230797993364
207.061,0.027090789288934054,-0.027090789288934054
207.062,0.04031368504638958,-0.04031368504638958
207.06300000000002,0.05101249792561092,-0.05101249792561092
207.06400000000002,0.05711478736764798,-0.05711478736764798
207.065,0.05701270400399516,-0.05701270400399516
207.066,0.05000484145567753,-0.05000484145567753
207.067,0.03659916824115698,-0.03659916824115698
207.068,0.018562824705445912,-0.018562824705445912
207.06900000000002,0.0013382056325062996,0.0013382056325062996
207.07000000000002,0.019881115011897914,0.019881115011897914
207.071,0.03409274574717983,0.03409274574717983
207.072,0.04194031573842318,0.04194031573842318
207.073,0.04281288836516763,0.04281288836516763
207.074,0.03764605959679513,0.03764605959679513
207.07500000000002,0.0286382676721317,0.0286382676721317
207.07600000000002,0.01862619053817584,0.01862619053817584
207.077,0.010292199681094481,0.010292199681094481
207.078,0.005433894372981192,0.005433894372981192
207.079,0.004513151140363001,0.004513151140363001
207.08,0.006620424580505314,0.006620424580505314
207.08100000000002,0.009862620352807232,0.009862620352807232
207.08200000000002,0.01204937251375226,0.01204937251375226
207.083,0.01145637559521197,0.01145637559521197
207.084,0.007418235294954418,0.007418235294954418
207.085,0.0005576361401108191,0.0005576361401108191
207.086,0.007423575135911904,-0.007423575135911904
207.08700000000002,0.014320687022920619,-0.014320687022920619
207.08800000000002,0.01817575437706615,-0.01817575437706615
207.089,0.017946871977817646,-0.017946871977817646
207.09,0.013868792941561127,-0.013868792941561127
207.091,0.0073799039629886985,-0.0073799039629886985
207.092,0.000637901676308704,-0.000637901676308704
207.09300000000002,0.0042118331321847795,0.0042118331321847795
207.09400000000002,0.00576398785726377,0.00576398785726377
207.095,0.003824352518338677,0.003824352518338677
207.096,0.0005427231459296001,-0.0005427231459296001
207.097,0.005411821602961875,-0.005411821602961875
207.098,0.008704653849245514,-0.008704653849245514
207.09900000000002,0.008962914333923763,-0.008962914333923763
207.10000000000002,0.005911647501508199,-0.005911647501508199
207.101,0.0006062366229302696,-0.0006062366229302696
207.102,0.004902499488431836,0.004902499488431836
207.103,0.008282609956788797,0.008282609956788797
207.104,0.007775400664400225,0.007775400664400225
207.10500000000002,0.0028932636384826245,0.0028932636384826245
207.10600000000002,0.005291669679474827,-0.005291669679474827
207.107,0.01438796916727995,-0.01438796916727995
207.108,0.021396529614465344,-0.021396529614465344
207.109,0.02367247053237907,-0.02367247053237907
207.11,0.019824288822961354,-0.019824288822961354
207.11100000000002,0.010248818768329395,-0.010248818768329395
207.11200000000002,0.002886184380878513,0.002886184380878513
207.113,0.016221695515654163,0.016221695515654163
207.114,0.026174913711869294,0.026174913711869294
207.115,0.029991764895636392,0.029991764895636392
207.116,0.02655229122548059,0.02655229122548059
207.11700000000002,0.016676802145046795,0.016676802145046795
207.118,0.00284329193672294,0.00284329193672294
207.119,0.011582563962436189,-0.011582563962436189
207.12,0.02334832155267169,-0.02334832155267169
207.121,0.030221944572738392,-0.030221944572738392
207.122,0.03152125299649006,-0.03152125299649006
207.12300000000002,0.028115856450359928,-0.028115856450359928
207.124,0.021932781983514324,-0.021932781983514324
207.125,0.015162690147272933,-0.015162690147272933
207.126,0.00945781974638001,-0.00945781974638001
207.127,0.005404597692221243,-0.005404597692221243
207.12800000000001,0.0024476907897875953,-0.0024476907897875953
207.12900000000002,0.0007236968550142707,0.0007236968550142707
207.13,0.0054838653851835605,0.0054838653851835605
207.131,0.012539978893094154,0.012539978893094154
207.132,0.021444809264409854,0.021444809264409854
207.133,0.030549560689975323,0.030549560689975323
207.13400000000001,0.037437275404213086,0.037437275404213086
207.13500000000002,0.0397043974030103,0.0397043974030103
207.136,0.03582837203356844,0.03582837203356844
207.137,0.025817986904512317,0.025817986904512317
207.138,0.011405758478062569,0.011405758478062569
207.139,0.004311898544730235,-0.004311898544730235
207.14000000000001,0.017699049066424315,-0.017699049066424315
207.14100000000002,0.02562450406597987,-0.02562450406597987
207.142,0.026401619621893826,-0.026401619621893826
207.143,0.020323789225414488,-0.020323789225414488
207.144,0.009617298935633345,-0.009617298935633345
207.145,0.0021870214866121784,0.0021870214866121784
207.14600000000002,0.011281243478973895,0.011281243478973895
207.14700000000002,0.014700391725464293,0.014700391725464293
207.148,0.011199259518043273,0.011199259518043273
207.149,0.0016240830590143187,0.0016240830590143187
207.15,0.011329751086983891,-0.011329751086983891
207.151,0.023898770633624843,-0.023898770633624843
207.15200000000002,0.032337643422165045,-0.032337643422165045
207.15300000000002,0.03399128465714001,-0.03399128465714001
207.154,0.028044244447587362,-0.028044244447587362
207.155,0.0157395911794132,-0.0157395911794132
207.156,1.759906285802417e-05,-1.759906285802417e-05
207.157,0.015308493061995892,0.015308493061995892
207.15800000000002,0.026595332189817317,0.026595332189817317
207.15900000000002,0.031334177960749304,0.031334177960749304
207.16,0.028774359086322244,0.028774359086322244
207.161,0.020048044139089047,0.020048044139089047
207.162,0.0077833325171616915,0.0077833325171616915
207.163,0.0046664566304831295,-0.0046664566304831295
207.16400000000002,0.014150671977576265,-0.014150671977576265
207.16500000000002,0.018547675718496633,-0.018547675718496633
207.166,0.017270369548755903,-0.017270369548755903
207.167,0.011328041199341457,-0.011328041199341457
207.168,0.002946434494367387,-0.002946434494367387
207.169,0.005133148946631839,0.005133148946631839
207.17000000000002,0.010472518559409153,0.010472518559409153
207.17100000000002,0.011643691873973374,0.011643691873973374
207.172,0.008629887561389906,0.008629887561389906
207.173,0.002811095592612745,0.002811095592612745
207.174,0.0034620507081715235,-0.0034620507081715235
207.175,0.0075903945623628215,-0.0075903945623628215
207.17600000000002,0.007546135647181492,-0.007546135647181492
207.17700000000002,0.002560513094284712,-0.002560513094284712
207.178,0.006522317861326378,0.006522317861326378
207.179,0.017343714234157637,0.017343714234157637
207.18,0.026581157376201377,0.026581157376201377
207.181,0.030826102468480897,0.030826102468480897
207.18200000000002,0.02756582010207104,0.02756582010207104
207.18300000000002,0.016002261941500305,0.016002261941500305
207.184,0.002532550989360167,-0.002532550989360167
207.185,0.024710603895001206,-0.024710603895001206
207.186,0.0458958302502233,-0.0458958302502233
207.187,0.06123745309263767,-0.06123745309263767
207.18800000000002,0.06689801066078922,-0.06689801066078922
207.18900000000002,0.061090382437985834,-0.061090382437985834
207.19,0.04463082140651087,-0.04463082140651087
207.191,0.02083212409121417,-0.02083212409121417
207.192,0.005265207128573345,0.005265207128573345
207.193,0.028141844898261523,0.028141844898261523
207.19400000000002,0.04320440254489956,0.04320440254489956
207.19500000000002,0.04796497223493297,0.04796497223493297
207.196,0.042663492081246646,0.042663492081246646
207.197,0.030147145988732225,0.030147145988732225
207.198,0.015025990124773186,0.015025990124773186
207.199,0.002330588188949342,0.002330588188949342
207.20000000000002,0.003954529148963064,-0.003954529148963064
207.20100000000002,0.0020634879521156655,-0.0020634879521156655
207.202,0.007014693706006706,0.007014693706006706
207.203,0.019801980004660796,0.019801980004660796
207.204,0.03133631265177749,0.03133631265177749
207.205,0.03663779977721292,0.03663779977721292
207.20600000000002,0.032220082689724434,0.032220082689724434
207.20700000000002,0.017211209442981726,0.017211209442981726
207.208,0.006245525313860856,-0.006245525313860856
207.209,0.03343791834327486,-0.03343791834327486
207.21,0.058264868433940666,-0.058264868433940666
207.211,0.07482718904739091,-0.07482718904739091
207.21200000000002,0.07898884940104149,-0.07898884940104149
207.21300000000002,0.06947641087176058,-0.06947641087176058
207.214,0.04821535140087742,-0.04821535140087742
207.215,0.019817244481303297,-0.019817244481303297
207.216,0.009631077774193203,0.009631077774193203
207.217,0.03413418087859985,0.03413418087859985
207.21800000000002,0.04927699659084116,0.04927699659084116
207.21900000000002,0.053235068181987984,0.053235068181987984
207.22,0.04704932214531489,0.04704932214531489
207.221,0.03412101868230747,0.03412101868230747
207.222,0.019100989546740582,0.019100989546740582
207.223,0.006509672493762839,0.006509672493762839
207.22400000000002,0.0005135491957827963,-0.0005135491957827963
207.22500000000002,0.0009860143101554112,-0.0009860143101554112
207.226,0.003814298960943622,0.003814298960943622
207.227,0.010913790166561415,0.010913790166561415
207.228,0.016682595132985346,0.016682595132985346
207.229,0.01802411188161153,0.01802411188161153
207.23000000000002,0.013358198611828366,0.013358198611828366
207.23100000000002,0.0031128776287102588,0.0031128776287102588
207.232,0.010408885974496114,-0.010408885974496114
207.233,0.02373411399500331,-0.02373411399500331
207.234,0.033276011733956896,-0.033276011733956896
207.235,0.03642085608071323,-0.03642085608071323
207.23600000000002,0.032319677296906345,-0.032319677296906345
207.23700000000002,0.02214866107278852,-0.02214866107278852
207.238,0.008760421989579452,-0.008760421989579452
207.239,0.00417108503944453,0.00417108503944453
207.24,0.013258435711584318,0.013258435711584318
207.241,0.016430470015509013,0.016430470015509013
207.24200000000002,0.013571948540698342,0.013571948540698342
207.243,0.006571980625062123,0.006571980625062123
207.244,0.0012481446006192096,-0.0012481446006192096
207.245,0.006173041278956109,-0.006173041278956109
207.246,0.005299317085960963,-0.005299317085960963
207.247,0.002448152379839012,0.002448152379839012
207.24800000000002,0.015804649621272922,0.015804649621272922
207.249,0.031337343478917194,0.031337343478917194
207.25,0.04428590472255597,0.04428590472255597
207.251,0.04986182628594298,0.04986182628594298
207.252,0.04465412172524512,0.04465412172524512
207.25300000000001,0.027743197368693566,0.027743197368693566
207.25400000000002,0.0011913074655031876,0.0011913074655031876
207.255,0.030258539221852766,-0.030258539221852766
207.256,0.06022697328040069,-0.06022697328040069
207.257,0.0822287080395826,-0.0822287080395826
207.258,0.09128981821139139,-0.09128981821139139
207.25900000000001,0.08521946374772858,-0.08521946374772858
207.26000000000002,0.06519063777480458,-0.06519063777480458
207.261,0.03546873311466555,-0.03546873311466555
207.262,0.0023571315714465396,-0.0023571315714465396
207.263,0.027359117552105062,0.027359117552105062
207.264,0.04805689542676853,0.04805689542676853
207.26500000000001,0.05657333859053278,0.05657333859053278
207.26600000000002,0.05282815031241292,0.05282815031241292
207.267,0.03963038865405968,0.03963038865405968
207.268,0.021755281010888364,0.021755281010888364
207.269,0.004571149439307085,0.004571149439307085
207.27,0.007393608328874649,-0.007393608328874649
207.27100000000002,0.011556632872926511,-0.011556632872926511
207.27200000000002,0.007784768740341001,-0.007784768740341001
207.273,0.0017994886556273492,0.0017994886556273492
207.274,0.013603792097658132,0.013603792097658132
207.275,0.02368289660951509,0.02368289660951509
207.276,0.028853209244856806,0.028853209244856806
207.27700000000002,0.027498585012865555,0.027498585012865555
207.27800000000002,0.019873221347271822,0.019873221347271822
207.279,0.007865920123782526,0.007865920123782526
207.28,0.005655114685332976,-0.005655114685332976
207.281,0.017691353995029642,-0.017691353995029642
207.282,0.02590027337388577,-0.02590027337388577
207.28300000000002,0.02910871918455434,-0.02910871918455434
207.28400000000002,0.027445501403391172,-0.027445501403391172
207.285,0.02210748207017485,-0.02210748207017485
207.286,0.014876521185507236,-0.014876521185507236
207.287,0.007559993299433395,-0.007559993299433395
207.288,0.0015243415480867477,-0.0015243415480867477
207.28900000000002,0.002562132944458459,0.002562132944458459
207.29000000000002,0.004741198481173031,0.004741198481173031
207.291,0.005573702045547135,0.005573702045547135
207.292,0.005840511067325324,0.005840511067325324
207.293,0.0062443753544363335,0.0062443753544363335
207.294,0.007199394448103028,0.007199394448103028
207.29500000000002,0.008749686117472453,0.008749686117472453
207.29600000000002,0.010610075331992257,0.010610075331992257
207.297,0.012286306620614525,0.012286306620614525
207.298,0.013219850080925832,0.013219850080925832
207.299,0.012912273299831691,0.012912273299831691
207.3,0.011007563703539202,0.011007563703539202
207.30100000000002,0.007335193410688449,0.007335193410688449
207.30200000000002,0.00193135603626375,0.00193135603626375
207.303,0.004944212623749526,-0.004944212623749526
207.304,0.012790743598939459,-0.012790743598939459
207.305,0.020859947394547156,-0.020859947394547156
207.306,0.028183828603339227,-0.028183828603339227
207.30700000000002,0.033659579978881256,-0.033659579978881256
207.30800000000002,0.03620017223776044,-0.03620017223776044
207.309,0.03493601592050385,-0.03493601592050385
207.31,0.02942943020624815,-0.02942943020624815
207.311,0.01984889137819501,-0.01984889137819501
207.312,0.007050429450658154,-0.007050429450658154
207.31300000000002,0.007469910090606984,0.007469910090606984
207.31400000000002,0.021760374293832617,0.021760374293832617
207.315,0.03371051403932359,0.03371051403932359
207.316,0.04140994087356271,0.04140994087356271
207.317,0.04350243041251137,0.04350243041251137
207.318,0.03946757524880237,0.03946757524880237
207.31900000000002,0.029773627320833926,0.029773627320833926
207.32000000000002,0.015865834496587992,0.015865834496587992
207.321,1.9662985899251834e-05,-1.9662985899251834e-05
207.322,0.015198761095461878,-0.015198761095461878
207.323,0.026994479160808625,-0.026994479160808625
207.324,0.033235149537618615,-0.033235149537618615
207.32500000000002,0.03270823757885221,-0.03270823757885221
207.32600000000002,0.025474952763110185,-0.025474952763110185
207.327,0.012960488881457273,-0.012960488881457273
207.328,0.0022340435841451817,0.0022340435841451817
207.329,0.016799333371833387,0.016799333371833387
207.33,0.027399986231147606,0.027399986231147606
207.33100000000002,0.0314401202650149,0.0314401202650149
207.33200000000002,0.02773635841989007,0.02773635841989007
207.333,0.016916168473288355,0.016916168473288355
207.334,0.0014034880652820595,0.0014034880652820595
207.335,0.015055381082158998,-0.015055381082158998
207.336,0.02825317583116242,-0.02825317583116242
207.33700000000002,0.0345813704244352,-0.0345813704244352
207.33800000000002,0.03202123204067395,-0.03202123204067395
207.339,0.020789073002614022,-0.020789073002614022
207.34,0.0034279091035674344,-0.0034279091035674344
207.341,0.015724876329905792,0.015724876329905792
207.342,0.03159303069109827,0.03159303069109827
207.34300000000002,0.039682526219897755,0.039682526219897755
207.34400000000002,0.037316926991424956,0.037316926991424956
207.345,0.024438118663977375,0.024438118663977375
207.346,0.0037281704051591092,0.0037281704051591092
207.347,0.02000991741355416,-0.02000991741355416
207.348,0.041065789187939544,-0.041065789187939544
207.34900000000002,0.05430803405369501,-0.05430803405369501
207.35000000000002,0.05653473778687218,-0.05653473778687218
207.351,0.04730989941887729,-0.04730989941887729
207.352,0.029048689357203606,-0.029048689357203606
207.353,0.006327414155297817,-0.006327414155297817
207.354,0.015383939851635704,0.015383939851635704
207.35500000000002,0.031203770168687913,0.031203770168687913
207.35600000000002,0.03811436005917266,0.03811436005917266
207.357,0.03567524535927492,0.03567524535927492
207.358,0.025988098873631973,0.025988098873631973
207.359,0.012947925692492219,0.012947925692492219
207.36,0.0010214471910638952,0.0010214471910638952
207.36100000000002,0.006076806031538442,-0.006076806031538442
207.36200000000002,0.0064238945283909615,-0.0064238945283909615
207.363,0.00035518504266571655,-0.00035518504266571655
207.364,0.009749764772331975,0.009749764772331975
207.365,0.020265997283067577,0.020265997283067577
207.366,0.027444268318753982,0.027444268318753982
207.36700000000002,0.028512136524852745,0.028512136524852745
207.368,0.022438452354936383,0.022438452354936383
207.369,0.010162495678947638,0.010162495678947638
207.37,0.005742132736353151,-0.005742132736353151
207.371,0.021832963626292994,-0.021832963626292994
207.372,0.034744388474273497,-0.034744388474273497
207.37300000000002,0.042034007690322166,-0.042034007690322166
207.374,0.042704292029591785,-0.042704292029591785
207.375,0.037289681009891794,-0.037289681009891794
207.376,0.027535217045460837,-0.027535217045460837
207.377,0.01580626485682388,-0.01580626485682388
207.37800000000001,0.0044279514318608946,-0.0044279514318608946
207.37900000000002,0.004853972749517999,0.004853972749517999
207.38,0.011161946856676236,0.011161946856676236
207.381,0.014488454676289403,0.014488454676289403
207.382,0.015463706824819828,0.015463706824819828
207.383,0.015001338764571737,0.015001338764571737
207.38400000000001,0.013949850748820866,0.013949850748820866
207.38500000000002,0.012851396540042765,0.012851396540042765
207.386,0.011857045443538583,0.011857045443538583
207.387,0.010790163268974532,0.010790163268974532
207.388,0.009306390272960582,0.009306390272960582
207.389,0.007080834637137765,0.007080834637137765
207.39000000000001,0.003960846338694853,0.003960846338694853
207.39100000000002,4.751851441586336e-05,4.751851441586336e-05
207.392,0.004301753414158732,-0.004301753414158732
207.393,0.008534890091500956,-0.008534890091500956
207.394,0.012006095053110606,-0.012006095053110606
207.395,0.014092618471657384,-0.014092618471657384
207.39600000000002,0.01431059343205266,-0.01431059343205266
207.39700000000002,0.01241877831054654,-0.01241877831054654
207.398,0.008499229784921044,-0.008499229784921044
207.399,0.002999428624285518,-0.002999428624285518
207.4,0.003283884656880764,0.003283884656880764
207.401,0.009296517886071238,0.009296517886071238
207.40200000000002,0.013898392117733718,0.013898392117733718
207.40300000000002,0.016095803219465098,0.016095803219465098
207.404,0.01528891221549422,0.01528891221549422
207.405,0.011469784886655923,0.011469784886655923
207.406,0.0053043821159131825,0.0053043821159131825
207.407,0.001947452512022262,-0.001947452512022262
207.40800000000002,0.008679341965270737,-0.008679341965270737
207.40900000000002,0.01330844373137647,-0.01330844373137647
207.41,0.014680046833588986,-0.014680046833588986
207.411,0.012396868323042804,-0.012396868323042804
207.412,0.006973253702531419,-0.006973253702531419
207.413,0.00024383643026516807,0.00024383643026516807
207.41400000000002,0.007382382387952643,0.007382382387952643
207.41500000000002,0.01251095213839453,0.01251095213839453
207.416,0.01414326013667394,0.01414326013667394
207.417,0.011646265137214258,0.011646265137214258
207.418,0.005438580381296785,0.005438580381296785
207.419,0.0030793655968376177,-0.0030793655968376177
207.42000000000002,0.011850423733536166,-0.011850423733536166
207.42100000000002,0.018660117935645953,-0.018660117935645953
207.422,0.02168399003209202,-0.02168399003209202
207.423,0.019945569744530184,-0.019945569744530184
207.424,0.013572644639542934,-0.013572644639542934
207.425,0.0037920129276451976,-0.0037920129276451976
207.42600000000002,0.007332354758077078,0.007332354758077078
207.42700000000002,0.017352954322376865,0.017352954322376865
207.428,0.023978460841685482,0.023978460841685482
207.429,0.02557943099744032,0.02557943099744032
207.43,0.02155244330640467,0.02155244330640467
207.431,0.012468811069750426,0.012468811069750426
207.43200000000002,2.0267851152827162e-05,-2.0267851152827162e-05
207.43300000000002,0.013502152925908612,-0.013502152925908612
207.434,0.025282546085944435,-0.025282546085944435
207.435,0.032933897095855154,-0.032933897095855154
207.436,0.034804956784839934,-0.034804956784839934
207.437,0.030387326832112583,-0.030387326832112583
207.43800000000002,0.02045707188974711,-0.02045707188974711
207.43900000000002,0.006949219818218279,-0.006949219818218279
207.44,0.007424338201882125,0.007424338201882125
207.441,0.01974603882556852,0.01974603882556852
207.442,0.027536223320895257,0.027536223320895257
207.443,0.029324363190900753,0.029324363190900753
207.44400000000002,0.02500721371776776,0.02500721371776776
207.44500000000002,0.015893465913107654,0.015893465913107654
207.446,0.00440558812546955,0.00440558812546955
207.447,0.006503998886995278,-0.006503998886995278
207.448,0.014086002385628736,-0.014086002385628736
207.449,0.01649161967189878,-0.01649161967189878
207.45000000000002,0.01324850560103256,-0.01324850560103256
207.45100000000002,0.005381313432213096,-0.005381313432213096
207.452,0.004864311772481584,0.004864311772481584
207.453,0.014625923544486927,0.014625923544486927
207.454,0.021193883002244705,0.021193883002244705
207.455,0.022733371057227978,0.022733371057227978
207.45600000000002,0.018756715537905175,0.018756715537905175
207.45700000000002,0.010214873800746163,0.010214873800746163
207.458,0.0008120989281041503,-0.0008120989281041503
207.459,0.011727863751710556,-0.011727863751710556
207.46,0.020149565448469253,-0.020149565448469253
207.461,0.024536666024272128,-0.024536666024272128
207.46200000000002,0.02453654645419255,-0.02453654645419255
207.46300000000002,0.020956170876210378,-0.020956170876210378
207.464,0.015387589825336426,-0.015387589825336426
207.465,0.009622598977076537,-0.009622598977076537
207.466,0.005054170071435008,-0.005054170071435008
207.467,0.0022597847623469273,-0.0022597847623469273
207.46800000000002,0.0008961542662294242,-0.0008961542662294242
207.46900000000002,7.176814712334951e-05,7.176814712334951e-05
207.47,0.0018966257184996618,0.0018966257184996618
207.471,0.005499111655973943,0.005499111655973943
207.472,0.011035833532876018,0.011035833532876018
207.473,0.017735976996680114,0.017735976996680114
207.47400000000002,0.024066826704134653,0.024066826704134653
207.47500000000002,0.028177770029886876,0.028177770029886876
207.476,0.028479571569065117,0.028479571569065117
207.477,0.02417080158415933,0.02417080158415933
207.478,0.015540383958131716,0.015540383958131716
207.479,0.003947733599558318,0.003947733599558318
207.48000000000002,0.008514714651840807,-0.008514714651840807
207.48100000000002,0.019571742141069524,-0.019571742141069524
207.482,0.02735895278026151,-0.02735895278026151
207.483,0.030881078790636996,-0.030881078790636996
207.484,0.030203596692986605,-0.030203596692986605
207.485,0.02633308584542573,-0.02633308584542573
207.48600000000002,0.02083900988595454,-0.02083900988595454
207.48700000000002,0.015346002895404137,-0.015346002895404137
207.488,0.011058092706505858,-0.011058092706505858
207.489,0.008456593622184207,-0.008456593622184207
207.49,0.0072506862906987464,-0.0072506862906987464
207.491,0.006576232659568915,-0.006576232659568915
207.49200000000002,0.005361719818006861,-0.005361719818006861
207.493,0.002734087989260816,-0.002734087989260816
207.494,0.0016659661353121906,0.0016659661353121906
207.495,0.007551846200974065,0.007551846200974065
207.496,0.014070874907049833,0.014070874907049833
207.497,0.020057009373856016,0.020057009373856016
207.49800000000002,0.02436708629054458,0.02436708629054458
207.499,0.026192807091216075,0.026192807091216075
207.5,0.02525719295351849,0.02525719295351849
207.501,0.021847492814802007,0.021847492814802007
207.502,0.016690623014500354,0.016690623014500354
207.50300000000001,0.01072430088106969,0.01072430088106969
207.50400000000002,0.004843107778477374,0.004843107778477374
207.505,0.00030232398051962205,-0.00030232398051962205
207.506,0.004400017523305788,-0.004400017523305788
207.507,0.007451461491527836,-0.007451461491527836
207.508,0.009652351384182502,-0.009652351384182502
207.50900000000001,0.011232717756237196,-0.011232717756237196
207.51000000000002,0.012317953107021447,-0.012317953107021447
207.511,0.01285981501338075,-0.01285981501338075
207.512,0.012658955097013562,-0.012658955097013562
207.513,0.011467452001535183,-0.011467452001535183
207.514,0.009131782575967121,-0.009131782575967121
207.51500000000001,0.005722130534101744,-0.005722130534101744
207.51600000000002,0.0015970473535690773,-0.0015970473535690773
207.517,0.002627861082321168,0.002627861082321168
207.518,0.006208187331124695,0.006208187331124695
207.519,0.008464707841581605,0.008464707841581605
207.52,0.008987471285296235,0.008987471285296235
207.52100000000002,0.007785388437035178,0.007785388437035178
207.52200000000002,0.005326926042480575,0.005326926042480575
207.523,0.002445400601012298,0.002445400601012298
207.524,0.00012125831275926525,0.00012125831275926525
207.525,0.000806913216381208,-0.000806913216381208
207.526,7.714990232445971e-05,7.714990232445971e-05
207.52700000000002,0.0025822108566215226,0.0025822108566215226
207.52800000000002,0.005887732122579488,0.005887732122579488
207.529,0.008711890365306825,0.008711890365306825
207.53,0.009641296433405737,0.009641296433405737
207.531,0.007542193458696303,0.007542193458696303
207.532,0.0019396466338809561,0.0019396466338809561
207.53300000000002,0.006750740274586115,-0.006750740274586115
207.53400000000002,0.017220826892891086,-0.017220826892891086
207.535,0.02751836476145336,-0.02751836476145336
207.536,0.035493376222986706,-0.035493376222986706
207.537,0.039327228697082585,-0.039327228697082585
207.538,0.03799748829194005,-0.03799748829194005
207.53900000000002,0.03154346768406697,-0.03154346768406697
207.54000000000002,0.021051859937255744,-0.021051859937255744
207.541,0.00836405784224621,-0.00836405784224621
207.542,0.00440839628801074,0.00440839628801074
207.543,0.015413855339946398,0.015413855339946398
207.544,0.02347553368612133,0.02347553368612133
207.54500000000002,0.028268869438785007,0.028268869438785007
207.54600000000002,0.030218115033308002,0.030218115033308002
207.547,0.03016400958547384,0.03016400958547384
207.548,0.02893279465083829,0.02893279465083829
207.549,0.026970672043008074,0.026970672043008074
207.55,0.02418353487483525,0.02418353487483525
207.55100000000002,0.02004592235806746,0.02004592235806746
207.55200000000002,0.013940960150246835,0.013940960150246835
207.553,0.005600641782786667,0.005600641782786667
207.554,0.004532331018358072,-0.004532331018358072
207.555,0.015183478612101998,-0.015183478612101998
207.556,0.024449577216711333,-0.024449577216711333
207.55700000000002,0.0302926163272944,-0.0302926163272944
207.55800000000002,0.03117781109993338,-0.03117781109993338
207.559,0.026639903789737046,-0.026639903789737046
207.56,0.0175663603261445,-0.0175663603261445
207.561,0.006067525700504145,-0.006067525700504145
207.562,0.005061450426551096,0.005061450426551096
207.56300000000002,0.013138648530434952,0.013138648530434952
207.56400000000002,0.016403576793676045,0.016403576793676045
207.565,0.01456504941577516,0.01456504941577516
207.566,0.008890977569927482,0.008890977569927482
207.567,0.0017885572575155931,0.0017885572575155931
207.568,0.004003971609870949,-0.004003971609870949
207.56900000000002,0.0063528628210236795,-0.0063528628210236795
207.57000000000002,0.004474281761002982,-0.004474281761002982
207.571,0.0007761821974054106,0.0007761821974054106
207.572,0.007188591458494029,0.007188591458494029
207.573,0.011981082946780937,0.011981082946780937
207.574,0.01282383658079143,0.01282383658079143
207.57500000000002,0.008751023517584632,0.008751023517584632
207.57600000000002,0.0006284830702323008,0.0006284830702323008
207.577,0.009016215220354274,-0.009016215220354274
207.578,0.016780787147925837,-0.016780787147925837
207.579,0.019553724155194036,-0.019553724155194036
207.58,0.015672993236688,-0.015672993236688
207.58100000000002,0.005671765273945605,-0.005671765273945605
207.58200000000002,0.007676834089707414,0.007676834089707414
207.583,0.020080684711887304,0.020080684711887304
207.584,0.02702326088167524,0.02702326088167524
207.585,0.025235412148201113,0.025235412148201113
207.586,0.013867549102696749,0.013867549102696749
207.58700000000002,0.005038772980588716,-0.005038772980588716
207.58800000000002,0.026968539060776533,-0.026968539060776533
207.589,0.04614626185321867,-0.04614626185321867
207.59,0.05718929849940494,-0.05718929849940494
207.591,0.05669436076699549,-0.05669436076699549
207.592,0.04425977918267076,-0.04425977918267076
207.59300000000002,0.02261783533770114,-0.02261783533770114
207.59400000000002,0.003168461763502759,0.003168461763502759
207.595,0.027192049015224068,0.027192049015224068
207.596,0.04440216265667943,0.04440216265667943
207.597,0.05198321164655258,0.05198321164655258
207.598,0.04998611491922663,0.04998611491922663
207.59900000000002,0.04103398723122296,0.04103398723122296
207.60000000000002,0.02922880810995345,0.02922880810995345
207.601,0.01864608112744611,0.01864608112744611
207.602,0.011933977831364156,0.011933977831364156
207.603,0.009489299077771081,0.009489299077771081
207.604,0.009480206851876064,0.009480206851876064
207.60500000000002,0.008693590098127885,0.008693590098127885
207.60600000000002,0.0039017020387507022,0.0039017020387507022
207.607,0.0067361855167270045,-0.0067361855167270045
207.608,0.0227356825293142,-0.0227356825293142
207.609,0.04115627034572076,-0.04115627034572076
207.61,0.057348718859512225,-0.057348718859512225
207.61100000000002,0.06635440136835644,-0.06635440136835644
207.61200000000002,0.06450636194056432,-0.06450636194056432
207.613,0.050707420955094444,-0.050707420955094444
207.614,0.02695979444777859,-0.02695979444777859
207.615,0.0020396878511953534,0.0020396878511953534
207.616,0.030124474535989466,0.030124474535989466
207.61700000000002,0.051327447482026604,0.051327447482026604
207.618,0.06148096865641702,0.06148096865641702
207.619,0.059264210326431976,0.059264210326431976
207.62,0.04639855163631541,0.04639855163631541
207.621,0.026967405463561876,0.026967405463561876
207.622,0.006111433442481835,0.006111433442481835
207.62300000000002,0.011465927938770205,-0.011465927938770205
207.624,0.022711663217798644,-0.022711663217798644
207.625,0.026802603371018058,-0.026802603371018058
207.626,0.024966571863042814,-0.024966571863042814
207.627,0.019678090160921785,-0.019678090160921785
207.62800000000001,0.013560835322210219,-0.013560835322210219
207.62900000000002,0.008405505473051467,-0.008405505473051467
207.63,0.004644219652319877,-0.004644219652319877
207.631,0.0014396906884284412,-0.0014396906884284412
207.632,0.0026835840602772152,0.0026835840602772152
207.633,0.008936101220916063,0.008936101220916063
207.63400000000001,0.017453489057219412,0.017453489057219412
207.63500000000002,0.026907738648092802,0.026907738648092802
207.636,0.0347120742666113,0.0347120742666113
207.637,0.03777526285206865,0.03777526285206865
207.638,0.033559270996799666,0.033559270996799666
207.639,0.021077388900013195,0.021077388900013195
207.64000000000001,0.0014783779003275609,0.0014783779003275609
207.64100000000002,0.022007348414082858,-0.022007348414082858
207.642,0.04477576183253841,-0.04477576183253841
207.643,0.06201307382642163,-0.06201307382642163
207.644,0.06996718911389556,-0.06996718911389556
207.645,0.06694251921728515,-0.06694251921728515
207.64600000000002,0.0537219018813644,-0.0537219018813644
207.64700000000002,0.033300327628279995,-0.033300327628279995
207.648,0.010028223172370572,-0.010028223172370572
207.649,0.011562448429851912,0.011562448429851912
207.65,0.027893057554151206,0.027893057554151206
207.651,0.037110238478318056,0.037110238478318056
207.65200000000002,0.0393026472190485,0.0393026472190485
207.65300000000002,0.03615376242840482,0.03615376242840482
207.654,0.030195065892144903,0.030195065892144903
207.655,0.023931461626955874,0.023931461626955874
207.656,0.01912235145748264,0.01912235145748264
207.657,0.01642074420120326,0.01642074420120326
207.65800000000002,0.015433204175694153,0.015433204175694153
207.65900000000002,0.015116804277347073,0.015116804277347073
207.66,0.014325819739124399,0.014325819739124399
207.661,0.012292576569319692,0.012292576569319692
207.662,0.008877216721462734,0.008877216721462734
207.663,0.004525824884573083,0.004525824884573083
207.66400000000002,6.655241414579425e-06,-6.655241414579425e-06
207.66500000000002,0.004026783117415976,-0.004026783117415976
207.666,0.007199994935970944,-0.007199994935970944
207.667,0.009651066404575586,-0.009651066404575586
207.668,0.011833136938688546,-0.011833136938688546
207.669,0.014230639961513017,-0.014230639961513017
207.67000000000002,0.017032442743325462,-0.017032442743325462
207.67100000000002,0.019926102005392892,-0.019926102005392892
207.672,0.022116940859380187,-0.022116940859380187
207.673,0.022584956585771376,-0.022584956585771376
207.674,0.020493409084724745,-0.020493409084724745
207.675,0.015593917469471039,-0.015593917469471039
207.67600000000002,0.008461744262203141,-0.008461744262203141
207.67700000000002,0.000448094083139703,-0.000448094083139703
207.678,0.006663879709799422,0.006663879709799422
207.679,0.01120158569174606,0.01120158569174606
207.68,0.012164724732663099,0.012164724732663099
207.681,0.009606287577572615,0.009606287577572615
207.68200000000002,0.004683384557594827,0.004683384557594827
207.68300000000002,0.0006647468912091421,-0.0006647468912091421
207.684,0.004326599018499987,-0.004326599018499987
207.685,0.004726647536301178,-0.004726647536301178
207.686,0.0013983616539676447,-0.0013983616539676447
207.687,0.00477807945434479,0.00477807945434479
207.68800000000002,0.011770864436992283,0.011770864436992283
207.68900000000002,0.016982929047803963,0.016982929047803963
207.69,0.01805824851783545,0.01805824851783545
207.691,0.013659202048137765,0.013659202048137765
207.692,0.003967706822548923,0.003967706822548923
207.693,0.009255920490500353,-0.009255920490500353
207.69400000000002,0.02308690437722252,-0.02308690437722252
207.69500000000002,0.03420682430084958,-0.03420682430084958
207.696,0.03980483064270728,-0.03980483064270728
207.697,0.03834320743494264,-0.03834320743494264
207.698,0.029964480374861834,-0.029964480374861834
207.699,0.016428505542000336,-0.016428505542000336
207.70000000000002,0.0006108732871640729,-0.0006108732871640729
207.70100000000002,0.014277048204475356,0.014277048204475356
207.702,0.02551086654291515,0.02551086654291515
207.703,0.03148305957358597,0.03148305957358597
207.704,0.03197604631954142,0.03197604631954142
207.705,0.028031850400419726,0.028031850400419726
207.70600000000002,0.021495419024139265,0.021495419024139265
207.70700000000002,0.014399260159056744,0.014399260159056744
207.708,0.00838823375051179,0.00838823375051179
207.709,0.004349599075097072,0.004349599075097072
207.71,0.0023308197925614527,0.0023308197925614527
207.711,0.0017271115408238962,0.0017271115408238962
207.71200000000002,0.001636862474369463,0.001636862474369463
207.71300000000002,0.0012421754786074584,0.0012421754786074584
207.714,8.351133323335428e-05,8.351133323335428e-05
207.715,0.0018474555049435805,-0.0018474555049435805
207.716,0.004197681209923909,-0.004197681209923909
207.717,0.006460016431444741,-0.006460016431444741
207.71800000000002,0.008198337237636733,-0.008198337237636733
207.71900000000002,0.009198288077461368,-0.009198288077461368
207.72,0.009493714576611556,-0.009493714576611556
207.721,0.009276893376151642,-0.009276893376151642
207.722,0.008750217793842944,-0.008750217793842944
207.723,0.007998520099516083,-0.007998520099516083
207.72400000000002,0.006947151992814013,-0.006947151992814013
207.72500000000002,0.005428335758150938,-0.005428335758150938
207.726,0.0033256659645162067,-0.0033256659645162067
207.727,0.0007265081760012955,-0.0007265081760012955
207.728,0.0019980786540656098,0.0019980786540656098
207.729,0.004240922793826071,0.004240922793826071
207.73000000000002,0.005337032236215048,0.005337032236215048
207.73100000000002,0.004817725699863469,0.004817725699863469
207.732,0.0026451096803806664,0.0026451096803806664
207.733,0.0006737678564276084,-0.0006737678564276084
207.734,0.004158590601599428,-0.004158590601599428
207.735,0.006613978696467045,-0.006613978696467045
207.73600000000002,0.0070034477549396216,-0.0070034477549396216
207.73700000000002,0.004817176566869672,-0.004817176566869672
207.738,0.0003017512072217683,-0.0003017512072217683
207.739,0.00554186132667347,0.00554186132667347
207.74,0.011210641169257223,0.011210641169257223
207.741,0.0151335673563375,0.0151335673563375
207.74200000000002,0.016150829034551308,0.016150829034551308
207.743,0.013878440136208307,0.013878440136208307
207.744,0.008830789610851209,0.008830789610851209
207.745,0.0022525526390119667,0.0022525526390119667
207.746,0.0042891922775053,-0.0042891922775053
207.747,0.009416447126619248,-0.009416447126619248
207.74800000000002,0.012378918031812321,-0.012378918031812321
207.749,0.013264271006644205,-0.013264271006644205
207.75,0.012901591111225841,-0.012901591111225841
207.751,0.012487490871389203,-0.012487490871389203
207.752,0.013065685062295196,-0.013065685062295196
207.75300000000001,0.015049276514422382,-0.015049276514422382
207.75400000000002,0.01796787677514346,-0.01796787677514346
207.755,0.020548775343476617,-0.020548775343476617
207.756,0.021125713744434803,-0.021125713744434803
207.757,0.01824948625799214,-0.01824948625799214
207.758,0.011293546313875346,-0.011293546313875346
207.75900000000001,0.0008353322740592599,-0.0008353322740592599
207.76000000000002,0.011342239469917671,0.011342239469917671
207.761,0.022663229987273822,0.022663229987273822
207.762,0.03047920103391088,0.03047920103391088
207.763,0.03288040243015763,0.03288040243015763
207.764,0.029336279317767826,0.029336279317767826
207.76500000000001,0.020945238720713914,0.020945238720713914
207.76600000000002,0.010189712635949855,0.010189712635949855
207.767,0.000247748019876323,0.000247748019876323
207.768,0.0059430687207252236,-0.0059430687207252236
207.769,0.006587075773886502,-0.006587075773886502
207.77,0.0016162884573226622,-0.0016162884573226622
207.77100000000002,0.00723024588777857,0.00723024588777857
207.77200000000002,0.016871761214165098,0.016871761214165098
207.773,0.02376708741653059,0.02376708741653059
207.774,0.02495432693636249,0.02495432693636249
207.775,0.018940857928332736,0.018940857928332736
207.776,0.006179553290039711,0.006179553290039711
207.77700000000002,0.011008658568106969,-0.011008658568106969
207.77800000000002,0.0290402485005624,-0.0290402485005624
207.779,0.044021485844025404,-0.044021485844025404
207.78,0.05276866905549578,-0.05276866905549578
207.781,0.053604880245274,-0.053604880245274
207.782,0.04671681371772064,-0.04671681371772064
207.78300000000002,0.03399153790949615,-0.03399153790949615
207.78400000000002,0.01840730238035294,-0.01840730238035294
207.785,0.00317748615962365,-0.00317748615962365
207.786,0.009093627196410922,0.009093627196410922
207.787,0.017004772952794137,0.017004772952794137
207.788,0.02055222150179319,0.02055222150179319
207.78900000000002,0.020903300553632778,0.020903300553632778
207.79000000000002,0.01985237350317416,0.01985237350317416
207.791,0.01914810228143014,0.01914810228143014
207.792,0.019903946107785668,0.019903946107785668
207.793,0.02226253131931276,0.02226253131931276
207.794,0.025396086890532237,0.025396086890532237
207.79500000000002,0.027819551104853173,0.027819551104853173
207.79600000000002,0.027902715649208452,0.027902715649208452
207.797,0.02441791580367305,0.02441791580367305
207.798,0.016961107533253774,0.016961107533253774
207.799,0.006131519175915566,0.006131519175915566
207.8,0.00656948742849654,-0.00656948742849654
207.80100000000002,0.019080138126594717,-0.019080138126594717
207.80200000000002,0.02925901796521485,-0.02925901796521485
207.803,0.035374881831616606,-0.035374881831616606
207.804,0.03648362288494001,-0.03648362288494001
207.805,0.032608716407687144,-0.032608716407687144
207.806,0.02469624560784411,-0.02469624560784411
207.80700000000002,0.014371294587823458,-0.014371294587823458
207.80800000000002,0.003565585978318106,-0.003565585978318106
207.809,0.00589154599539187,0.00589154599539187
207.81,0.01262754591958985,0.01262754591958985
207.811,0.015955598469532203,0.015955598469532203
207.812,0.015940721831336897,0.015940721831336897
207.81300000000002,0.013303386097000294,0.013303386097000294
207.81400000000002,0.009195296562602463,0.009195296562602463
207.815,0.004906162100786758,0.004906162100786758
207.816,0.0015702772981321543,0.0015702772981321543
207.817,6.367497492121726e-05,-6.367497492121726e-05
207.818,0.0002447417791413547,0.0002447417791413547
207.81900000000002,0.0022289497023537377,0.0022289497023537377
207.82000000000002,0.005226566383720185,0.005226566383720185
207.821,0.00836192799211551,0.00836192799211551
207.822,0.010748305655549368,0.010748305655549368
207.823,0.011660328677227723,0.011660328677227723
207.824,0.010643172399548513,0.010643172399548513
207.82500000000002,0.007549375565871876,0.007549375565871876
207.82600000000002,0.002518157644570017,0.002518157644570017
207.827,0.004072847827441325,-0.004072847827441325
207.828,0.01165298656558879,-0.01165298656558879
207.829,0.019484643317428645,-0.019484643317428645
207.83,0.026676049404700423,-0.026676049404700423
207.83100000000002,0.03220780929111627,-0.03220780929111627
207.83200000000002,0.03500870878930772,-0.03500870878930772
207.833,0.034105979201701074,-0.034105979201701074
207.834,0.028846492901928738,-0.028846492901928738
207.835,0.019147220388608697,-0.019147220388608697
207.836,0.0057003684780098296,-0.0057003684780098296
207.83700000000002,0.009953631724104666,0.009953631724104666
207.83800000000002,0.02555365564747229,0.02555365564747229
207.839,0.03846531269565244,0.03846531269565244
207.84,0.04620011712180117,0.04620011712180117
207.841,0.04699319654543379,0.04699319654543379
207.842,0.04028723512571708,0.04028723512571708
207.84300000000002,0.026974813950914205,0.026974813950914205
207.84400000000002,0.009303924003646557,0.009303924003646557
207.845,0.009559439793960461,-0.009559439793960461
207.846,0.026217523337340707,-0.026217523337340707
207.847,0.03780237157170292,-0.03780237157170292
207.848,0.042607998112617486,-0.042607998112617486
207.84900000000002,0.0404189828842612,-0.0404189828842612
207.85000000000002,0.032447165038118425,-0.032447165038118425
207.851,0.020904006956142213,-0.020904006956142213
207.852,0.008345553989572414,-0.008345553989572414
207.853,0.0030062745736282467,0.0030062745736282467
207.854,0.011760991956695822,0.011760991956695822
207.85500000000002,0.017535965266113104,0.017535965266113104
207.85600000000002,0.02078364713511965,0.02078364713511965
207.857,0.022360600189322694,0.022360600189322694
207.858,0.023015639834769334,0.023015639834769334
207.859,0.022997467868989162,0.022997467868989162
207.86,0.021933243082605604,0.021933243082605604
207.86100000000002,0.01902527488593118,0.01902527488593118
207.86200000000002,0.013490147682678954,0.013490147682678954
207.863,0.005067327901558614,0.005067327901558614
207.864,0.005611174500153779,-0.005611174500153779
207.865,0.016957341740438073,-0.016957341740438073
207.866,0.02673165237685358,-0.02673165237685358
207.86700000000002,0.03264351057972517,-0.03264351057972517
207.868,0.033060812295000075,-0.033060812295000075
207.869,0.027588388728782595,-0.027588388728782595
207.87,0.017304616861736066,-0.017304616861736066
207.871,0.004550964434049271,-0.004550964434049271
207.872,0.007683617579253924,0.007683617579253924
207.87300000000002,0.016602772100890322,0.016602772100890322
207.874,0.020404754203730086,0.020404754203730086
207.875,0.018788840937728424,0.018788840937728424
207.876,0.013000713136330388,0.013000713136330388
207.877,0.005400731514356085,0.005400731514356085
207.87800000000001,0.0013046475605814603,-0.0013046475605814603
207.87900000000002,0.004918012283704863,-0.004918012283704863
207.88,0.00441628931611816,-0.00441628931611816
207.881,0.00021651446493612943,-0.00021651446493612943
207.882,0.006031263027625942,0.006031263027625942
207.883,0.012038594344500686,0.012038594344500686
207.88400000000001,0.015649097031095568,0.015649097031095568
207.88500000000002,0.01552213990574831,0.01552213990574831
207.886,0.01150764192203413,0.01150764192203413
207.887,0.0046056831621406275,0.0046056831621406275
207.888,0.0034468649738318524,-0.0034468649738318524
207.889,0.010792765439176713,-0.010792765439176713
207.89000000000001,0.016042174696186247,-0.016042174696186247
207.89100000000002,0.018624686927022228,-0.018624686927022228
207.892,0.018798474862513997,-0.018798474862513997
207.893,0.01734560990480422,-0.01734560990480422
207.894,0.015103460330158603,-0.015103460330158603
207.895,0.012541697024338641,-0.012541697024338641
207.89600000000002,0.00957032040160311,-0.00957032040160311
207.89700000000002,0.005665432548733387,-0.005665432548733387
207.898,0.0002639829180242603,-0.0002639829180242603
207.899,0.006741042036846046,0.006741042036846046
207.9,0.01462975923345643,0.01462975923345643
207.901,0.021801499958181723,0.021801499958181723
207.90200000000002,0.02611808777189725,0.02611808777189725
207.90300000000002,0.025570755661530605,0.025570755661530605
207.904,0.01905867164448834,0.01905867164448834
207.905,0.006997380844602816,0.006997380844602816
207.906,0.008494536097808172,-0.008494536097808172
207.907,0.023956883478754996,-0.023956883478754996
207.90800000000002,0.03544202612809655,-0.03544202612809655
207.90900000000002,0.03963010494508572,-0.03963010494508572
207.91,0.03486499484945578,-0.03486499484945578
207.911,0.021771499256557584,-0.021771499256557584
207.912,0.003229626813929075,-0.003229626813929075
207.913,0.016322466421707347,0.016322466421707347
207.91400000000002,0.032071994595684904,0.032071994595684904
207.91500000000002,0.040156394675561737,0.040156394675561737
207.916,0.03873157194734155,0.03873157194734155
207.917,0.028459626915891854,0.028459626915891854
207.918,0.012270439693546666,0.012270439693546666
207.919,0.005523339053412158,-0.005523339053412158
207.92000000000002,0.020479354577853347,-0.020479354577853347
207.92100000000002,0.029259669757584802,-0.029259669757584802
207.922,0.030475140458623456,-0.030475140458623456
207.923,0.024902895461301797,-0.024902895461301797
207.924,0.015045143679933141,-0.015045143679933141
207.925,0.004206142234043582,-0.004206142234043582
207.92600000000002,0.004592019941314438,0.004592019941314438
207.92700000000002,0.009500052360931892,0.009500052360931892
207.928,0.0102666745670983,0.0102666745670983
207.929,0.008094848462013615,0.008094848462013615
207.93,0.005019978370682877,0.005019978370682877
207.931,0.0030559115989430724,0.0030559115989430724
207.93200000000002,0.003419558226772132,0.003419558226772132
207.93300000000002,0.0061017689538387845,0.0061017689538387845
207.934,0.009919623368827726,0.009919623368827726
207.935,0.013011860433037863,0.013011860433037863
207.936,0.01358534870225483,0.01358534870225483
207.937,0.010638006014017869,0.010638006014017869
207.93800000000002,0.004398205818399546,0.004398205818399546
207.93900000000002,0.0036755978546683422,-0.0036755978546683422
207.94,0.011336490492873037,-0.011336490492873037
207.941,0.01628149405428565,-0.01628149405428565
207.942,0.016926436674881036,-0.016926436674881036
207.943,0.012962587475847033,-0.012962587475847033
207.94400000000002,0.005509072600137477,-0.005509072600137477
207.94500000000002,0.003190407927347097,0.003190407927347097
207.946,0.010429859262510053,0.010429859262510053
207.947,0.013852474322899455,0.013852474322899455
207.948,0.012158788158911043,0.012158788158911043
207.949,0.0054974219573556745,0.0054974219573556745
207.95000000000002,0.004571862615147547,-0.004571862615147547
207.95100000000002,0.015519801151996073,-0.015519801151996073
207.952,0.02455135166108661,-0.02455135166108661
207.953,0.02935906648600724,-0.02935906648600724
207.954,0.028711646410335204,-0.028711646410335204
207.955,0.02272462691132116,-0.02272462691132116
207.95600000000002,0.012761422598614063,-0.012761422598614063
207.95700000000002,0.0010204048967961744,-0.0010204048967961744
207.958,0.010055008948691001,0.010055008948691001
207.959,0.018372164932422917,0.018372164932422917
207.96,0.022637368066690068,0.022637368066690068
207.961,0.02256075843525075,0.02256075843525075
207.96200000000002,0.018798315100369077,0.018798315100369077
207.96300000000002,0.01268177053845213,0.01268177053845213
207.964,0.005832979257151698,0.005832979257151698
207.965,0.00022803235869244844,-0.00022803235869244844
207.966,0.00438993121505018,-0.00438993121505018
207.967,0.006117959388462239,-0.006117959388462239
207.96800000000002,0.005471955288875694,-0.005471955288875694
207.96900000000002,0.002999653517006921,-0.002999653517006921
207.97,0.00044807496520859135,0.00044807496520859135
207.971,0.0039278478666177055,0.0039278478666177055
207.972,0.006595254048191027,0.006595254048191027
207.973,0.007846515261598058,0.007846515261598058
207.97400000000002,0.0073957076351745836,0.0073957076351745836
207.97500000000002,0.005287015004070972,0.005287015004070972
207.976,0.0018519490665373317,0.0018519490665373317
207.977,0.002371945627547468,-0.002371945627547468
207.978,0.006741433346344672,-0.006741433346344672
207.979,0.010608017131895381,-0.010608017131895381
207.98000000000002,0.01340332651627086,-0.01340332651627086
207.98100000000002,0.014700865246443855,-0.014700865246443855
207.982,0.014253205805486793,-0.014253205805486793
207.983,0.012010110293213463,-0.012010110293213463
207.984,0.00812559356087084,-0.00812559356087084
207.985,0.002959179431296796,-0.002959179431296796
207.98600000000002,0.002930688080957059,0.002930688080957059
207.98700000000002,0.00881164688046431,0.00881164688046431
207.988,0.013836313746481574,0.013836313746481574
207.989,0.017147400471608856,0.017147400471608856
207.99,0.01802840144550022,0.01802840144550022
207.991,0.016078969133590262,0.016078969133590262
207.99200000000002,0.01137340683393196,0.01137340683393196
207.993,0.0045486629645974715,0.0045486629645974715
207.994,0.0032272486357741406,-0.0032272486357741406
207.995,0.010431215894835514,-0.010431215894835514
207.996,0.01549024459826497,-0.01549024459826497
207.997,0.017156196278825614,-0.017156196278825614
207.99800000000002,0.014856171528556048,-0.014856171528556048
207.999,0.00891497138202259,-0.00891497138202259
208.0,0.0005683576342826707,-0.0005683576342826707
208.001,0.008262606596846786,0.008262606596846786
208.002,0.015398329964654324,0.015398329964654324
208.00300000000001,0.018927686646069707,0.018927686646069707
208.00400000000002,0.017696710708438146,0.017696710708438146
208.005,0.011622626381465924,0.011622626381465924
208.006,0.0017408705785647506,0.0017408705785647506
208.007,0.010033099909317089,-0.010033099909317089
208.008,0.02136355159581642,-0.02136355159581642
208.00900000000001,0.030048355168835545,-0.030048355168835545
208.01000000000002,0.03451458986471278,-0.03451458986471278
208.011,0.03412534865293968,-0.03412534865293968
208.012,0.029228594727661584,-0.029228594727661584
208.013,0.020959130111559223,-0.020959130111559223
208.014,0.01087696373931604,-0.01087696373931604
208.01500000000001,0.0005659704495303585,-0.0005659704495303585
208.01600000000002,0.008686428453031799,0.008686428453031799
208.017,0.0160511809504893,0.0160511809504893
208.018,0.021149450063466455,0.021149450063466455
208.019,0.023925446909176747,0.023925446909176747
208.02,0.024487649557492892,0.024487649557492892
208.02100000000002,0.023003135489263752,0.023003135489263752
208.02200000000002,0.019690961299640614,0.019690961299640614
208.023,0.014902872488897346,0.014902872488897346
208.024,0.009228062100358632,0.009228062100358632
208.025,0.0035360329695009384,0.0035360329695009384
208.026,0.001110668910293508,-0.001110668910293508
208.02700000000002,0.0036888837798103777,-0.0036888837798103777
208.02800000000002,0.0035388101786010106,-0.0035388101786010106
208.029,0.0006697237396901424,-0.0006697237396901424
208.03,0.004080898898765606,0.004080898898765606
208.031,0.009131893451677564,0.009131893451677564
208.032,0.012508878805791653,0.012508878805791653
208.03300000000002,0.012388770915360846,0.012388770915360846
208.03400000000002,0.007686189106563333,0.007686189106563333
208.035,0.0015054979976215008,-0.0015054979976215008
208.036,0.01377870986210132,-0.01377870986210132
208.037,0.026657134797786176,-0.026657134797786176
208.038,0.03718011319085675,-0.03718011319085675
208.03900000000002,0.042672267697072885,-0.042672267697072885
208.04000000000002,0.04147722373044192,-0.04147722373044192
208.041,0.03343566145429813,-0.03343566145429813
208.042,0.019960291898259094,-0.019960291898259094
208.043,0.003681571412534452,-0.003681571412534452
208.044,0.012231083206720497,0.012231083206720497
208.04500000000002,0.024870123914732447,0.024870123914732447
208.04600000000002,0.03227789915731514,0.03227789915731514
208.047,0.033829952351313516,0.033829952351313516
208.048,0.030224397279565315,0.030224397279565315
208.049,0.02311519572663254,0.02311519572663254
208.05,0.014535375124603329,0.014535375124603329
208.05100000000002,0.006310042378047715,0.006310042378047715
208.05200000000002,0.000357318813105598,-0.000357318813105598
208.053,0.005019191264515258,-0.005019191264515258
208.054,0.007841099810456064,-0.007841099810456064
208.055,0.009282307598858362,-0.009282307598858362
208.056,0.009755151199007842,-0.009755151199007842
208.05700000000002,0.009409721735997743,-0.009409721735997743
208.05800000000002,0.008125726673899365,-0.008125726673899365
208.059,0.005698840929029598,-0.005698840929029598
208.06,0.0021222751176720456,-0.0021222751176720456
208.061,0.002180265947785188,0.002180265947785188
208.062,0.006298842521804093,0.006298842521804093
208.06300000000002,0.00901765118898823,0.00901765118898823
208.06400000000002,0.009192595301549969,0.009192595301549969
208.065,0.006198964131992225,0.006198964131992225
208.066,0.0002785339043975459,0.0002785339043975459
208.067,0.007364618091012395,-0.007364618091012395
208.068,0.014791117061574124,-0.014791117061574124
208.06900000000002,0.01983587076587304,-0.01983587076587304
208.07000000000002,0.02075513311416405,-0.02075513311416405
208.071,0.016806289181552116,-0.016806289181552116
208.072,0.008564250408870808,-0.008564250408870808
208.073,0.0021452265541192757,0.0021452265541192757
208.074,0.012695155152213497,0.012695155152213497
208.07500000000002,0.020366342792445334,0.020366342792445334
208.07600000000002,0.02310684992550699,0.02310684992550699
208.077,0.02011413727976484,0.02011413727976484
208.078,0.012066195937750029,0.012066195937750029
208.079,0.0009364835492868601,0.0009364835492868601
208.08,0.010545651416316455,-0.010545651416316455
208.08100000000002,0.019623505166630344,-0.019623505166630344
208.08200000000002,0.024216442584992587,-0.024216442584992587
208.083,0.023403790505847705,-0.023403790505847705
208.084,0.01757241237156233,-0.01757241237156233
208.085,0.008218188133703999,-0.008218188133703999
208.086,0.0025082616825252094,0.0025082616825252094
208.08700000000002,0.012359207330966944,0.012359207330966944
208.08800000000002,0.01949018208196486,0.01949018208196486
208.089,0.02278435814348336,0.02278435814348336
208.09,0.021953868118259074,0.021953868118259074
208.091,0.017444361346974146,0.017444361346974146
208.092,0.01021896049941254,0.01021896049941254
208.09300000000002,0.001510891798245498,0.001510891798245498
208.09400000000002,0.0073873589022813695,-0.0073873589022813695
208.095,0.015271213552660822,-0.015271213552660822
208.096,0.02111944325209487,-0.02111944325209487
208.097,0.024169882784788113,-0.024169882784788113
208.098,0.024001456407734482,-0.024001456407734482
208.09900000000002,0.020622438213461585,-0.020622438213461585
208.10000000000002,0.014534088610027262,-0.014534088610027262
208.101,0.006721255082262544,-0.006721255082262544
208.102,0.0014706800952468725,0.0014706800952468725
208.103,0.008579360811289696,0.008579360811289696
208.104,0.0133483937824015,0.0133483937824015
208.10500000000002,0.01504598335627436,0.01504598335627436
208.10600000000002,0.0136780970673137,0.0136780970673137
208.107,0.01001375743458263,0.01001375743458263
208.108,0.005392546221086089,0.005392546221086089
208.109,0.0013543711259587986,0.0013543711259587986
208.11,0.0008055084193381928,-0.0008055084193381928
208.11100000000002,0.0004209727996828158,-0.0004209727996828158
208.11200000000002,0.0023439021501036146,0.0023439021501036146
208.113,0.006545268153676762,0.006545268153676762
208.114,0.010749365704852855,0.010749365704852855
208.115,0.013471699273619827,0.013471699273619827
208.116,0.013626501275967921,0.013626501275967921
208.11700000000002,0.010845029230971151,0.010845029230971151
208.118,0.005566260878881008,0.005566260878881008
208.119,0.0011197872897809231,-0.0011197872897809231
208.12,0.007814515506871051,-0.007814515506871051
208.121,0.013219554146763037,-0.013219554146763037
208.122,0.016477682474865328,-0.016477682474865328
208.12300000000002,0.01734338959540114,-0.01734338959540114
208.124,0.01614588512751974,-0.01614588512751974
208.125,0.013581351660809536,-0.013581351660809536
208.126,0.010426920017298618,-0.010426920017298618
208.127,0.007287020490399658,-0.007287020490399658
208.12800000000001,0.004458894147610647,-0.004458894147610647
208.12900000000002,0.0019495435117275657,-0.0019495435117275657
208.13,0.00038622136673381315,0.00038622136673381315
208.131,0.0026630375483902833,0.0026630375483902833
208.132,0.004826135698839265,0.004826135698839265
208.133,0.006619947490754809,0.006619947490754809
208.13400000000001,0.007677056562018515,0.007677056562018515
208.13500000000002,0.007685622747496783,0.007685622747496783
208.136,0.0065574649881344135,0.0065574649881344135
208.137,0.0045168038649378035,0.0045168038649378035
208.138,0.002062260310076603,0.002062260310076603
208.139,0.00019126557198338376,-0.00019126557198338376
208.14000000000001,0.0017311449251046812,-0.0017311449251046812
208.14100000000002,0.0023366307507910787,-0.0023366307507910787
208.142,0.0021571872418209327,-0.0021571872418209327
208.143,0.0016394977274983228,-0.0016394977274983228
208.144,0.0013246758130852911,-0.0013246758130852911
208.145,0.001593475386866665,-0.001593475386866665
208.14600000000002,0.0024647968952987796,-0.0024647968952987796
208.14700000000002,0.0035386202010862142,-0.0035386202010862142
208.148,0.004121936517232618,-0.004121936517232618
208.149,0.003504142164203316,-0.003504142164203316
208.15,0.0012843114537111483,-0.0012843114537111483
208.151,0.002377309933704237,0.002377309933704237
208.15200000000002,0.006693383145279375,0.006693383145279375
208.15300000000002,0.010417041269418191,0.010417041269418191
208.154,0.012206081489635364,0.012206081489635364
208.155,0.011070177943985682,0.011070177943985682
208.156,0.006748145367459556,0.006748145367459556
208.157,0.0001231041929844551,-0.0001231041929844551
208.15800000000002,0.008120574073187546,-0.008120574073187546
208.15900000000002,0.015406012612850387,-0.015406012612850387
208.16,0.020242915293864374,-0.020242915293864374
208.161,0.021493717634410953,-0.021493717634410953
208.162,0.01893507685926185,-0.01893507685926185
208.163,0.013289857205589242,-0.013289857205589242
208.16400000000002,0.005970931528324275,-0.005970931528324275
208.16500000000002,0.001370114183207271,0.001370114183207271
208.166,0.007331946712998005,0.007331946712998005
208.167,0.011125006323381747,0.011125006323381747
208.168,0.01269179670924423,0.01269179670924423
208.169,0.012563247699803116,0.012563247699803116
208.17000000000002,0.011525455830874958,0.011525455830874958
208.17100000000002,0.010238101442999449,0.010238101442999449
208.172,0.00895819160211748,0.00895819160211748
208.173,0.007476360278175648,0.007476360278175648
208.174,0.005285757736180195,0.005285757736180195
208.175,0.0019090023672994716,0.0019090023672994716
208.17600000000002,0.0027569111045396707,-0.0027569111045396707
208.17700000000002,0.008228907307009954,-0.008228907307009954
208.178,0.0134620245800087,-0.0134620245800087
208.179,0.017121875342038004,-0.017121875342038004
208.18,0.018019440459185094,-0.018019440459185094
208.181,0.015553504836722526,-0.015553504836722526
208.18200000000002,0.00999382475506325,-0.00999382475506325
208.18300000000002,0.0024886019375303238,-0.0024886019375303238
208.184,0.005224299463327502,0.005224299463327502
208.185,0.011316373324394698,0.011316373324394698
208.186,0.014413664447750054,0.014413664447750054
208.187,0.014003830571467077,0.014003830571467077
208.18800000000002,0.010566594790592156,0.010566594790592156
208.18900000000002,0.0053849540994982195,0.0053849540994982195
208.19,0.00010578171606358922,0.00010578171606358922
208.191,0.003795269675477817,-0.003795269675477817
208.192,0.005459685070313331,-0.005459685070313331
208.193,0.004854786549362756,-0.004854786549362756
208.19400000000002,0.0026866247773721713,-0.0026866247773721713
208.19500000000002,6.689930173570814e-05,-6.689930173570814e-05
208.196,0.0019293073025822588,0.0019293073025822588
208.197,0.002644812753340486,0.002644812753340486
208.198,0.002022270600924255,0.002022270600924255
208.199,0.0005321470575719108,0.0005321470575719108
208.20000000000002,0.0011052352290372785,-0.0011052352290372785
208.20100000000002,0.0022743207749125797,-0.0022743207749125797
208.202,0.0027385002123119905,-0.0027385002123119905
208.203,0.002713510614947885,-0.002713510614947885
208.204,0.0027069310647343863,-0.0027069310647343863
208.205,0.0031937508074791733,-0.0031937508074791733
208.20600000000002,0.004275184185003655,-0.004275184185003655
208.20700000000002,0.005486346326812035,-0.005486346326812035
208.208,0.00586741032558536,-0.00586741032558536
208.209,0.004309008004510721,-0.004309008004510721
208.21,6.444684466943985e-05,-6.444684466943985e-05
208.211,0.0067646561519113186,0.0067646561519113186
208.21200000000002,0.014979536896956396,0.014979536896956396
208.21300000000002,0.02241752601628008,0.02241752601628008
208.214,0.026483933329618445,0.026483933329618445
208.215,0.02495008991770121,0.02495008991770121
208.216,0.01676982712541149,0.01676982712541149
208.217,0.002630568786842508,0.002630568786842508
208.21800000000002,0.01498242333320188,-0.01498242333320188
208.21900000000002,0.03228436665528566,-0.03228436665528566
208.22,0.04514423745687992,-0.04514423745687992
208.221,0.05022613042766928,-0.05022613042766928
208.222,0.045972805825948204,-0.045972805825948204
208.223,0.033117658852840334,-0.033117658852840334
208.22400000000002,0.014548396264393592,-0.014548396264393592
208.22500000000002,0.005454629645806203,0.005454629645806203
208.226,0.0223849862055404,0.0223849862055404
208.227,0.03273138656638044,0.03273138656638044
208.228,0.03488511384812758,0.03488511384812758
208.229,0.029465482860616666,0.029465482860616666
208.23000000000002,0.018981327627537656,0.018981327627537656
208.23100000000002,0.00695703542591248,0.00695703542591248
208.232,0.003182906845551072,-0.003182906845551072
208.233,0.009110474638497065,-0.009110474638497065
208.234,0.0101642510206204,-0.0101642510206204
208.235,0.00733771287640034,-0.00733771287640034
208.23600000000002,0.002728467313165766,-0.002728467313165766
208.23700000000002,0.0013319291186683392,0.0013319291186683392
208.238,0.0031514394717901536,0.0031514394717901536
208.239,0.0022522808820607445,0.0022522808820607445
208.24,0.0005385190126845096,-0.0005385190126845096
208.241,0.003492075720371392,-0.003492075720371392
208.24200000000002,0.0047100430199276755,-0.0047100430199276755
208.243,0.0029113818674435846,-0.0029113818674435846
208.244,0.0020135368849820354,0.0020135368849820354
208.245,0.008880008803195161,0.008880008803195161
208.246,0.015560061530005543,0.015560061530005543
208.247,0.019683157065083497,0.019683157065083497
208.24800000000002,0.01944178996266514,0.01944178996266514
208.249,0.014224136214708997,0.014224136214708997
208.25,0.00485929926380543,0.00485929926380543
208.251,0.006603827475097884,-0.006603827475097884
208.252,0.017504127668672362,-0.017504127668672362
208.25300000000001,0.025355159640510976,-0.025355159640510976
208.25400000000002,0.028551449603367873,-0.028551449603367873
208.255,0.026771170948342693,-0.026771170948342693
208.256,0.02096281960745973,-0.02096281960745973
208.257,0.01294691341525415,-0.01294691341525415
208.258,0.0047893663067617165,-0.0047893663067617165
208.25900000000001,0.0018312819950144095,0.0018312819950144095
208.26000000000002,0.0060547293984315066,0.0060547293984315066
208.261,0.007944516135848225,0.007944516135848225
208.262,0.008266929992409206,0.008266929992409206
208.263,0.008056046152936633,0.008056046152936633
208.264,0.008144392136296566,0.008144392136296566
208.26500000000001,0.008836646076405398,0.008836646076405398
208.26600000000002,0.009837438312944802,0.009837438312944802
208.267,0.010441151211223665,0.010441151211223665
208.268,0.009891161882792607,0.009891161882792607
208.269,0.0077551724092095025,0.0077551724092095025
208.27,0.004163092414192759,0.004163092414192759
208.27100000000002,0.00018771255793480546,-0.00018771255793480546
208.27200000000002,0.004261786406751225,-0.004261786406751225
208.273,0.007059431380823717,-0.007059431380823717
208.274,0.007988613909298245,-0.007988613909298245
208.275,0.007088745725787864,-0.007088745725787864
208.276,0.00501631831666189,-0.00501631831666189
208.27700000000002,0.002793031839028027,-0.002793031839028027
208.27800000000002,0.0014081728385069452,-0.0014081728385069452
208.279,0.0014244904304063584,-0.0014244904304063584
208.28,0.002739086872324577,-0.002739086872324577
208.281,0.004596536725593525,-0.004596536725593525
208.282,0.005859922770030027,-0.005859922770030027
208.28300000000002,0.005449705785003185,-0.005449705785003185
208.28400000000002,0.002795051774693657,-0.002795051774693657
208.285,0.0018685507142098868,0.0018685507142098868
208.286,0.007473073849421441,0.007473073849421441
208.287,0.012389272231386082,0.012389272231386082
208.288,0.014918507127045745,0.014918507127045745
208.28900000000002,0.013848957361321749,0.013848957361321749
208.29000000000002,0.00889267858304275,0.00889267858304275
208.291,0.0008541296794596946,0.0008541296794596946
208.292,0.008534525441528395,-0.008534525441528395
208.293,0.017068937014878705,-0.017068937014878705
208.294,0.022682549799283462,-0.022682549799283462
208.29500000000002,0.0240247949644904,-0.0240247949644904
208.29600000000002,0.020831440803599565,-0.020831440803599565
208.297,0.013977350503589447,-0.013977350503589447
208.298,0.005201999760639764,-0.005201999760639764
208.299,0.0034008612618808215,0.0034008612618808215
208.3,0.009968458850972325,0.009968458850972325
208.30100000000002,0.013351461396708418,0.013351461396708418
208.30200000000002,0.013355626581051385,0.013355626581051385
208.303,0.010685968398707559,0.010685968398707559
208.304,0.00663222036278037,0.00663222036278037
208.305,0.0026127508740141133,0.0026127508740141133
208.306,0.0002689669518413312,-0.0002689669518413312
208.30700000000002,0.0015156897866900776,-0.0015156897866900776
208.30800000000002,0.001294675318737645,-0.001294675318737645
208.309,0.00026393237941307125,-0.00026393237941307125
208.31,0.0007552744511799744,0.0007552744511799744
208.311,0.001133975944192683,0.001133975944192683
208.312,0.0006902183854540725,0.0006902183854540725
208.31300000000002,0.00024553971556331056,-0.00024553971556331056
208.31400000000002,0.0009737662453955926,-0.0009737662453955926
208.315,0.0007234189923772417,-0.0007234189923772417
208.316,0.0010047929622217801,0.0010047929622217801
208.317,0.004174498115636375,0.004174498115636375
208.318,0.008128247077985573,0.008128247077985573
208.31900000000002,0.011720422069878602,0.011720422069878602
208.32000000000002,0.013635303929356048,0.013635303929356048
208.321,0.012794353332327464,0.012794353332327464
208.322,0.008724556608963163,0.008724556608963163
208.323,0.001768419293508132,0.001768419293508132
208.324,0.0069368923152631325,-0.0069368923152631325
208.32500000000002,0.01571349507426714,-0.01571349507426714
208.32600000000002,0.022760535772735686,-0.022760535772735686
208.327,0.02661603956505827,-0.02661603956505827
208.328,0.026529438439775198,-0.026529438439775198
208.329,0.02263838641895506,-0.02263838641895506
208.33,0.015902594068513073,-0.015902594068513073
208.33100000000002,0.007820099431753904,-0.007820099431753904
208.33200000000002,1.5076529659468262e-05,-1.5076529659468262e-05
208.333,0.006178539066019054,0.006178539066019054
208.334,0.010017034938653444,0.010017034938653444
208.335,0.011450612161259524,0.011450612161259524
208.336,0.01101498300156071,0.01101498300156071
208.33700000000002,0.00956186698004597,0.00956186698004597
208.33800000000002,0.00792751421575341,0.00792751421575341
208.339,0.006652796838935138,0.006652796838935138
208.34,0.00584511778979341,0.00584511778979341
208.341,0.005219779501328894,0.005219779501328894
208.342,0.004294536083239761,0.004294536083239761
208.34300000000002,0.002657518487545187,0.002657518487545187
208.34400000000002,0.00020376302159625338,0.00020376302159625338
208.345,0.0027522520671579968,-0.0027522520671579968
208.346,0.0055354197220206834,-0.0055354197220206834
208.347,0.007324723841404999,-0.007324723841404999
208.348,0.007449894722373291,-0.007449894722373291
208.34900000000002,0.005662579509964863,-0.005662579509964863
208.35000000000002,0.002278802418188565,-0.002278802418188565
208.351,0.0018689257497625162,0.0018689257497625162
208.352,0.005665903013005313,0.005665903013005313
208.353,0.008064705038503426,0.008064705038503426
208.354,0.008433373013110536,0.008433373013110536
208.35500000000002,0.006779692597751755,0.006779692597751755
208.35600000000002,0.0037658212917200478,0.0037658212917200478
208.357,0.0004965613856943896,0.0004965613856943896
208.358,0.001856879442159069,-0.001856879442159069
208.359,0.002474759488158233,-0.002474759488158233
208.36,0.0012040591260818474,-0.0012040591260818474
208.36100000000002,0.0013454165634233448,0.0013454165634233448
208.36200000000002,0.0039710202578458675,0.0039710202578458675
208.363,0.005270756384795857,0.005270756384795857
208.364,0.004138169284626059,0.004138169284626059
208.365,0.00019469119525838835,0.00019469119525838835
208.366,0.005992531210887469,-0.005992531210887469
208.36700000000002,0.012995234317719718,-0.012995234317719718
208.368,0.0189022054811398,-0.0189022054811398
208.369,0.02188400876105998,-0.02188400876105998
208.37,0.020770575438943072,-0.020770575438943072
208.371,0.015456160490085441,-0.015456160490085441
208.372,0.006994952241517301,-0.006994952241517301
208.37300000000002,0.0026543759931563437,0.0026543759931563437
208.374,0.011165801767025429,0.011165801767025429
208.375,0.016504375294645227,0.016504375294645227
208.376,0.017504689446244108,0.017504689446244108
208.377,0.01419150698212696,0.01419150698212696
208.37800000000001,0.007745142772354942,0.007745142772354942
208.37900000000002,0.00012590642926862223,0.00012590642926862223
208.38,0.00652145144714303,-0.00652145144714303
208.381,0.010495383193314374,-0.010495383193314374
208.382,0.01100348554956576,-0.01100348554956576
208.383,0.008329254858367899,-0.008329254858367899
208.38400000000001,0.0036612747844414414,-0.0036612747844414414
208.38500000000002,0.001344895284156881,0.001344895284156881
208.386,0.005119471321101554,0.005119471321101554
208.387,0.0066633727033048075,0.0066633727033048075
208.388,0.005813842336652849,0.005813842336652849
208.389,0.003218702448482618,0.003218702448482618
208.39000000000001,4.6855819459205595e-05,4.6855819459205595e-05
208.39100000000002,0.002451589332702143,-0.002451589332702143
208.392,0.003378608229370288,-0.003378608229370288
208.393,0.002469545541002983,-0.002469545541002983
208.394,0.0001372911316211736,-0.0001372911316211736
208.395,0.0027195629582365327,0.0027195629582365327
208.39600000000002,0.005062323905833435,0.005062323905833435
208.39700000000002,0.006081095636672345,0.006081095636672345
208.398,0.005456560096120071,0.005456560096120071
208.399,0.0034302238463890483,0.0034302238463890483
208.4,0.000672169698762588,0.000672169698762588
208.401,0.001991256551240431,-0.001991256551240431
208.40200000000002,0.003880508673531947,-0.003880508673531947
208.40300000000002,0.004682825091346278,-0.004682825091346278
208.404,0.00451306183311555,-0.00451306183311555
208.405,0.0038037281083877403,-0.0038037281083877403
208.406,0.0030787426194038444,-0.0030787426194038444
208.407,0.00270842098697768,-0.00270842098697768
208.40800000000002,0.0027473527401437334,-0.0027473527401437334
208.40900000000002,0.0029213261451847615,-0.0029213261451847615
208.41,0.002768446271192696,-0.002768446271192696
208.411,0.001876692069496781,-0.001876692069496781
208.412,0.0001195830089196297,-0.0001195830089196297
208.413,0.002210882883371707,0.002210882883371707
208.41400000000002,0.0044378965715736445,0.0044378965715736445
208.41500000000002,0.005701035623768572,0.005701035623768572
208.416,0.005260369395359577,0.005260369395359577
208.417,0.0027953905154567823,0.0027953905154567823
208.418,0.0014138413082413661,-0.0014138413082413661
208.419,0.006498854455704926,-0.006498854455704926
208.42000000000002,0.011217549873048325,-0.011217549873048325
208.42100000000002,0.014309079679450179,-0.014309079679450179
208.422,0.014874567912722878,-0.014874567912722878
208.423,0.01265679962357719,-0.01265679962357719
208.424,0.008123650581335311,-0.008123650581335311
208.425,0.0023253820252424726,-0.0023253820252424726
208.42600000000002,0.003427640444695194,0.003427640444695194
208.42700000000002,0.00795942182107864,0.00795942182107864
208.428,0.010563725930351497,0.010563725930351497
208.429,0.01117050971233922,0.01117050971233922
208.43,0.01029276376240471,0.01029276376240471
208.431,0.008779434263579322,0.008779434263579322
208.43200000000002,0.007466855455417105,0.007466855455417105
208.43300000000002,0.0068551013244922505,0.0068551013244922505
208.434,0.006925192305836569,0.006925192305836569
208.435,0.007162038613817465,0.007162038613817465
208.436,0.006774344327393757,0.006774344327393757
208.437,0.005032179504056663,0.005032179504056663
208.43800000000002,0.0016000827636628123,0.0016000827636628123
208.43900000000002,0.0032567658682840675,-0.0032567658682840675
208.44,0.00867342916942143,-0.00867342916942143
208.441,0.013402792365530231,-0.013402792365530231
208.442,0.016184870851942423,-0.016184870851942423
208.443,0.01614946281405539,-0.01614946281405539
208.44400000000002,0.013119541106954602,-0.013119541106954602
208.44500000000002,0.007712495401246056,-0.007712495401246056
208.446,0.001200093485582843,-0.001200093485582843
208.447,0.004835177661125799,0.004835177661125799
208.448,0.008944884734317761,0.008944884734317761
208.449,0.010225824296950207,0.010225824296950207
208.45000000000002,0.008573131222737625,0.008573131222737625
208.45100000000002,0.004699595739210704,0.004699595739210704
208.452,8.325531932670875e-05,-8.325531932670875e-05
208.453,0.00425546932839918,-0.00425546932839918
208.454,0.0065339653305297824,-0.0065339653305297824
208.455,0.006242796588651166,-0.006242796588651166
208.45600000000002,0.00350337645783688,-0.00350337645783688
208.45700000000002,0.000805711767254069,0.000805711767254069
208.458,0.0053028017845290695,0.0053028017845290695
208.459,0.008495330102413426,0.008495330102413426
208.46,0.009199062034195064,0.009199062034195064
208.461,0.00687043351283243,0.00687043351283243
208.46200000000002,0.0017662255227604284,0.0017662255227604284
208.46300000000002,0.005105937753727115,-0.005105937753727115
208.464,0.012227129530242289,-0.012227129530242289
208.465,0.017930607528425187,-0.017930607528425187
208.466,0.020796147772088,-0.020796147772088
208.467,0.019979988631527938,-0.019979988631527938
208.46800000000002,0.015406019035792737,-0.015406019035792737
208.46900000000002,0.007780472607680748,-0.007780472607680748
208.47,0.0015653059515780517,0.0015653059515780517
208.471,0.010961578368700434,0.010961578368700434
208.472,0.01874835824322421,0.01874835824322421
208.473,0.023607831649897906,0.023607831649897906
208.47400000000002,0.024811690113202275,0.024811690113202275
208.47500000000002,0.022335709931007204,0.022335709931007204
208.476,0.01682418806038176,0.01682418806038176
208.477,0.009419201883615525,0.009419201883615525
208.478,0.0014975843141310599,0.0014975843141310599
208.479,0.0056234790536093815,-0.0056234790536093815
208.48000000000002,0.010946748080948017,-0.010946748080948017
208.48100000000002,0.013965401417631544,-0.013965401417631544
208.482,0.01471001161735566,-0.01471001161735566
208.483,0.013667878973085655,-0.013667878973085655
208.484,0.011600890038619036,-0.011600890038619036
208.485,0.009311962991111577,-0.009311962991111577
208.48600000000002,0.007421676547653698,-0.007421676547653698
208.48700000000002,0.006212750265691977,-0.006212750265691977
208.488,0.005581391160275928,-0.005581391160275928
208.489,0.005105742877640942,-0.005105742877640942
208.49,0.004210166101727793,-0.004210166101727793
208.491,0.0023781315831091217,-0.0023781315831091217
208.49200000000002,0.0006469363970118242,0.0006469363970118242
208.493,0.00473079383422283,0.00473079383422283
208.494,0.009327135644074069,0.009327135644074069
208.495,0.01357658156998118,0.01357658156998118
208.496,0.01650430598210208,0.01650430598210208
208.497,0.017267808334037245,0.017267808334037245
208.49800000000002,0.015391635370796899,0.015391635370796899
208.499,0.01092717835494913,0.01092717835494913
208.5,0.004492672228944899,0.004492672228944899
208.501,0.0028229579457556882,-0.0028229579457556882
208.502,0.009675639327007976,-0.009675639327007976
208.50300000000001,0.014754539530520841,-0.014754539530520841
208.50400000000002,0.017077435955018063,-0.017077435955018063
208.505,0.016223058580151772,-0.016223058580151772
208.506,0.012442755525985102,-0.012442755525985102
208.507,0.006620311142670825,-0.006620311142670825
208.508,8.371070021287502e-05,-8.371070021287502e-05
208.50900000000001,0.005691726654411273,0.005691726654411273
208.51000000000002,0.009421556731997828,0.009421556731997828
208.511,0.01031154471648041,0.01031154471648041
208.512,0.008244083451164608,0.008244083451164608
208.513,0.003802735769500209,0.003802735769500209
208.514,0.0018750776027176813,-0.0018750776027176813
208.51500000000001,0.007383457231104256,-0.007383457231104256
208.51600000000002,0.011400424187929475,-0.011400424187929475
208.517,0.013016153029915966,-0.013016153029915966
208.518,0.01194967074411932,-0.01194967074411932
208.519,0.00859504645575898,-0.00859504645575898
208.52,0.0038845560460926106,-0.0038845560460926106
208.52100000000002,0.0009916194022251724,0.0009916194022251724
208.52200000000002,0.004927106042048836,0.004927106042048836
208.523,0.007200956996417943,0.007200956996417943
208.524,0.007648594834215739,0.007648594834215739
208.525,0.006651040973706549,0.006651040973706549
208.526,0.00494854957262515,0.00494854957262515
208.52700000000002,0.003342032308592008,0.003342032308592008
208.52800000000002,0.002384335691821953,0.002384335691821953
208.529,0.0021697074326428893,0.0021697074326428893
208.53,0.002299750011609379,0.002299750011609379
208.531,0.002045835691329751,0.002045835691329751
208.532,0.0006594599376891679,0.0006594599376891679
208.53300000000002,0.0022739055031661295,-0.0022739055031661295
208.53400000000002,0.0065652673847079596,-0.0065652673847079596
208.535,0.01134533215439561,-0.01134533215439561
208.536,0.015230634401368816,-0.015230634401368816
208.537,0.0167027144802404,-0.0167027144802404
208.538,0.01459457980511757,-0.01459457980511757
208.53900000000002,0.008532852078087372,-0.008532852078087372
208.54000000000002,0.0008143902150012561,0.0008143902150012561
208.541,0.01178264658839511,0.01178264658839511
208.542,0.022060458256835808,0.022060458256835808
208.543,0.029259032743608224,0.029259032743608224
208.544,0.03154409406018917,0.03154409406018917
208.54500000000002,0.028145396851157634,0.028145396851157634
208.54600000000002,0.019590040594251294,0.019590040594251294
208.547,0.007585522884611283,0.007585522884611283
208.548,0.005417108788543835,-0.005417108788543835
208.549,0.016853593534058874,-0.016853593534058874
208.55,0.024686863818501745,-0.024686863818501745
208.55100000000002,0.027874327296965436,-0.027874327296965436
208.55200000000002,0.026535835740814293,-0.026535835740814293
208.553,0.02179098787030673,-0.02179098787030673
208.554,0.015335958615002549,-0.015335958615002549
208.555,0.00890548841808961,-0.00890548841808961
208.556,0.0037914784636922153,-0.0037914784636922153
208.55700000000002,0.0005593307754917515,-0.0005593307754917515
208.55800000000002,0.0009708693551682781,0.0009708693551682781
208.559,0.001502400070001685,0.001502400070001685
208.56,0.0019001811872549716,0.0019001811872549716
208.561,0.002827770246563203,0.002827770246563203
208.562,0.004509065268579453,0.004509065268579453
208.56300000000002,0.0066855285665834915,0.0066855285665834915
208.56400000000002,0.008763821232913799,0.008763821232913799
208.565,0.010080290644046972,0.010080290644046972
208.566,0.010171969010695052,0.010171969010695052
208.567,0.008950174779355143,0.008950174779355143
208.568,0.0067176343429623635,0.0067176343429623635
208.56900000000002,0.0040344107641793825,0.0040344107641793825
208.57000000000002,0.0014964496509050679,0.0014964496509050679
208.571,0.00047896553519116735,-0.00047896553519116735
208.572,0.0017747985990556737,-0.0017747985990556737
208.573,0.0025591739505385278,-0.0025591739505385278
208.574,0.0031484993183783128,-0.0031484993183783128
208.57500000000002,0.0038146178060225228,-0.0038146178060225228
208.57600000000002,0.004624534450280669,-0.004624534450280669
208.577,0.005386638663783098,-0.005386638663783098
208.578,0.005731270748812433,-0.005731270748812433
208.579,0.0052946289898129426,-0.0052946289898129426
208.58,0.003927525269108373,-0.003927525269108373
208.58100000000002,0.0018344340755380095,-0.0018344340755380095
208.58200000000002,0.0004284825946024676,0.0004284825946024676
208.583,0.0021129416937042803,0.0021129416937042803
208.584,0.002546842290657775,0.002546842290657775
208.585,0.0014124250572399987,0.0014124250572399987
208.586,0.0010780602879705786,-0.0010780602879705786
208.58700000000002,0.004190748256972635,-0.004190748256972635
208.58800000000002,0.00687855762111458,-0.00687855762111458
208.589,0.008128688373242264,-0.008128688373242264
208.59,0.00732951616001236,-0.00732951616001236
208.591,0.004520381437481841,-0.004520381437481841
208.592,0.00042202286771553216,-0.00042202286771553216
208.59300000000002,0.0037792630048013665,0.0037792630048013665
208.59400000000002,0.006830376787423468,0.006830376787423468
208.595,0.007857663049354275,0.007857663049354275
208.596,0.006699376243031227,0.006699376243031227
208.597,0.003995556908735137,0.003995556908735137
208.598,0.0009882577847879007,0.0009882577847879007
208.59900000000002,0.0009116155070421356,-0.0009116155070421356
208.60000000000002,0.000646582991496293,-0.000646582991496293
208.601,0.0020601094855660553,0.0020601094855660553
208.602,0.006531359836597222,0.006531359836597222
208.603,0.011293168063176625,0.011293168063176625
208.604,0.014523740956679897,0.014523740956679897
208.60500000000002,0.014652126864457164,0.014652126864457164
208.60600000000002,0.01090599385056772,0.01090599385056772
208.607,0.0036192536647399955,0.0036192536647399955
208.608,0.005811956391171813,-0.005811956391171813
208.609,0.015317930986375,-0.015317930986375
208.61,0.022763615560709414,-0.022763615560709414
208.61100000000002,0.026575334606670987,-0.026575334606670987
208.61200000000002,0.026178429993961052,-0.026178429993961052
208.613,0.02210402111711227,-0.02210402111711227
208.614,0.015738420562177884,-0.015738420562177884
208.615,0.008812833546573732,-0.008812833546573732
208.616,0.0028196619838543996,-0.0028196619838543996
208.61700000000002,0.0014367120671523817,0.0014367120671523817
208.618,0.0040001072628618566,0.0040001072628618566
208.619,0.005588042309141955,0.005588042309141955
208.62,0.007161856173668758,0.007161856173668758
208.621,0.009416074456271406,0.009416074456271406
208.622,0.012392113340170147,0.012392113340170147
208.62300000000002,0.01537516572970244,0.01537516572970244
208.624,0.01712627921313177,0.01712627921313177
208.625,0.01637281309633062,0.01637281309633062
208.626,0.012376982598138192,0.012376982598138192
