Czas,Sum
251.168,0.08656191557229208
251.169,0.07271866387205293
251.17000000000002,0.049178243944482905
251.17100000000002,0.020530684104180606
251.172,0.007988837632446042
251.173,0.03173206864698046
251.174,0.04760247109483886
251.175,0.054521856307975576
251.17600000000002,0.053331367612325875
251.17700000000002,0.046228293849593545
251.178,0.035962119512093084
251.179,0.025054357903611203
251.18,0.015261905281102163
251.181,0.0073958503797694995
251.18200000000002,0.0014781975112367902
251.18300000000002,0.0028876756317196477
251.184,0.006108207683628283
251.185,0.008312865184956202
251.186,0.009281250995366497
251.187,0.00858370066085653
251.18800000000002,0.00585375961444534
251.18900000000002,0.001068249116560155
251.19,0.005282457792766817
251.191,0.01220242012148723
251.192,0.01837571509730703
251.193,0.02246638585867006
251.19400000000002,0.023435063684869542
251.19500000000002,0.02077736319711061
251.196,0.014623720168666747
251.197,0.005690279873953581
251.198,0.004884275174138781
251.199,0.01575602841747553
251.20000000000002,0.025588111066117126
251.20100000000002,0.03321989334026889
251.202,0.037783303421818765
251.203,0.03877766257188323
251.204,0.03611938128508631
251.205,0.030171549017399872
251.20600000000002,0.021739507116889097
251.20700000000002,0.012004969735556134
251.208,0.00237426875049697
251.209,0.005760621430458444
251.21,0.011313006705375621
251.211,0.013773604333339712
251.21200000000002,0.013375953304869091
251.21300000000002,0.01108050715700971
251.214,0.008348050546794663
251.215,0.006738694861903859
251.216,0.007437255764565725
251.217,0.0108451999396606
251.21800000000002,0.016375805301299635
251.21900000000002,0.0225386500821817
251.22,0.027314513314233638
251.221,0.028728175116773485
251.222,0.025455622035931783
251.223,0.017279512142523584
251.22400000000002,0.005243314806585069
251.22500000000002,0.008558323369310578
251.226,0.021503928942040732
251.227,0.03113496594607389
251.228,0.03580603898966806
251.229,0.03509907655893909
251.23000000000002,0.02987661037931874
251.23100000000002,0.021961832899015564
251.232,0.01355058554389872
251.233,0.006544496777899174
251.234,0.0020173810473240687
251.235,1.9099187417981126e-05
251.23600000000002,0.000484672605301103
251.23700000000002,0.0007900501100715561
251.238,0.0022446289112187513
251.239,0.005519449483992238
251.24,0.010352499748417466
251.241,0.015600514214114451
251.24200000000002,0.019623027765721678
251.24300000000002,0.02086997710984418
251.244,0.018471870034048404
251.245,0.01262598889659111
251.246,0.004635892083568917
251.247,0.0034256022509561025
251.24800000000002,0.009334294221320334
251.24900000000002,0.011420727895919894
251.25,0.00913573981757405
251.251,0.003284066170327513
251.252,0.00416488592114094
251.25300000000001,0.010647498233813222
251.25400000000002,0.013793061734602307
251.25500000000002,0.012188620770438165
251.256,0.005881124154328185
251.257,0.003550277752308047
251.258,0.013392215676140165
251.25900000000001,0.020563487524274098
251.26000000000002,0.022533133526317094
251.26100000000002,0.018121210262306307
251.262,0.007940132917666974
251.263,0.005666477471208906
251.264,0.019187590828863888
251.26500000000001,0.02886598604419608
251.26600000000002,0.03172607445728545
251.267,0.02642245699579654
251.268,0.013669229686210184
251.269,0.0038759549960111577
251.27,0.022249204468486276
251.27100000000002,0.03717176678226922
251.27200000000002,0.04513132012312505
251.273,0.044265503173569025
251.274,0.03481568855848076
251.275,0.019037445929450416
251.276,0.0006016275119954948
251.27700000000002,0.016344752644016403
251.27800000000002,0.02820277551789468
251.279,0.03276189561858472
251.28,0.02964680708621676
251.281,0.02027600237160511
251.282,0.007372751914847221
251.28300000000002,0.005812752617960708
251.28400000000002,0.01634334954873092
251.285,0.022269184368687144
251.286,0.022971534407504483
251.287,0.01911700444428748
251.288,0.012278156377083354
251.28900000000002,0.004367129418417562
251.29000000000002,0.002930898498584321
251.291,0.008556594120460274
251.292,0.012208833004936366
251.293,0.014206116622032014
251.294,0.015161225409662834
251.29500000000002,0.01560797561744809
251.29600000000002,0.015723671411084543
251.297,0.01524644300318166
251.298,0.01361011388499877
251.299,0.010237693699023404
251.3,0.004876159946823442
251.30100000000002,0.0021604443011761054
251.30200000000002,0.009940624350331415
251.303,0.01709079878289981
251.304,0.02214920703565787
251.305,0.02398649324349578
251.306,0.022154430189941315
251.30700000000002,0.017044890368064586
251.30800000000002,0.009802228541046966
251.309,0.002012985110804373
251.31,0.004730183639960515
251.311,0.00925293254222448
251.312,0.011080147549214095
251.31300000000002,0.010490898901520721
251.31400000000002,0.008341051455132429
251.315,0.0057237551351124955
251.316,0.003589057577859886
251.317,0.002452303128725718
251.318,0.002284698216767005
251.31900000000002,0.00261185892402596
251.32000000000002,0.0027714855483787592
251.321,0.0022259244818878038
251.322,0.000808614733066255
251.323,0.0011892245942073825
251.324,0.003124055509483836
251.32500000000002,0.0042571671202446815
251.32600000000002,0.004065026231353453
251.327,0.002482345025961759
251.328,2.0281403428816772e-05
251.329,0.0025631693573440876
251.33,0.0041526807790653285
251.33100000000002,0.0040444341333824
251.33200000000002,0.002044476582461655
251.333,0.0013656449708437117
251.334,0.0051364954042131695
251.335,0.007967901117324353
251.336,0.00873789183419495
251.33700000000002,0.00690232732459996
251.33800000000002,0.0027277657978674254
251.339,0.002729299543673224
251.34,0.007902377476029412
251.341,0.011174327794665477
251.342,0.011375495154048492
251.34300000000002,0.00816401546708516
251.34400000000002,0.002166190667095468
251.345,0.005171224408385007
251.346,0.011975535979047557
251.347,0.01647199577125499
251.348,0.0174808895425028
251.34900000000002,0.014741945213865104
251.35000000000002,0.008975088206803013
251.351,0.0016675945522635319
251.352,0.005341362588275091
251.353,0.010352010842979943
251.354,0.012229724793157808
251.35500000000002,0.010652422044955139
251.35600000000002,0.006126949472494193
251.357,0.00020741313624553334
251.358,0.006911507487984393
251.359,0.012608546796891206
251.36,0.01627557652896163
251.36100000000002,0.01739920613299617
251.36200000000002,0.015981047712323983
251.363,0.012425336525494286
251.364,0.007369853611695435
251.365,0.0015244367135374966
251.366,0.004438356449612807
251.36700000000002,0.009928029843505042
251.36800000000002,0.014434728395425122
251.369,0.017517414958579707
251.37,0.01881587850420156
251.371,0.018102422333899075
251.372,0.015362667185621919
251.37300000000002,0.010872161149219432
251.37400000000002,0.005226430550201426
251.375,0.0007087343182379931
251.376,0.005935184629169427
251.377,0.009525242294612431
251.37800000000001,0.010839166188944847
251.37900000000002,0.009694871386381174
251.38000000000002,0.006435571113570383
251.381,0.0018675542202033406
251.382,0.002922663720984984
251.383,0.006826721819725908
251.38400000000001,0.00897996217509122
251.38500000000002,0.008962540277143279
251.38600000000002,0.0068824161220300585
251.387,0.003320179532891555
251.388,0.0008451950540318971
251.389,0.004677626000036327
251.39000000000001,0.0074230574188214275
251.39100000000002,0.008680614708294374
251.392,0.008462279868568446
251.393,0.007131861041437257
251.394,0.0052498925166790805
251.395,0.0033779572459580096
251.39600000000002,0.0019060091654407158
251.39700000000002,0.0009568185879046296
251.398,0.0003956262815562725
251.399,6.171276014005365e-05
251.4,0.000681903962086864
251.401,0.0015496806044107746
251.40200000000002,0.00246877383180156
251.40300000000002,0.0029732327763824953
251.404,0.0024594203501011967
251.405,0.0004079716451854229
251.406,0.0033701478232283522
251.407,0.008546888532196558
251.40800000000002,0.014225557380774028
251.40900000000002,0.019067289856163912
251.41,0.021587205523101453
251.411,0.02055648636579064
251.412,0.015403853261806544
251.413,0.006494739595441785
251.41400000000002,0.004813022719925736
251.41500000000002,0.016384067609012263
251.416,0.025763062941036575
251.417,0.030772182701336727
251.418,0.03009369875475614
251.419,0.023672151926683274
251.42000000000002,0.012808287032416992
251.42100000000002,0.0001039937752569041
251.422,0.012146610060164553
251.423,0.02060942892688699
251.424,0.023687602915472054
251.425,0.020946849334598623
251.42600000000002,0.013419026885957936
251.42700000000002,0.0032939242297076402
251.428,0.006708935274441567
251.429,0.014108078711069408
251.43,0.01734242755692083
251.431,0.016166139918452373
251.43200000000002,0.011639434541299619
251.43300000000002,0.005722007434604713
251.434,0.000598653838963615
251.435,0.002049180922091052
251.436,0.0015943593653084105
251.437,0.0013387735522282509
251.43800000000002,0.005095364789300571
251.43900000000002,0.0075599236499183965
251.44,0.006893053677602397
251.441,0.0021974959780949183
251.442,0.006103917353525361
251.443,0.016305844124983086
251.44400000000002,0.025869690248469676
251.44500000000002,0.03215002758720264
251.446,0.03317553434033189
251.447,0.0282443988228422
251.448,0.018152633531231598
251.449,0.004988848817599896
251.45000000000002,0.008436697960038656
251.45100000000002,0.019350664704263477
251.452,0.025733009251669877
251.453,0.026783302089941674
251.454,0.023015248100223963
251.455,0.015978216609206404
251.45600000000002,0.007719254771506063
251.45700000000002,0.0001710581163658626
251.458,0.0053406394560961065
251.459,0.008332031839826623
251.46,0.009096944129140165
251.461,0.008404860072538977
251.46200000000002,0.007097308272971019
251.46300000000002,0.005740511804204488
251.464,0.004456975238164211
251.465,0.002981946364348451
251.466,0.0009019450764288304
251.467,0.002035682748154467
251.46800000000002,0.0056770211379100904
251.46900000000002,0.009386713253800595
251.47,0.012183405432036176
251.471,0.013043288711931144
251.472,0.011264099950840961
251.473,0.006756503005665168
251.47400000000002,0.00015312029394094312
251.47500000000002,0.007311341133268496
251.476,0.014115586919351695
251.477,0.018861822828193035
251.478,0.020647652550800814
251.479,0.019281881090404806
251.48000000000002,0.015281613468833716
251.48100000000002,0.009663323773798225
251.482,0.0036088246236577787
251.483,0.0018754969365373491
251.484,0.006193319971114354
251.485,0.009218930256412489
251.48600000000002,0.011182378578601578
251.48700000000002,0.012441646723484232
251.488,0.013241917278733644
251.489,0.013560980304875542
251.49,0.013101687346172855
251.491,0.011432400286258994
251.49200000000002,0.00821741914135769
251.49300000000002,0.003443346495723096
251.494,0.0024527076554115997
251.495,0.00861170233557238
251.496,0.01393912971927839
251.497,0.017392268427577916
251.49800000000002,0.018273509761329125
251.49900000000002,0.01643146806096431
251.5,0.0123029581943511
251.501,0.006783504471246383
251.502,0.0009719785304980532
251.50300000000001,0.004124375958278262
251.50400000000002,0.007828817726022393
251.50500000000002,0.00990629728182183
251.506,0.010523374750016348
251.507,0.010087171051521711
251.508,0.009033942141478126
251.50900000000001,0.007650612934552901
251.51000000000002,0.005994327132774181
251.51100000000002,0.003933656404227082
251.512,0.0012866270504328832
251.513,0.0020067027509026877
251.514,0.005752206616433581
251.51500000000001,0.009469361397667339
251.51600000000002,0.012479605660948452
251.517,0.01409037924100761
251.518,0.013813028650873915
251.519,0.011538399183046655
251.52,0.007606900276284566
251.52100000000002,0.0027451173613428875
251.52200000000002,0.0021141546853602608
251.523,0.006073054630118973
251.524,0.008496405065512774
251.525,0.009157576478438682
251.526,0.008262238141786577
251.52700000000002,0.006349735445899531
251.52800000000002,0.004109617429843084
251.529,0.002174161537368675
251.53,0.000950048234527137
251.531,0.0005346165596276012
251.532,0.0007319641671701041
251.53300000000002,0.0011525263180100578
251.53400000000002,0.0013569686886189041
251.535,0.0009974041603084457
251.536,8.352668682326365e-05
251.537,0.0018170546994537898
251.538,0.003936320424719562
251.53900000000002,0.0060511610992091056
251.54000000000002,0.007744210368925288
251.541,0.008663323791452524
251.542,0.008592028730657847
251.543,0.0074884428805063715
251.544,0.005490409888449131
251.54500000000002,0.0028890388562763207
251.54600000000002,7.520746306863892e-05
251.547,0.0025341279276767012
251.548,0.004579252690680388
251.549,0.00583517314551922
251.55,0.0062639800056405
251.55100000000002,0.006023487616539644
251.55200000000002,0.005421252001615735
251.553,0.004817771516262488
251.554,0.00450079682436476
251.555,0.004567843789605517
251.556,0.004859245018985687
251.55700000000002,0.004974804823961088
251.55800000000002,0.004383637023709694
251.559,0.00260511919264743
251.56,0.0005904951925028426
251.561,0.005029035374903753
251.562,0.010088297610297739
251.56300000000002,0.014795598919382657
251.56400000000002,0.018055587108176497
251.565,0.018951011368572697
251.566,0.017027641155119642
251.567,0.01247005857523752
251.568,0.006101951711106291
251.56900000000002,0.0008036148523970915
251.57000000000002,0.006857458926372845
251.571,0.010934651670695957
251.572,0.012484633990027597
251.573,0.011670750925201985
251.574,0.009290307798490053
251.57500000000002,0.006496386750106583
251.57600000000002,0.0044085519853922705
251.577,0.0037386515312423175
251.578,0.004555883650954463
251.579,0.006271401140699304
251.58,0.007850587085946098
251.58100000000002,0.008184493277622997
251.58200000000002,0.006496766166363219
251.583,0.0026479935860106766
251.584,0.002768433441241966
251.585,0.00857619022472313
251.586,0.01336646083038467
251.58700000000002,0.015935491181959093
251.58800000000002,0.015665020896189125
251.589,0.012719016365167717
251.59,0.00799065303634832
251.591,0.0028166357158422623
251.592,0.0014464165413349574
251.59300000000002,0.0038430322324425528
251.59400000000002,0.004098582502000992
251.595,0.0026672874743976175
251.596,0.0005369097361177369
251.597,0.0011394732781667449
251.598,0.0014568117903502567
251.59900000000002,7.528636088183334e-05
251.60000000000002,0.0026651614969637116
251.601,0.005868915208785852
251.602,0.008401349530969604
251.603,0.009286805898692593
251.604,0.00805022350647467
251.60500000000002,0.004885797623447586
251.60600000000002,0.0005966786216223539
251.607,0.0036712791867442216
251.608,0.006808633309004689
251.609,0.008103939064096918
251.61,0.00746516781594893
251.61100000000002,0.005427843136960068
251.61200000000002,0.00295054443627661
251.613,0.0010708942784734457
251.614,0.0005416239988948341
251.615,0.001571369858471969
251.616,0.0037574143760859906
251.61700000000002,0.006231046963176305
251.61800000000002,0.007963616877554126
251.619,0.008127383697658726
251.62,0.00638788907278441
251.621,0.003029058698552461
251.622,0.0011303205533873318
251.62300000000002,0.0049995373506421855
251.62400000000002,0.007569248586067884
251.625,0.008236760260747081
251.626,0.006995425952783679
251.627,0.004426475370635664
251.62800000000001,0.001497609657625377
251.62900000000002,0.0007635107002103378
251.63000000000002,0.0016121209115641966
251.631,0.0008322450984384201
251.632,0.0011951610007587326
251.633,0.003624089530774677
251.63400000000001,0.005432360118088438
251.63500000000002,0.005773454559166793
251.63600000000002,0.004276645801304235
251.637,0.001196796256078423
251.638,0.0026374869122964078
251.639,0.006065116682126776
251.64000000000001,0.00795109557572465
251.64100000000002,0.0075525048018604424
251.642,0.0047778896963092355
251.643,0.0002567093802949715
251.644,0.00480823563802316
251.645,0.008967505674506635
251.64600000000002,0.010938554165109726
251.64700000000002,0.009986071060636816
251.648,0.006156380444370118
251.649,0.00029352310230069717
251.65,0.006173254177722688
251.651,0.011614803036013172
251.65200000000002,0.014653301408407999
251.65300000000002,0.014551372250817452
251.654,0.01142636726565862
251.655,0.00622512469382514
251.656,0.0004621198494559999
251.657,0.004207913389334841
251.65800000000002,0.006462722319227185
251.65900000000002,0.005695072005482077
251.66,0.002193089850769174
251.661,0.002936908802419318
251.662,0.008086404671020479
251.663,0.011610629214540974
251.66400000000002,0.012310203801875329
251.66500000000002,0.009787494346340646
251.666,0.00457172577712772
251.667,0.0020258983370625115
251.668,0.008285949359768134
251.669,0.012573634887847804
251.67000000000002,0.013804693350897741
251.67100000000002,0.011745947172995113
251.672,0.007062162481284386
251.673,0.001098296571664186
251.674,0.004532746916356789
251.675,0.008427466049661929
251.67600000000002,0.009786203894997457
251.67700000000002,0.008604881760576005
251.678,0.005610437315696843
251.679,0.0019694035307201443
251.68,0.0011280392135522223
251.681,0.002867316933128024
251.68200000000002,0.003058817708668924
251.68300000000002,0.002156521661401597
251.684,0.001044440716707909
251.685,0.0006691613474364488
251.686,0.0016499485997280424
251.687,0.004006177633442008
251.68800000000002,0.007102086087805664
251.68900000000002,0.009834110785898338
251.69,0.01100160849015882
251.691,0.009736432470348841
251.692,0.0058433320523948
251.693,6.988637821600375e-05
251.69400000000002,0.006724577588170969
251.69500000000002,0.012530114530406651
251.696,0.01605653607262091
251.697,0.016468158675169018
251.698,0.013776393825429507
251.699,0.008828748031512075
251.70000000000002,0.0030377557179259228
251.70100000000002,0.0020608245183339805
251.702,0.005275697163631496
251.703,0.006101907952068325
251.704,0.0048290929944736554
251.705,0.0023876497129368198
251.70600000000002,7.921724526667881e-06
251.70700000000002,0.001292984145797115
251.708,0.0009157878560089389
251.709,0.0009908801657670177
251.71,0.0036818566463159438
251.711,0.006083736139590395
251.71200000000002,0.007187657977773953
251.71300000000002,0.006412847434636201
251.714,0.003816322966611979
251.715,7.969970498144663e-05
251.716,0.003718282139175459
251.717,0.006462137051456544
251.71800000000002,0.007368494160886419
251.71900000000002,0.0062394552900160395
251.72,0.003518902263751167
251.721,0.0001387509187121397
251.722,0.002787463773224976
251.723,0.0043180431575129945
251.72400000000002,0.003967301133396268
251.72500000000002,0.0018328498181283844
251.726,0.0014652724938691143
251.727,0.005001572985257996
251.728,0.007837722996426794
251.729,0.009292358921528814
251.73000000000002,0.00910591241516852
251.73100000000002,0.0074606865408246995
251.732,0.004868043056246197
251.733,0.0019767434739360423
251.734,0.0006246630554987471
251.735,0.0025472852409501746
251.73600000000002,0.0036493194680138224
251.73700000000002,0.003995889716633033
251.738,0.00376676416218282
251.739,0.0031601695002142624
251.74,0.002332486751730805
251.741,0.0013897869138629587
251.74200000000002,0.0004195652501480469
251.74300000000002,0.00046798925109358053
251.744,0.0011223577448536786
251.745,0.0013774736442563344
251.746,0.0011135713891534513
251.747,0.0003283091436050074
251.74800000000002,0.0008205917464060125
251.74900000000002,0.002031024697899268
251.75,0.002936955990256515
251.751,0.0032307967518452195
251.752,0.0027822740267916934
251.75300000000001,0.0017032931670659345
251.75400000000002,0.00032458888248429013
251.75500000000002,0.0009172105840924206
251.756,0.001646371401596214
251.757,0.0017066082041436424
251.758,0.001245606493025932
251.75900000000001,0.0006823186584308731
251.76000000000002,0.0005561624894328989
251.76100000000002,0.0013043170669166325
251.762,0.0030470571753891252
251.763,0.00546717224309171
251.764,0.007843184685193207
251.76500000000001,0.009244519343893908
251.76600000000002,0.008837232348434464
251.767,0.006202835841427088
251.768,0.0015580779228019546
251.769,0.004212157130483874
251.77,0.009739444779725525
251.77100000000002,0.013532601961164932
251.77200000000002,0.014411058418037881
251.773,0.011876640656277759
251.774,0.0063026020413205425
251.775,0.0011274618679149731
251.776,0.008720472885522867
251.77700000000002,0.01472801541543545
251.77800000000002,0.017818027377688683
251.779,0.017422475084894872
251.78,0.013859050847039351
251.781,0.008196713991370402
251.782,0.0019149565753029643
251.78300000000002,0.0035313227620931012
251.78400000000002,0.007105299521856116
251.785,0.008424366699883295
251.786,0.007779669214449502
251.787,0.005952064253780197
251.788,0.0039010644037746245
251.78900000000002,0.002437511131743535
251.79000000000002,0.0019860311181065776
251.791,0.0025039567651925516
251.792,0.003565159129903025
251.793,0.0045614261578304635
251.794,0.004939594828963537
251.79500000000002,0.004389725805010004
251.79600000000002,0.0029264137847828525
251.797,0.000849607237619646
251.798,0.0013845021171015083
251.799,0.003323955325259325
251.8,0.0046512312189278555
251.80100000000002,0.0052420446822859425
251.80200000000002,0.005145413114931466
251.803,0.004510166672208966
251.804,0.003501281016588818
251.805,0.0022470199942642754
251.806,0.0008374691763878378
251.80700000000002,0.00063337376727278
251.80800000000002,0.0020131774999345444
251.809,0.0030635847044423576
251.81,0.0034869533668091474
251.811,0.003009464243511005
251.812,0.0014935462476228171
251.81300000000002,0.0009666431387876322
251.81400000000002,0.004013112147433597
251.815,0.007081308442246807
251.816,0.009538906283111055
251.817,0.01086416624942071
251.818,0.010801801621754994
251.81900000000002,0.009437420893341625
251.82000000000002,0.007158444295724311
251.821,0.004510828834580548
251.822,0.002001511745859067
251.823,7.985016954772809e-05
251.824,0.0017498341084123666
251.82500000000002,0.0032919503630607786
251.82600000000002,0.00509828630681799
251.827,0.007448923934345273
251.828,0.010314701883833807
251.829,0.013266599357055353
251.83,0.015540680839309118
251.83100000000002,0.016252189781579867
251.83200000000002,0.014695492640131336
251.833,0.010629168933346695
251.834,0.004442442759304404
251.835,0.002866722059475568
251.836,0.009910679401327935
251.83700000000002,0.015270071973881846
251.83800000000002,0.01788269252797898
251.839,0.01734071355912606
251.84,0.014000536306191778
251.841,0.008869128549269904
251.842,0.003303117299692073
251.84300000000002,0.0013826644295904837
251.84400000000002,0.004272712554392188
251.845,0.005064248340122101
251.846,0.004077184690788043
251.847,0.002070915368662275
251.848,5.801318731926669e-05
251.84900000000002,0.001587189687196291
251.85000000000002,0.0021818661355213135
251.851,0.0019446034808729656
251.852,0.001297148594597419
251.853,0.0007516459161196026
251.854,0.0006661190471751887
251.85500000000002,0.0010807770170097038
251.85600000000002,0.0016974721097903704
251.857,0.002007981703096288
251.858,0.0015190806622318307
251.859,1.4979473010212862e-05
251.86,0.0024453477595480005
251.86100000000002,0.005228030852908539
251.86200000000002,0.0075765973385024206
251.863,0.008717471810408103
251.864,0.008158157003520423
251.865,0.005872264671893923
251.866,0.0023335799799042304
251.86700000000002,0.0016158610916008828
251.86800000000002,0.0050206404113781735
251.869,0.0071041436282942415
251.87,0.00750025014511299
251.871,0.006348743369984977
251.872,0.004226450992120984
251.87300000000002,0.0019422880219091018
251.87400000000002,0.00026903334773755095
251.875,0.0002973439909162105
251.876,0.0003261352688074584
251.877,0.0018152849513628341
251.87800000000001,0.0035741646482357506
251.87900000000002,0.0049452851131856455
251.88000000000002,0.005419372921101977
251.881,0.004776637276635923
251.882,0.003121659204078053
251.883,0.000814536367483343
251.88400000000001,0.0016637976841422464
251.88500000000002,0.0038565867216046974
251.88600000000002,0.005436122747933882
251.887,0.006241484445425037
251.888,0.006253097605437698
251.889,0.005533299854951659
251.89000000000001,0.004171621271521792
251.89100000000002,0.002264430201031007
251.892,6.394463358844272e-05
251.893,0.0026167503636092704
251.894,0.005091301585449503
251.895,0.007090000969488653
251.89600000000002,0.008191395239651138
251.89700000000002,0.008068581093254777
251.898,0.0066160039158118175
251.899,0.004033289649141671
251.9,0.0008230400049063467
251.901,0.002312903902434854
251.90200000000002,0.00465687321005478
251.90300000000002,0.005683672225667989
251.904,0.005223916624995752
251.905,0.0035226524777072984
251.906,0.0011667030645786352
251.907,0.0011005915523556497
251.90800000000002,0.0026176403343621817
251.90900000000002,0.0030151085353845447
251.91,0.0023252714339310537
251.911,0.0009511463752150627
251.912,0.0004940827532272301
251.913,0.0014197939787977888
251.91400000000002,0.0014781863244309216
251.91500000000002,0.0006908948805665111
251.916,0.0005657308460477772
251.917,0.001712500833724204
251.918,0.002200730252287819
251.919,0.0017393958825812135
251.92000000000002,0.00042838402565132397
251.92100000000002,0.001257112293590857
251.922,0.002631592060578029
251.923,0.0030576866091524793
251.924,0.0022043339420839392
251.925,0.0002065337801617671
251.92600000000002,0.0023398226705042915
251.92700000000002,0.004557117120120295
251.928,0.005584977020005541
251.929,0.004898450195900133
251.93,0.0025324269185518825
251.931,0.0008733831911169736
251.93200000000002,0.004236115132040377
251.93300000000002,0.006355089506354983
251.934,0.006300100110258686
251.935,0.0037367192070265677
251.936,0.0009207092763734275
251.937,0.006584310474499367
251.93800000000002,0.011779398945583995
251.93900000000002,0.015058061936259746
251.94,0.015414330474651627
251.941,0.01257533335766365
251.942,0.007082385306893936
251.943,0.00014179906892715577
251.94400000000002,0.006704556841623026
251.94500000000002,0.01198692188089785
251.946,0.014673477730873854
251.947,0.014394235267973994
251.948,0.011472122792627482
251.949,0.006771369172559286
251.95000000000002,0.0014256379508943487
251.95100000000002,0.0034637641533883197
251.952,0.0070724284429864075
251.953,0.008982767065623428
251.954,0.00918557359055283
251.955,0.007980753400917256
251.95600000000002,0.005830134404896879
251.95700000000002,0.0032183441144335773
251.958,0.0005608347366714668
251.959,0.0018294244865472127
251.96,0.0037311398188695994
251.961,0.004988815843310083
251.96200000000002,0.0054994581385360616
251.96300000000002,0.005224884253463319
251.964,0.0042228380040933615
251.965,0.0026747627066647317
251.966,0.0008844987153912401
251.967,0.0007678314311752125
251.96800000000002,0.0019131228349694943
251.96900000000002,0.0022978351702944303
251.97,0.0018696489516407747
251.971,0.0008099044516344688
251.972,0.0005054334697752255
251.973,0.0016098242651449942
251.97400000000002,0.0020847062072716113
251.97500000000002,0.001688037588449526
251.976,0.000430047310870565
251.977,0.0014293167401013942
251.978,0.003460114266313981
251.979,0.005191921975142181
251.98000000000002,0.006249463759769518
251.98100000000002,0.006450248765712584
251.982,0.005835307121673413
251.983,0.00462893891653537
251.984,0.003148328679106888
251.985,0.0016996310940837983
251.98600000000002,0.0004981991302308153
251.98700000000002,0.0003626593435349421
251.988,0.0008917205181087007
251.989,0.0011470703566165911
251.99,0.0011807833548159391
251.991,0.001009400477057464
251.99200000000002,0.0006240118854322704
251.99300000000002,3.3048511576109815e-05
251.994,0.0006868677874170234
251.995,0.0013634561135101467
251.996,0.0017483918980125605
251.997,0.0015879457454311095
251.99800000000002,0.0007245763953099084
251.99900000000002,0.0008087812707277232
252.0,0.002744019723071082
252.001,0.0046117838246232876
252.002,0.005856175329574976
252.00300000000001,0.00600131637200845
252.00400000000002,0.004817358979057527
252.00500000000002,0.0024273441752037483
252.006,0.0006887733627123843
252.007,0.0038045356541342346
252.008,0.006144736149309522
252.00900000000001,0.007111713113386973
252.01000000000002,0.00646835141366262
252.01100000000002,0.004417101255710901
252.012,0.0015466410987380879
252.013,0.0013393076546784947
252.014,0.0034576908116442937
252.01500000000001,0.004271755975941989
252.01600000000002,0.0036357611687666217
252.017,0.001815446891767957
252.018,0.0006172949170732987
252.019,0.0029757212156569465
252.02,0.004668941754286065
252.02100000000002,0.005362388973692436
252.02200000000002,0.005039484275616861
252.023,0.003953015026651975
252.024,0.002494134304360851
252.025,0.001034355830829622
252.026,0.0001981682243851521
252.02700000000002,0.0011639420938448285
252.02800000000002,0.0019680155444014107
252.029,0.0027517909765283673
252.03,0.0035716137965809227
252.031,0.0043200783987772445
252.032,0.004728663075487019
252.03300000000002,0.004457204468241793
252.03400000000002,0.0032394913798210983
252.035,0.0010288851847816995
252.036,0.0019165618634353317
252.037,0.00505116399809716
252.038,0.007666709042520853
252.03900000000002,0.009091558232396465
252.04000000000002,0.008900258635667468
252.041,0.007062388019729639
252.042,0.003976658720831341
252.043,0.00037321376043775314
252.044,0.002889050772837227
252.04500000000002,0.005067652240215388
252.04600000000002,0.005746754570285229
252.047,0.004946081537291823
252.048,0.0030953473828559115
252.049,0.0008850046636221007
252.05,0.0009562163607013432
252.05100000000002,0.0018844241335415307
252.05200000000002,0.0016942849267902354
252.053,0.0005587393338230344
252.054,0.0010509316749794033
252.055,0.0025315822197796334
252.056,0.0033425982846258377
252.05700000000002,0.0031651721273099017
252.05800000000002,0.0019801952555384326
252.059,4.9238016870154543e-05
252.06,0.002183925495130429
252.061,0.004230194228741083
252.062,0.005682590835781107
252.06300000000002,0.006297230910468348
252.06400000000002,0.006013254475212647
252.065,0.004921618673891391
252.066,0.0032093267350492604
252.067,0.0011086672365828555
252.068,0.0011295388342425841
252.06900000000002,0.0032380176079788597
252.07000000000002,0.004926901640976123
252.071,0.005893428982738954
252.072,0.005865547596323763
252.073,0.004679860139839114
252.074,0.0023724807639943675
252.07500000000002,0.0007547618797424708
252.07600000000002,0.004132302768140453
252.077,0.007009038173780721
252.078,0.008621541064752908
252.079,0.008407905884724043
252.08,0.006203276847869022
252.08100000000002,0.002348880409121797
252.08200000000002,0.0023349780973720095
252.083,0.0067228292456281355
252.084,0.009668578884111224
252.085,0.010324348784643791
252.086,0.008398813286487375
252.08700000000002,0.004271352500484439
252.08800000000002,0.0010824570514808567
252.089,0.006342359735602751
252.09,0.01020466510258884
252.091,0.01174894892739141
252.092,0.010700349313185243
252.09300000000002,0.007506351376060034
252.09400000000002,0.003201915979451761
252.095,0.000898858706480573
252.096,0.003592853002817605
252.097,0.0041425068267013625
252.098,0.002488133605660154
252.09900000000002,0.0007451414999363079
252.10000000000002,0.004445922222374137
252.101,0.007358056821779217
252.102,0.00845995472741037
252.103,0.0072668551352689644
252.104,0.003967007738064956
252.10500000000002,0.0006446964965414729
252.10600000000002,0.005409708817225973
252.107,0.00914689422421355
252.108,0.01098639972585694
252.109,0.010597522238468228
252.11,0.008248289201713525
252.11100000000002,0.004688451694914375
252.11200000000002,0.0009015218883541192
252.113,0.0021914139890350484
252.114,0.003983846770649916
252.115,0.004319290493876641
252.116,0.0034783520483144853
252.11700000000002,0.002034067164036651
252.11800000000002,0.0006321116636006858
252.119,0.00022804725099082352
252.12,0.00034100009218506096
252.121,0.00016981523837049646
252.122,0.0009327677315193611
252.12300000000002,0.0014886444104159524
252.12400000000002,0.0014717832641213534
252.125,0.000749190225198649
252.126,0.0005273815081130093
252.127,0.0019701773240143818
252.12800000000001,0.0030848063911540907
252.12900000000002,0.003434493395105211
252.13000000000002,0.002784246822502
252.131,0.001179092759773516
252.132,0.001066034641411962
252.133,0.003457849051651396
252.13400000000001,0.005465505263542039
252.13500000000002,0.006665043711284713
252.13600000000002,0.006843989368695546
252.137,0.0060383958148641685
252.138,0.00449796030947525
252.139,0.0025975075183568698
252.14000000000001,0.0007277531508640912
252.14100000000002,0.0007993317093945001
252.142,0.001804733838025266
252.143,0.002247427711611771
252.144,0.0021894472195881694
252.145,0.0017426729584586096
252.14600000000002,0.0010219080151509746
252.14700000000002,0.00012191102228863165
252.148,0.0008772402831661663
252.149,0.0018861024702310036
252.15,0.0027818010537229653
252.151,0.0034029975862982825
252.15200000000002,0.00357453040917859
252.15300000000002,0.003158512663749693
252.154,0.00211497257413469
252.155,0.0005473243919746451
252.156,0.001290268778023088
252.157,0.003035134189857369
252.15800000000002,0.004301970763032432
252.15900000000002,0.004789178767518364
252.16,0.004372018874711603
252.161,0.0031498691738943373
252.162,0.001427673220940736
252.163,0.0003672893856588243
252.16400000000002,0.001809900399145756
252.16500000000002,0.0026039306534333855
252.166,0.002668990334112773
252.167,0.0021572347081975115
252.168,0.0013921990099169522
252.169,0.0007488560820132598
252.17000000000002,0.000515362073608163
252.17100000000002,0.0007851251494438147
252.172,0.0014191858198304792
252.173,0.0020955798081192163
252.174,0.0024318294158419355
252.175,0.00213941466209891
252.17600000000002,0.0011548969415481531
252.17700000000002,0.00030288280687615284
252.178,0.0017769731167905677
252.179,0.002710825327653326
252.18,0.002639796337869599
252.181,0.0013721745567825776
252.18200000000002,0.000905108581432542
252.18300000000002,0.0036397719151547783
252.184,0.0060524555433378886
252.185,0.0073636790383321505
252.186,0.007040643137358061
252.187,0.004983867796753064
252.18800000000002,0.0015888408216757832
252.18900000000002,0.0023444168106260994
252.19,0.005832327820778368
252.191,0.00799406708074141
252.192,0.008314144556212051
252.193,0.006796931864435201
252.19400000000002,0.003961537341282012
252.19500000000002,0.0006761607726007084
252.196,0.0021166220573018727
252.197,0.0036957064059994047
252.198,0.0037824187165561903
252.199,0.0026142366847447095
252.20000000000002,0.0008470476429895087
252.20100000000002,0.0006813704179152823
252.202,0.0012472629356757926
252.203,0.0004962422984799036
252.204,0.0014290074550900272
252.205,0.003933202424124356
252.20600000000002,0.0061714501519315205
252.20700000000002,0.0073427704783416625
252.208,0.006974219987625566
252.209,0.005097371453901658
252.21,0.002254144317188891
252.211,0.0006736821641051973
252.21200000000002,0.002756693155916487
252.21300000000002,0.0033345264102913994
252.214,0.002249420302252507
252.215,8.492021969430572e-05
252.216,0.0028064950427834057
252.217,0.004883182404482944
252.21800000000002,0.005455900824645073
252.21900000000002,0.004133211830216879
252.22,0.0011380371934687728
252.221,0.002745172105819064
252.222,0.006408965771056008
252.223,0.008771623455771453
252.22400000000002,0.009123368796060847
252.22500000000002,0.007357103470806201
252.226,0.004007677285925031
252.227,8.581213057425441e-05
252.228,0.003240428528815543
252.229,0.005014255816739408
252.23000000000002,0.004790491846555897
252.23100000000002,0.0027718073431165354
252.232,0.00026152162909442886
252.233,0.003204110117088354
252.234,0.004978021215201545
252.235,0.0048725421903280325
252.23600000000002,0.0027644388245212617
252.23700000000002,0.0008479369007989686
252.238,0.005002921767655213
252.239,0.008571756375519619
252.24,0.010596838853047033
252.241,0.010566536278123657
252.24200000000002,0.008545257195828363
252.24300000000002,0.0051263048747403435
252.244,0.0012317371776751126
252.245,0.0021705014168482925
252.246,0.004340742769905883
252.247,0.004950716621611728
252.24800000000002,0.0041278929130851285
252.24900000000002,0.0023605926371945405
252.25,0.0003071980235184296
252.251,0.0014209265723017037
252.252,0.002431695116501001
252.25300000000001,0.002630468686091102
252.25400000000002,0.0021908900213635568
252.25500000000002,0.0014421401768042502
252.256,0.0007217897415174491
252.257,0.00024961276289649795
252.258,6.426100149213273e-05
252.25900000000001,3.7949601549487453e-05
252.26000000000002,4.520337713427124e-05
252.26100000000002,0.00038315395478150045
252.262,0.0010648841997892746
252.263,0.0020275945616965857
252.264,0.0030746498579406357
252.26500000000001,0.003943175946503938
252.26600000000002,0.004392651124304769
252.267,0.0042804078817159485
252.268,0.0035977932250175555
252.269,0.002457911845933106
252.27,0.0010451787197380317
252.27100000000002,0.000449279100119721
252.27200000000002,0.001879100423317461
252.273,0.0031618500314437186
252.274,0.004262276378265787
252.275,0.005152582483530665
252.276,0.0057731431326668685
252.27700000000002,0.006017251504559199
252.27800000000002,0.005753070638056431
252.279,0.004879084205436827
252.28,0.003392779093122319
252.281,0.0014429339769732855
252.282,0.0006619664763884582
252.28300000000002,0.002503040095831624
252.28400000000002,0.0036512353343132044
252.285,0.0037913900956912973
252.286,0.0028307615244380856
252.287,0.0009535110059873544
252.288,0.0014028177798436103
252.28900000000002,0.0036488127074915306
252.29000000000002,0.005197089291324161
252.291,0.005624435765084364
252.292,0.0047931907547691475
252.293,0.0028937260996930625
252.294,0.0003934387040970782
252.29500000000002,0.0020935950418619347
252.29600000000002,0.003977461815819883
252.297,0.004852341029940761
252.298,0.004597801343860108
252.299,0.0033925340747466403
252.3,0.0016394016224202835
252.30100000000002,0.00017149888676275282
252.30200000000002,0.001616186873614521
252.303,0.002457078799506845
252.304,0.00269285162074757
252.305,0.002524620176527702
252.306,0.0022532197839626746
252.30700000000002,0.002145247978876279
252.30800000000002,0.002315756258859092
252.309,0.00266979864294508
252.31,0.0029253033695668196
252.311,0.002712327273192619
252.312,0.0017175278125922337
252.31300000000002,0.000173871309076171
252.31400000000002,0.002787799023386864
252.315,0.005657569304498558
252.316,0.008115551291923841
252.317,0.009459605441706959
252.318,0.009149383143896841
252.31900000000002,0.00697620383736401
252.32000000000002,0.0031553377294699027
252.321,0.0016901299378769548
252.322,0.0066548744996662405
252.323,0.010756673573373676
252.324,0.013169071065720224
252.32500000000002,0.013420583033113082
252.32600000000002,0.011508107310767676
252.327,0.007894985284086373
252.328,0.0033948465171498117
252.329,0.0010276171407017213
252.33,0.004486669367336509
252.33100000000002,0.006377383205531066
252.33200000000002,0.0064995832475104
252.333,0.005076230458172166
252.334,0.002667158080778571
252.335,6.095387136543551e-06
252.336,0.0021928155439065703
252.33700000000002,0.00340779957219906
252.33800000000002,0.0034192066230252284
252.339,0.0023334893526585974
252.34,0.0005228721812426128
252.341,0.001495840309399239
252.342,0.003205993543157249
252.34300000000002,0.004219434792069708
252.34400000000002,0.004357028937414316
252.345,0.0036660646112785817
252.346,0.002377940319654989
252.347,0.0008251698555076312
252.348,0.0006547290826661136
252.34900000000002,0.0018011362095107259
252.35000000000002,0.0024785895950332083
252.351,0.0026842822216857644
252.352,0.002520190266848361
252.353,0.002144209997354022
252.354,0.0017179325571027864
252.35500000000002,0.0013660998342239583
252.35600000000002,0.0011561195976095137
252.357,0.0010981005154718812
252.358,0.0011595141351143092
252.359,0.0012856487855450254
252.36,0.0014178471621426967
252.36100000000002,0.001505046474948605
252.36200000000002,0.001508448575526008
252.363,0.0014023035891502882
252.364,0.001174609274287888
252.365,0.0008299808118398601
252.366,0.000394075668616134
252.36700000000002,8.363351212468111e-05
252.36800000000002,0.0005328230919817202
252.369,0.000873632756797045
252.37,0.0010355727182683014
252.371,0.0009793701545291827
252.372,0.0007144155068820035
252.37300000000002,0.0003043738896369251
252.37400000000002,0.00014355418618016748
252.375,0.0005050721855341226
252.376,0.0006745909025852004
252.377,0.0005999304788078512
252.37800000000001,0.0003045351261368176
252.37900000000002,0.00011130428667588867
252.38000000000002,0.0004927672441339839
252.381,0.0006717011637212212
252.382,0.0005158975535249203
252.383,2.7426965910441127e-05
252.38400000000001,0.0009067946192753075
252.38500000000002,0.001968292156754612
252.38600000000002,0.002984901369393163
252.387,0.003706794828138834
252.388,0.00392055133186289
252.389,0.0035030182688476122
252.39000000000001,0.0024569622197063647
252.39100000000002,0.0009200491403703039
252.392,0.0008552517556535438
252.393,0.0025470592800535255
252.394,0.003825927758384325
252.395,0.004421153226106736
252.39600000000002,0.0041785617986607095
252.39700000000002,0.0030979622357686595
252.398,0.0013415630917443502
252.399,0.0007905100095353957
252.4,0.002915312251751659
252.401,0.004643799319434021
252.40200000000002,0.005664148090056153
252.40300000000002,0.005812947463634534
252.404,0.005115771838659287
252.405,0.0037838500189690386
252.406,0.0021634256811605477
252.407,0.0006470669311067235
252.40800000000002,0.0004317196931134431
252.40900000000002,0.0008916356380351032
252.41,0.0007557869327909426
252.411,0.00024353626979564577
252.412,0.0003005636079874197
252.413,0.0005234386793011693
252.41400000000002,0.0001916948045394362
252.41500000000002,0.000710262997527712
252.416,0.0019483744145401079
252.417,0.0030912959801329214
252.418,0.003638596919551673
252.419,0.003189864148213092
252.42000000000002,0.0016021586753811384
252.42100000000002,0.0009185395903679105
252.422,0.003829948923632072
252.423,0.006377484858767101
252.424,0.007800815328220191
252.425,0.007564282739230269
252.42600000000002,0.005539528710424369
252.42700000000002,0.0020783341153697552
252.428,0.002055443457537917
252.429,0.00588264234088963
252.43,0.008479927817996278
252.431,0.00924404993778445
252.43200000000002,0.008066271198838479
252.43300000000002,0.005359419339271533
252.434,0.0019255098283797111
252.435,0.0012967624306438068
252.436,0.003525047412669348
252.437,0.004371964239695917
252.43800000000002,0.003950258342225077
252.43900000000002,0.002808265896220622
252.44,0.00171580585088473
252.441,0.0013718633031927464
252.442,0.002133992679281089
252.443,0.0038647586007725864
252.44400000000002,0.005953186857343095
252.44500000000002,0.007510744165005292
252.446,0.007681035322497561
252.447,0.005960721557119512
252.448,0.0024209643757007286
252.449,0.002252106154737545
252.45000000000002,0.006921503342664154
252.45100000000002,0.010323783974883807
252.452,0.011454173209952593
252.453,0.009889168163267474
252.454,0.005940053845297252
252.455,0.0005831836548169291
252.45600000000002,0.004815705936454947
252.45700000000002,0.008898890963037066
252.458,0.010711280805644645
252.459,0.009967978100939816
252.46,0.0071114154705900585
252.461,0.003143030325250393
252.46200000000002,0.0007124194192035177
252.46300000000002,0.0033981306343845706
252.464,0.004343991393294987
252.465,0.003610913046102447
252.466,0.0018187773762279192
252.467,0.00011078005830786664
252.46800000000002,0.0013037408039686465
252.46900000000002,0.001252619471902704
252.47,5.308984926861471e-06
252.471,0.001910849172047551
252.472,0.0035970383544623105
252.473,0.004218465290416836
252.47400000000002,0.0032795880128326854
252.47500000000002,0.0008458004173928948
252.476,0.002439230450419424
252.477,0.0055404329456587055
252.478,0.007363118589510318
252.479,0.007120511327602677
252.48000000000002,0.004614607305694167
252.48100000000002,0.0003356951094119616
252.482,0.0046549138581858975
252.483,0.009023657892666034
252.484,0.011551044899352061
252.485,0.011484207367643134
252.48600000000002,0.008746854836614582
252.48700000000002,0.003945231842007096
252.488,0.0018252403607166663
252.489,0.007305379289032225
252.49,0.011423722608911089
252.491,0.01356505731309958
252.49200000000002,0.013679305049880113
252.49300000000002,0.012209692339794301
252.494,0.009878707896138957
252.495,0.007413987588770247
252.496,0.005310227126838092
252.497,0.0037042881675191566
252.49800000000002,0.002396815842238034
252.49900000000002,0.0010009545994007132
252.5,0.0008445392523048247
252.501,0.0032800213386959655
252.502,0.006119916917328928
252.50300000000001,0.008875745257779327
252.50400000000002,0.010898625230035607
252.50500000000002,0.011590786946928963
252.506,0.010612413809393368
252.507,0.008012841155611915
252.508,0.004241853891749885
252.50900000000001,3.760759810466793e-05
252.51000000000002,0.0037717266660251977
252.51100000000002,0.006488688018148155
252.512,0.00772098514905793
252.513,0.007458901646529273
252.514,0.006038227557901895
252.51500000000001,0.004008342693632705
252.51600000000002,0.0019534240218383255
252.517,0.0003256735140975519
252.518,0.0006594107167745386
252.519,0.0010400096915475527
252.52,0.0010420739084190233
252.52100000000002,0.0009616754912922058
252.52200000000002,0.0010404375828916052
252.523,0.0013764894571289847
252.524,0.0018972181777139245
252.525,0.0023967623306231332
252.526,0.002619191509958893
252.52700000000002,0.00235488361755954
252.52800000000002,0.0015164157936961638
252.529,0.00017048503409600855
252.53,0.0014806594600776058
252.531,0.0031575219242262714
252.532,0.004578966448291927
252.53300000000002,0.005529904481444078
252.53400000000002,0.005901838296564524
252.535,0.005698642539538776
252.536,0.005012432815588695
252.537,0.003983221555016739
252.538,0.0027586742603783352
252.53900000000002,0.0014666233561908292
252.54000000000002,0.0002053516652295632
252.541,0.0009514923170134564
252.542,0.0019438906415494097
252.543,0.002717765348020277
252.544,0.0032265072213971354
252.54500000000002,0.0034417082793208455
252.54600000000002,0.0033674945982563854
252.547,0.003050042046307492
252.548,0.002574992401757603
252.549,0.002050086676949117
252.55,0.0015765172597981799
252.55100000000002,0.001217778487606247
252.55200000000002,0.0009770327744315092
252.553,0.0007922221380260835
252.554,0.0005528406832172992
252.555,0.000135206699671403
252.556,0.000553385248742958
252.55700000000002,0.0015349204066840514
252.55800000000002,0.002738242941550089
252.559,0.0040024902308859085
252.56,0.005107775490845811
252.561,0.005826661781436313
252.562,0.005983623374867961
252.56300000000002,0.0055066168708762546
252.56400000000002,0.004455972833826387
252.565,0.0030208972003324315
252.566,0.0014817878718882919
252.567,0.00014547271174826027
252.568,0.0007317927675034727
252.56900000000002,0.0010141715940583836
252.57000000000002,0.000729574028021589
252.571,7.219921780120542e-05
252.572,0.0006405552290506271
252.573,0.001049827236432133
252.574,0.0008572794964173078
252.57500000000002,7.883768197059252e-05
252.57600000000002,0.001681237091271903
252.577,0.0036463391441238064
252.578,0.005500745724400016
252.579,0.006712824604746631
252.58,0.0068340050039533305
252.58100000000002,0.005632995089039181
252.58200000000002,0.0031841976574334373
252.583,0.00011918400217721266
252.584,0.003638021475914411
252.585,0.006633006750123553
252.586,0.008448131221220491
252.58700000000002,0.008683310016324441
252.58800000000002,0.0073074581490452616
252.589,0.004677585152306904
252.59,0.001454728556522675
252.591,0.001563226131364591
252.592,0.0036472679308664534
252.59300000000002,0.004324800873294331
252.59400000000002,0.003496645217907844
252.595,0.001451172554168381
252.596,0.0012268536576469766
252.597,0.0038244379574772286
252.598,0.005695149547987543
252.59900000000002,0.006423641218829435
252.60000000000002,0.005913930618194966
252.601,0.004380344932501312
252.602,0.002250737842758005
252.603,1.824036971136164e-05
252.604,0.0019080854109985114
252.60500000000002,0.0033060362626864312
252.60600000000002,0.0041670526755673365
252.607,0.004644787962552873
252.608,0.004950156450934587
252.609,0.005235044916904342
252.61,0.005509214955132744
252.61100000000002,0.005621654309244383
252.61200000000002,0.005313637261196654
252.613,0.004324520218004241
252.614,0.00251196313044242
252.615,5.754268959269725e-05
252.616,0.0030823684188724908
252.61700000000002,0.006076645345623862
252.61800000000002,0.008485343211687629
252.619,0.009828936686839124
252.62,0.009833147827466075
252.621,0.008504084417658514
252.622,0.006126713410755032
252.62300000000002,0.0031888062416183796
252.62400000000002,0.000255076446872149
252.625,0.0021701054555537487
252.626,0.0037522530916863314
252.627,0.004380923691171741
252.62800000000001,0.004160029742481914
252.62900000000002,0.0033457352647488403
252.63000000000002,0.0022573736943227417
252.631,0.0011909019567319145
252.632,0.00035834310748948455
252.633,0.00013614782104553065
252.63400000000001,0.00028707558671194224
252.63500000000002,0.00015880997015945818
252.63600000000002,0.00014641492864473092
252.637,0.0005117627749959585
252.638,0.0008171178828634742
252.639,0.0009438031773933355
252.64000000000001,0.0007822440118700084
252.64100000000002,0.0002500690170293127
252.642,0.0006791852902587979
252.643,0.0019456418100167023
252.644,0.0033859852300952044
252.645,0.004744477521209058
252.64600000000002,0.005719096299012915
252.64700000000002,0.006036788952041421
252.648,0.005538376909334845
252.649,0.004245351565918237
252.65,0.0023818667905350917
252.651,0.0003366155440238109
252.65200000000002,0.001431960552002003
252.65300000000002,0.00252360134640527
252.654,0.0027195351329157773
252.655,0.0020606984614625484
252.656,0.000851274257598529
252.657,0.0004202080998386349
252.65800000000002,0.0012237686170475034
252.65900000000002,0.0011543957995169783
252.66,7.124824814490583e-05
252.661,0.0018355879405128703
252.662,0.004075770121341673
252.663,0.005982750643581079
252.66400000000002,0.006898319988814905
252.66500000000002,0.006365227918710601
252.666,0.004271556697682003
252.667,0.0009036266974442709
252.668,0.003109599508108993
252.669,0.006946381903565642
252.67000000000002,0.009795234652031823
252.67100000000002,0.011055502285608977
252.672,0.01048167313028052
252.673,0.008234692796019395
252.674,0.004830262147163709
252.675,0.0010022866468271572
252.67600000000002,0.0024788514080817297
252.67700000000002,0.00498433044282667
252.678,0.006157101726584743
252.679,0.005966261803894072
252.68,0.004679528283746709
252.681,0.0027689435292534794
252.68200000000002,0.0007797279391839509
252.68300000000002,0.0008024793238966774
252.684,0.0016549591049337216
252.685,0.0016719678038344694
252.686,0.0009638037574818808
252.687,0.000191688189440365
252.68800000000002,0.0014285509499489299
252.68900000000002,0.0023824787245679477
252.69,0.002771237248338637
252.691,0.002450622881124561
252.692,0.0014373653525834665
252.693,0.00010259687546750771
252.69400000000002,0.0018955766774136405
252.69500000000002,0.0036212612439154206
252.696,0.0049800936615720945
252.697,0.005752551470776186
252.698,0.005837781525604418
252.699,0.005263671038960453
252.70000000000002,0.004167204219246372
252.70100000000002,0.0027514386129789178
252.702,0.0012316400539330128
252.703,0.00021395368999559805
252.704,0.0014748694985993582
252.705,0.0025127963059729634
252.70600000000002,0.0033406144630723812
252.70700000000002,0.003985786676572975
252.708,0.004453440862228476
252.709,0.004704674868893098
252.71,0.004659976714345567
252.711,0.004227908201316395
252.71200000000002,0.0033487824645774154
252.71300000000002,0.0020359638946927435
252.714,0.0003966762376012178
252.715,0.0013793439240592418
252.716,0.003063265940576796
252.717,0.004449679182203187
252.71800000000002,0.005416161844439682
252.71900000000002,0.005956587185428418
252.72,0.006172660611922471
252.721,0.006222971118224678
252.722,0.0062455851080333216
252.723,0.006282621579253668
252.72400000000002,0.006238057846287332
252.72500000000002,0.005891077678106814
252.726,0.004968669515256078
252.727,0.003258836140440263
252.728,0.0007276081317712287
252.729,0.0024037699816363165
252.73000000000002,0.005656868837180828
252.73100000000002,0.008382778227414896
252.732,0.009921748216265869
252.733,0.009793128397848653
252.734,0.007857924812430457
252.735,0.004399305739818729
252.73600000000002,8.787411949706181e-05
252.73700000000002,0.004167391321725187
252.738,0.007445478484248321
252.739,0.009053563257541485
252.74,0.008710330745003334
252.741,0.00661651683709006
252.74200000000002,0.0033899877193618714
252.74300000000002,0.00011601736234827706
252.744,0.003056626813128073
252.745,0.00482692516485989
252.746,0.005211453961085183
252.747,0.004408277437162071
252.74800000000002,0.002924733526990877
252.74900000000002,0.0013831463437562984
252.75,0.0003030915440184406
252.751,6.705637729449655e-05
252.752,0.00018541329607270156
252.75300000000001,0.0006956938519314168
252.75400000000002,0.0009788339056536954
252.75500000000002,0.0006291942152728703
252.756,0.0005092871565082212
252.757,0.002263039684574366
252.758,0.004168866301589188
252.75900000000001,0.005622348355470215
252.76000000000002,0.006085213913027802
252.76100000000002,0.005281047203772625
252.762,0.003311383678624065
252.763,0.0006499815422780159
252.764,0.001986668156962794
252.76500000000001,0.003853188770040254
252.76600000000002,0.004405533021575445
252.767,0.003473310490220811
252.768,0.0013181392181168255
252.769,0.0014414791226306555
252.77,0.004015340071615872
252.77100000000002,0.005678202862642746
252.77200000000002,0.0059834208929033265
252.773,0.004887261235215343
252.774,0.0027470839680399386
252.775,0.00019730302686811967
252.776,0.0020543138821447512
252.77700000000002,0.003443399689090515
252.77800000000002,0.0037101745805921504
252.779,0.0029565487636348748
252.78,0.0015857253972839447
252.781,0.00014915543085645258
252.782,0.0008453944690619215
252.78300000000002,0.0011004507609607107
252.78400000000002,0.0006167162365083583
252.785,0.0003233459952407748
252.786,0.001266612605965492
252.787,0.0017546693367019748
252.788,0.001486544896445182
252.78900000000002,0.00042463215372494974
252.79000000000002,0.0011899783188478396
252.791,0.0029157128866048694
252.792,0.004254422470882621
252.793,0.00481236016789864
252.794,0.0044253133186445475
252.79500000000002,0.003208005412385678
252.79600000000002,0.0015134410680119697
252.797,0.00018271999181968538
252.798,0.001434001357894356
252.799,0.0019618591757629778
252.8,0.0017375298977638852
252.80100000000002,0.0009823622747166406
252.80200000000002,8.834718903736225e-05
252.803,0.0005145338889405366
252.804,0.0005017575572438352
252.805,0.00023599659290227278
252.806,0.0015497367999330982
252.80700000000002,0.0030675565862904974
252.80800000000002,0.004296731716692959
252.809,0.004761679153193163
252.81,0.00413794711096184
252.811,0.0023454402218951536
252.812,0.0004226143229681436
252.81300000000002,0.0037395609131733146
252.81400000000002,0.007040104893967384
252.815,0.009743039835568073
252.816,0.01137058876175977
252.817,0.011637459863834496
252.818,0.01049349768268349
252.81900000000002,0.008116986495043766
252.82000000000002,0.0048671825146324255
252.821,0.0012116613024567332
252.822,0.002354363172726362
252.823,0.005382483611242555
252.824,0.007530189949773125
252.82500000000002,0.008600470231711788
252.82600000000002,0.00856095256782929
252.827,0.007542623793636277
252.828,0.00581792810932192
252.829,0.003758183939994328
252.83,0.001772172015291894
252.83100000000002,0.0002318698594991712
252.83200000000002,0.0006032998670555457
252.833,0.0006477684758331277
252.834,1.9467367584383442e-05
252.835,0.0009754852626301717
252.836,0.0019070446921801733
252.83700000000002,0.0023254494435985913
252.83800000000002,0.001883253727923912
252.839,0.0004440983725267848
252.84,0.0018539428628709211
252.841,0.004604098384319233
252.842,0.007212457488482821
252.84300000000002,0.009040846159749935
252.84400000000002,0.009576942099998495
252.845,0.008585890671402382
252.846,0.006198408211411588
252.847,0.002904565354449221
252.848,0.0005528459598791954
252.84900000000002,0.003362749298471799
252.85000000000002,0.004861028537877425
252.851,0.004717228490158572
252.852,0.0030376665027856253
252.853,0.00035078047628759186
252.854,0.0025271802987245156
252.85500000000002,0.004713286555858715
252.85600000000002,0.005506133998380215
252.857,0.004590760105818128
252.858,0.002139600535306567
252.859,0.0012231483838324876
252.86,0.004587615028758755
252.86100000000002,0.0070103154731789704
252.86200000000002,0.007781360083533998
252.863,0.006629861698612637
252.864,0.0038071685683761748
252.865,2.2378679558187447e-05
252.866,0.003752391403693111
252.86700000000002,0.00655112916192619
252.86800000000002,0.007679506386754202
252.869,0.006900083822590167
252.87,0.004484453537568184
252.871,0.0011195965943170383
252.872,0.0023006628388410975
252.87300000000002,0.0049343703616494565
252.87400000000002,0.006221892113108624
252.875,0.0060202860227840755
252.876,0.00460520831700892
252.877,0.002546175223971212
252.87800000000001,0.0005005346319337902
252.87900000000002,0.0010041878238933424
252.88000000000002,0.0017284523979906514
252.881,0.0017699072194053845
252.882,0.001491642962950275
252.883,0.0013584327207524787
252.88400000000001,0.0017407122644142784
252.88500000000002,0.0027565666337587
252.88600000000002,0.004208662293515601
252.887,0.005640273630065742
252.888,0.006493188169721869
252.889,0.0063141954679183585
252.89000000000001,0.004938331346311567
252.89100000000002,0.0025826335532297493
252.892,0.00018751271587908524
252.893,0.0026152938565077105
252.894,0.003986442131984289
252.895,0.003866029439926777
252.89600000000002,0.0022595460634842945
252.89700000000002,0.00035876326101526946
252.898,0.0031663738086087855
252.899,0.005230273020850072
252.9,0.005791686571630097
252.901,0.004509899401500858
252.90200000000002,0.0015874037789866487
252.90300000000002,0.0022664388933282794
252.904,0.0060268324973534616
252.905,0.00864554412525682
252.906,0.009356993425319524
252.907,0.007906387982090982
252.90800000000002,0.00463059266020924
252.90900000000002,0.0003665459532205126
252.91,0.0037860422271207904
252.911,0.0067772544501705214
252.912,0.007902189856830897
252.913,0.006992287038022637
252.91400000000002,0.004448255735587328
252.91500000000002,0.0011080976991084115
252.916,0.0020072801659585123
252.917,0.003993161894089538
252.918,0.004316078022133282
252.919,0.0029518446171456513
252.92000000000002,0.0003706344833962252
252.92100000000002,0.0026204624020940656
252.922,0.005125446143518052
252.923,0.006421738841180748
252.924,0.006160022476310407
252.925,0.004446962046816171
252.92600000000002,0.0017933576305653562
252.92700000000002,0.0010495358148537417
252.928,0.003311745758665562
252.929,0.004417415302201922
252.93,0.004129170199455056
252.931,0.002588756704192837
252.93200000000002,0.00025134426772981767
252.93300000000002,0.0022585220140266104
252.934,0.00432175864388233
252.935,0.005479073601675467
252.936,0.005525142909820627
252.937,0.004524906240927157
252.93800000000002,0.002758685321280902
252.93900000000002,0.0006220801312537642
252.94,0.0014845367005195268
252.941,0.003244954590214713
252.942,0.004474534844480004
252.943,0.005122198151253904
252.94400000000002,0.0052374605247047625
252.94500000000002,0.004921326619819041
252.946,0.004280479353868458
252.947,0.00339832595781015
252.948,0.0023273292558225423
252.949,0.0010985278769388882
252.95000000000002,0.0002608059067287213
252.95100000000002,0.0017107210925513471
252.952,0.0031892904526677293
252.953,0.004611569494221061
252.954,0.005874205036457786
252.955,0.00686208864983141
252.95600000000002,0.007455214903066558
252.95700000000002,0.0075369934407749735
252.958,0.007007506490411282
252.959,0.005804782155102517
252.96,0.003933553276857891
252.961,0.001495368185183242
252.96200000000002,0.0012911815910965298
252.96300000000002,0.004093119743879105
252.964,0.006498168451752432
252.965,0.008083128759953874
252.966,0.008504823078836637
252.967,0.007592223705808729
252.96800000000002,0.005412949651369888
252.96900000000002,0.0022900291080386855
252.97,0.0012439128319989502
252.971,0.0045507072094089895
252.972,0.007026558782411244
252.973,0.00824244400265131
252.97400000000002,0.008046398654164698
252.97500000000002,0.006597584373869288
252.976,0.004320330176880076
252.977,0.0017892552402478865
252.978,0.0004229356380136039
252.979,0.001891908440737945
252.98000000000002,0.0024407680966352287
252.98100000000002,0.002164317836772419
252.982,0.0013738241429418288
252.983,0.00048175338817802555
252.984,0.00013613346380880967
252.985,0.00025794377523676287
252.98600000000002,0.00012354211160411566
252.98700000000002,0.0008131338859450387
252.988,0.0014914655954849242
252.989,0.0018311800051934238
252.99,0.0016117370870532288
252.991,0.000795311945594187
252.99200000000002,0.0004597684481541687
252.99300000000002,0.001850339286032225
252.994,0.0030254328487664783
252.995,0.0036956870774040467
252.996,0.0037190014705753348
252.997,0.0031356182855112567
252.99800000000002,0.002143665898961413
252.99900000000002,0.0010263164008048197
253.0,5.722975193258316e-05
253.001,0.0005831746972983807
253.002,0.0008534563040186727
253.00300000000001,0.000846063417974284
253.00400000000002,0.0007365831319388776
253.00500000000002,0.0007078602650170032
253.006,0.000877079203708056
253.007,0.0012514124397211175
253.008,0.0017266085238651127
253.00900000000001,0.0021271988199477072
253.01000000000002,0.0022724817406867288
253.01100000000002,0.002044067329381171
253.012,0.0014311437533498764
253.013,0.0005382112918077214
253.014,0.00044654045326065106
253.01500000000001,0.0013106118245945935
253.01600000000002,0.0018838823094177173
253.017,0.002090616657626729
253.018,0.0019705943698136797
253.019,0.001663859560975132
253.02,0.0013652602174761689
253.02100000000002,0.0012637155173873282
253.02200000000002,0.0014845041153038004
253.023,0.0020503899762341717
253.024,0.0028706709250755367
253.025,0.003758988933755386
253.026,0.004473726732732545
253.02700000000002,0.004770779899590969
253.02800000000002,0.004457721854443095
253.029,0.0034399076249456884
253.03,0.0017514099188587462
253.031,0.00043428131731049197
253.032,0.002817332920696686
253.03300000000002,0.005010177582482575
253.03400000000002,0.0066002728749318396
253.035,0.007230478846516749
253.036,0.006683986529274958
253.037,0.004954838171025458
253.038,0.0022827279248289847
253.03900000000002,0.0008654660332893267
253.04000000000002,0.0038741843297856187
253.041,0.006108374647487149
253.042,0.007066848404469075
253.043,0.0065208465816082905
253.044,0.004596472546173036
253.04500000000002,0.001770089683772455
253.04600000000002,0.0012322624719478558
253.047,0.0036124757337733897
253.048,0.0047106461950719445
253.049,0.004189467767231584
253.05,0.0021371463329519025
253.05100000000002,0.0009459567270601996
253.05200000000002,0.004278315313317082
253.053,0.007011148280942747
253.054,0.008463453235670496
253.055,0.008307740875136955
253.056,0.006649707152792765
253.05700000000002,0.003977569180764848
253.05800000000002,0.000998096315160301
253.059,0.0015869836669227858
253.06,0.003290997519215686
253.061,0.003970249646970926
253.062,0.003829302651024559
253.06300000000002,0.0033052503207969923
253.06400000000002,0.002874772776301975
253.065,0.0028551731768726323
253.066,0.0032732474111641634
253.067,0.0038521167797375524
253.068,0.004123719989724042
253.06900000000002,0.0036280866673684365
253.07000000000002,0.0021263782502842507
253.071,0.00025423766482875047
253.072,0.003005222602022728
253.073,0.005368106549284069
253.074,0.006577191088362803
253.07500000000002,0.006134803189613365
253.07600000000002,0.004022736241796528
253.077,0.0007689640689733882
253.078,0.0026664453080597755
253.079,0.005162205840584342
253.08,0.0057842112407119
253.08100000000002,0.0041009976260028775
253.08200000000002,0.0003604317533811745
253.083,0.0045378606385649695
253.084,0.009275953275903116
253.085,0.012491806380521307
253.086,0.013181464446754308
253.08700000000002,0.011004470306866503
253.08800000000002,0.006395856021474392
253.089,0.00044789243442306103
253.09,0.005402931004063883
253.091,0.009786984193982698
253.092,0.011783734308093681
253.09300000000002,0.011158905662954728
253.09400000000002,0.008388121104407386
253.095,0.004467571256441751
253.096,0.0005796239155761538
253.097,0.002274971914121695
253.098,0.0035603639028927896
253.09900000000002,0.003318802860176159
253.10000000000002,0.002087518303905872
253.101,0.0006587845590072416
253.102,0.00022714274932560675
253.103,0.00014829150035168868
253.104,0.0008627373201686485
253.10500000000002,0.002353440519582436
253.10600000000002,0.0036377175572867063
253.107,0.004062965689451183
253.108,0.003261668540551927
253.109,0.0012996089509209185
253.11,0.0013288905063193373
253.11100000000002,0.003854317371469566
253.11200000000002,0.005478896422303162
253.113,0.005632031994090622
253.114,0.004149257640483178
253.115,0.001318624031733698
253.116,0.0022148655792401965
253.11700000000002,0.005648565020963638
253.11800000000002,0.008254922973838666
253.119,0.009570983211771085
253.12,0.00948818265944995
253.121,0.008224167463154505
253.122,0.006200041439187513
253.12300000000002,0.003876699595846764
253.12400000000002,0.0016126096492978012
253.125,0.0004091787436276401
253.126,0.002168074672789951
253.127,0.0037252993023031253
253.12800000000001,0.005119306765666047
253.12900000000002,0.0062877455998751625
253.13000000000002,0.007052563377031875
253.131,0.007176510520861964
253.132,0.006468003413313094
253.133,0.004889518148513719
253.13400000000001,0.0026210349695637092
253.13500000000002,4.6095386490539244e-05
253.13600000000002,0.002342299327271499
253.137,0.004086796457876593
253.138,0.004910835551817944
253.139,0.004809816869996321
253.14000000000001,0.004051719314423707
253.14100000000002,0.0030825097208990434
253.142,0.00236655539048587
253.143,0.0022172204772859454
253.144,0.002678440284726198
253.145,0.0035017795263122924
253.14600000000002,0.004230662216083649
253.14700000000002,0.004365541318531767
253.148,0.003554187287634309
253.149,0.0017406597511625374
253.15,0.0007810642271575482
253.151,0.0034314063001041023
253.15200000000002,0.005510283100828463
253.15300000000002,0.006411326779811113
253.154,0.005816165400904839
253.155,0.003805303507530802
253.156,0.000848821795456486
253.157,0.0023211862199452155
253.15800000000002,0.00491677976047693
253.15900000000002,0.006314917036125629
253.16,0.00622547584622404
253.161,0.004757534390746121
253.162,0.0023681297550409747
253.163,0.00028542661689563313
253.16400000000002,0.002540135163818988
253.16500000000002,0.003907914862963342
253.166,0.004189811645464198
253.167,0.003495724622243609
253.168,0.002172909290420757
253.169,0.0006743073823487749
253.17000000000002,0.0005866612567179028
253.17100000000002,0.0013488401650387514
253.172,0.001552838201065178
253.173,0.0013200817669660092
253.174,0.0008776395107441645
253.175,0.0004606929242941569
253.17600000000002,0.0002280359503025312
253.17700000000002,0.00021744016566407255
253.178,0.0003512019195965329
253.179,0.00048401803601007417
253.18,0.00047174026985696463
253.181,0.00023458416064831662
253.18200000000002,0.00020723458188993957
253.18300000000002,0.0007361332876775294
253.184,0.0011749619695742243
253.185,0.0013453705109117572
253.186,0.0011264374212901205
253.187,0.0004945564723206942
253.18800000000002,0.0004672530730099756
253.18900000000002,0.001592235931286498
253.19,0.0026767563061502685
253.191,0.0035362386613146325
253.192,0.004053441736357807
253.193,0.004205268185940775
253.19400000000002,0.004060874036615019
253.19500000000002,0.003752052399659292
253.196,0.003424600396970554
253.197,0.003184805417362979
253.198,0.0030570528456575316
253.199,0.002966336952183351
253.20000000000002,0.0027534333960847037
253.20100000000002,0.002221792676589878
253.202,0.0012057482788175643
253.203,0.00035815547747161344
253.204,0.002378547614881766
253.205,0.0045948511976493045
253.20600000000002,0.006612049831244218
253.20700000000002,0.00798213538130739
253.208,0.008315041757948272
253.209,0.007390285343369053
253.21,0.005236363579222103
253.211,0.0021507028329379174
253.21200000000002,0.0013518846167880037
253.21300000000002,0.004653455143231458
253.214,0.0071808974634879
253.215,0.008545826000645783
253.216,0.008634385132949313
253.217,0.007618538830881626
253.21800000000002,0.005884435336440751
253.21900000000002,0.0039004626100374615
253.22,0.0020684870082856286
253.221,0.0006087192574736262
253.222,0.0004817672931049319
253.223,0.0013821031065843945
253.22400000000002,0.002329513125018057
253.22500000000002,0.003474824559660942
253.226,0.004769054669782317
253.227,0.005930544096683915
253.228,0.006514809706464938
253.229,0.006071308190644925
253.23000000000002,0.004335874633998975
253.23100000000002,0.001388114568088147
253.232,0.0022919027091992217
253.233,0.005903375599002794
253.234,0.008530642365670523
253.235,0.009418165382819244
253.23600000000002,0.008226964909710215
253.23700000000002,0.005182665155123405
253.238,0.0010546684765964072
253.239,0.0030411154349625903
253.24,0.00596399756435497
253.241,0.006896898219322619
253.24200000000002,0.005608408586373921
253.24300000000002,0.002538104966608168
253.244,0.0013306415217403246
253.245,0.0047765296150039105
253.246,0.006729765793402513
253.247,0.006618477411007032
253.24800000000002,0.004555861652947938
253.24900000000002,0.0013021177347705723
253.25,0.0019904131223541536
253.251,0.0041667697777968945
253.252,0.004463768765193943
253.25300000000001,0.002775054641148463
253.25400000000002,0.00030591917670241803
253.25500000000002,0.0036833891333796927
253.256,0.006133396395506576
253.257,0.006728658414328695
253.258,0.005168497470329595
253.25900000000001,0.0018981858905026561
253.26000000000002,0.0020273822521135886
253.26100000000002,0.00529339428383872
253.262,0.006771614096542489
253.263,0.005911831971096296
253.264,0.0029430142165748257
253.26500000000001,0.001187666506069089
253.26600000000002,0.005120758548741354
253.267,0.0075341687010443345
253.268,0.007585160643542072
253.269,0.005194847678020763
253.27,0.0010782470934013137
253.27100000000002,0.0034906205629441785
253.27200000000002,0.007098888583109488
253.273,0.008657671250053322
253.274,0.007751148529140065
253.275,0.004755460077372575
253.276,0.0006907494321194426
253.27700000000002,0.003138494020499186
253.27800000000002,0.005587754241214344
253.279,0.00604732334627368
253.28,0.004620303261005557
253.281,0.0020473083888131968
253.282,0.0005888674355767906
253.28300000000002,0.0022685089770983287
253.28400000000002,0.0024030870678280873
253.285,0.0010348071096590635
253.286,0.0012014766511557508
253.287,0.0033365621661314536
253.288,0.004448346629826889
253.28900000000002,0.004025004881385096
253.29000000000002,0.002175239666375401
253.291,0.0003936753218543365
253.292,0.0026251771710473675
253.293,0.003502326144705621
253.294,0.0024368722783428215
253.29500000000002,0.0004830977676814365
253.29600000000002,0.004479934778930518
253.297,0.008318426206760234
253.298,0.01070703558483695
253.299,0.010731737140155061
253.3,0.008172794712613384
253.30100000000002,0.003594198979285954
253.30200000000002,0.0018265272489225548
253.303,0.006671133171365959
253.304,0.00972962760800613
253.305,0.010373664233951623
253.306,0.008729814687062734
253.30700000000002,0.005598256297931919
253.30800000000002,0.0021504509976128807
253.309,0.0004853608564413709
253.31,0.001605605516490287
253.311,0.001149069761338618
253.312,0.00032012957534720553
253.31300000000002,0.0018519265158974986
253.31400000000002,0.0024821702855177563
253.315,0.001602452909540069
253.316,0.0008033782905982742
253.317,0.0041381392799683435
253.318,0.007390727017333255
253.31900000000002,0.009483661701913573
253.32000000000002,0.009645665798449849
253.321,0.007679442825245925
253.322,0.004033509927444772
253.323,0.000343419547426375
253.324,0.004311445961676423
253.32500000000002,0.006902893176693271
253.32600000000002,0.007615500772107269
253.327,0.006538892245932829
253.328,0.004278607691488337
253.329,0.0017132184068756552
253.33,0.000323604288584934
253.33100000000002,0.0013220535254548083
253.33200000000002,0.0012409320661826906
253.333,0.00047458986466317524
253.334,0.0003363985897157553
253.335,0.0005742990800229698
253.336,0.00010900440596123636
253.33700000000002,0.0016574208025974821
253.33800000000002,0.0036339517305210185
253.339,0.005388236806105901
253.34,0.006302139090298416
253.341,0.0060202654713508675
253.342,0.004580187391190505
253.34300000000002,0.002396046498424476
253.34400000000002,0.00010428839279660964
253.345,0.001668985313717181
253.346,0.002531586184511264
253.347,0.0024569005617302133
253.348,0.001775834013202192
253.34900000000002,0.0010334020048053285
253.35000000000002,0.0007643873745187508
253.351,0.001272198309935269
253.352,0.0024938210462696468
253.353,0.004002299497752508
253.354,0.005148129237393362
253.35500000000002,0.005290525982493981
253.35600000000002,0.004036843401598903
253.357,0.0014050194692850483
253.358,0.0021492393156146462
253.359,0.005851615683327389
253.36,0.008835108551376019
253.36100000000002,0.010396943430228607
253.36200000000002,0.010201359085874785
253.363,0.008363442666256856
253.364,0.005391274310103863
253.365,0.0020122420275856777
253.366,0.0010527083111582694
253.36700000000002,0.003288877036347795
253.36800000000002,0.004497286226054526
253.369,0.00478513440328801
253.37,0.004452772477124948
253.371,0.003829320369830353
253.372,0.003124950137064545
253.37300000000002,0.0023578773151918123
253.37400000000002,0.0013825267270701383
253.375,4.2703960099767646e-06
253.376,0.0018690154062411708
253.377,0.004104443865966514
253.37800000000001,0.006307509915703194
253.37900000000002,0.007897132966093751
253.38000000000002,0.008276040493529983
253.381,0.007042332723743077
253.382,0.004168284238520553
253.383,7.835122104266057e-05
253.38400000000001,0.004411333652495495
253.38500000000002,0.008284802035352694
253.38600000000002,0.01059776993411367
253.387,0.010748184457223786
253.388,0.008661672806854108
253.389,0.004831459249909798
253.39000000000001,0.0001958707501290344
253.39100000000002,0.004113824465242267
253.392,0.007082557506114182
253.393,0.00808721337216881
253.394,0.00705864964276037
253.395,0.0044839940399789184
253.39600000000002,0.0012510662876621223
253.39700000000002,0.0016167661664797646
253.398,0.00325594663809493
253.399,0.0032022796768933098
253.4,0.001507615501948606
253.401,0.0012953204814149068
253.40200000000002,0.004363793415382349
253.40300000000002,0.006796880244168112
253.404,0.007892582584278208
253.405,0.0073366268032385995
253.406,0.005272660077838943
253.407,0.0022402165656025233
253.40800000000002,0.0009945519315880428
253.40900000000002,0.003661147219146349
253.41,0.005193853905039768
253.411,0.005369433593541806
253.412,0.004339242308055549
253.413,0.002554093129029334
253.41400000000002,0.0006110495917706379
253.41500000000002,0.0009282406484689293
253.416,0.0016933425215706031
253.417,0.001591992591883957
253.418,0.0008083668165107189
253.419,0.00027982694922387377
253.42000000000002,0.0012345890558942928
253.42100000000002,0.0016977000125291545
253.422,0.0014952293025284184
253.423,0.0006777902211706615
253.424,0.0005107151677875404
253.425,0.0017208877944624328
253.42600000000002,0.0026109839481974284
253.42700000000002,0.002948710089277463
253.428,0.0026711768882285644
253.429,0.0018879283188526603
253.43,0.0008311374814029287
253.431,0.00022634548194652097
253.43200000000002,0.0010556550137211526
253.43300000000002,0.0015314106662026494
253.434,0.0016490315333139805
253.435,0.0014988275365669026
253.436,0.0012111941873717536
253.437,0.0008965858463708804
253.43800000000002,0.0006041324113872613
253.43900000000002,0.00031399255559802627
253.44,3.57391820396989e-05
253.441,0.0005010580737574494
253.442,0.0010853209651318742
253.443,0.0017159309790420504
253.44400000000002,0.0022573470210878886
253.44500000000002,0.0025583387433526896
253.446,0.0025164047104347036
253.447,0.0021332496548522005
253.448,0.0015361580819240525
253.449,0.000951344982555723
253.45000000000002,0.0006332635276492838
253.45100000000002,0.0007719195582510252
253.452,0.0014114513801605226
253.453,0.0024126443305805836
253.454,0.003478846508006423
253.455,0.004242847373342418
253.45600000000002,0.004389189743566208
253.45700000000002,0.00377067313871907
253.458,0.0024759663092968898
253.459,0.0008191341428821206
253.46,0.0007523106226094595
253.461,0.0018049775254861383
253.46200000000002,0.002074629338360739
253.46300000000002,0.0015737521127008973
253.464,0.0006091310898722451
253.465,0.000304602840848801
253.466,0.0006138955339301059
253.467,7.447407072936336e-05
253.46800000000002,0.0018304060292203153
253.46900000000002,0.004332671014070694
253.47,0.006926735911274047
253.471,0.008798178304926319
253.472,0.009212434512453502
253.473,0.007747177787331815
253.47400000000002,0.004442850051578349
253.47500000000002,0.000179149407930425
253.476,0.0052397711144621245
253.477,0.00973110303262695
253.478,0.012780776281722726
253.479,0.013871130111923775
253.48000000000002,0.012947970685467339
253.48100000000002,0.010390836982534216
253.482,0.006862441520338459
253.483,0.0030936452710131845
253.484,0.00032130377868746173
253.485,0.003052575248493975
253.48600000000002,0.005050071755005358
253.48700000000002,0.0064534930741395055
253.488,0.007443119833951053
253.489,0.008097836009952963
253.49,0.008321780441134779
253.491,0.007872167966952464
253.49200000000002,0.006479045244855376
253.49300000000002,0.004008819552808436
253.494,0.0006023218219159851
253.495,0.0032764190766858227
253.496,0.00691368661797665
253.497,0.009529301605075395
253.49800000000002,0.010513283250848793
253.49900000000002,0.00963438345770319
253.5,0.007142492853789397
253.501,0.0037195430315088893
253.502,0.00028477613897597774
253.50300000000001,0.0022875780886332927
253.50400000000002,0.003445889511204004
253.50500000000002,0.0031384001243462798
253.506,0.0018249668658431425
253.507,0.000312737550945789
253.508,0.0005340555004358877
253.50900000000001,0.00011429202809693733
253.51000000000002,0.0016699339099637072
253.51100000000002,0.004340054289735582
253.512,0.006967357678519444
253.513,0.008464665971010388
253.514,0.00795172699310169
253.51500000000001,0.005074717375679391
253.51600000000002,0.00017182463487685066
253.517,0.005775160086932119
253.518,0.01139451017246772
253.519,0.015307896694874817
253.52,0.016525133097382422
253.52100000000002,0.014727860805271427
253.52200000000002,0.010355279520195205
253.523,0.004468431520309481
253.524,0.0015603760134235262
253.525,0.006432826174909899
253.526,0.009264504278751994
253.52700000000002,0.009779055704775438
253.52800000000002,0.00830758834245912
253.529,0.00560940793288719
253.53,0.0025867359118576494
253.531,4.543445002284117e-06
253.532,0.001752614814014732
253.53300000000002,0.0026391502016110775
253.53400000000002,0.002939722321247692
253.535,0.0030277512586983284
253.536,0.0031662775017018887
253.537,0.0033716461202228944
253.538,0.0034021123666936035
253.53900000000002,0.002874460992531739
253.54000000000002,0.0014614473028631433
253.541,0.0009094957569579867
253.542,0.003938639322504348
253.543,0.006972026730169769
253.544,0.009161385578638818
253.54500000000002,0.009720071021055899
253.54600000000002,0.008192091590878586
253.547,0.004642147548548649
253.548,0.00030300484190516136
253.549,0.0055849637539162455
253.55,0.00998366602148056
253.55100000000002,0.012449057672452538
253.55200000000002,0.012395476884601995
253.553,0.009870008732084552
253.554,0.005544046503587094
253.555,0.0005305793279438458
253.556,0.003918659761174685
253.55700000000002,0.0067480064931472765
253.55800000000002,0.007369770779832295
253.559,0.0057998934556509705
253.56,0.0026258964395492576
253.561,0.001175689938524278
253.562,0.004514574323188808
253.56300000000002,0.006475337830275659
253.56400000000002,0.00654255052914362
253.565,0.004708838631945978
253.566,0.0014480410310346004
253.567,0.002427721747363348
253.568,0.005980757473252403
253.56900000000002,0.008371948314370577
253.57000000000002,0.009042425020757666
253.571,0.00781606231644918
253.572,0.0049095102003277324
253.573,0.0008591368547592374
253.574,0.003609184868004085
253.57500000000002,0.007733645455672427
253.57600000000002,0.010860242983356201
253.577,0.012550518967485071
253.578,0.012637594448675736
253.579,0.011226192375215823
253.58,0.008642731138946867
253.58100000000002,0.005349855581183984
253.58200000000002,0.0018451980272582039
253.583,0.0014338927624795448
253.584,0.004179973063440188
253.585,0.0062459576160901675
253.586,0.007632407813195791
253.58700000000002,0.008438677109576371
253.58800000000002,0.008794677481479555
253.589,0.00879551366693148
253.59,0.008460312389309959
253.591,0.007728909893052971
253.592,0.006497561497824187
253.59300000000002,0.0046813034654989046
253.59400000000002,0.002280580041979384
253.595,0.0005730369751373289
253.596,0.0036113228126826366
253.597,0.006470357056214888
253.598,0.008768354725165886
253.59900000000002,0.010197460682627325
253.60000000000002,0.010600727634465533
253.601,0.010009425038517768
253.602,0.008628461521630795
253.603,0.0067747721564823515
253.604,0.004789033065054359
253.60500000000002,0.0029494775632327185
253.60600000000002,0.0014148720769643296
253.607,0.0002125247532817726
253.608,0.0007293007898686379
253.609,0.0015208792784619162
253.61,0.0022477993397794368
253.61100000000002,0.002929558685623353
253.61200000000002,0.003514313343756129
253.613,0.003908697133266158
253.614,0.004027173624944316
253.615,0.0038376850169118586
253.616,0.0033825225566883094
253.61700000000002,0.002764492135368262
253.61800000000002,0.002104020336038619
253.619,0.001486341455885957
253.62,0.000923488703227801
253.621,0.0003507271660957811
253.622,0.0003370998589552758
253.62300000000002,0.0012215993926195225
253.62400000000002,0.002295537779138137
253.625,0.003426531110396141
253.626,0.004371408259911963
253.627,0.004844140124471971
253.62800000000001,0.004618032833977694
253.62900000000002,0.0036260309643102455
253.63000000000002,0.0020188068163933108
253.631,0.00015173101765045513
253.632,0.0015041782697476807
253.633,0.0025038314021062135
253.63400000000001,0.0025764402102525785
253.63500000000002,0.0017279238293949296
253.63600000000002,0.00025666281960814297
253.637,0.0013299316947416905
253.638,0.0024756620540870894
253.639,0.002761053177372641
253.64000000000001,0.002050286102253156
253.64100000000002,0.0005458796956290641
253.642,0.0012723441713761324
253.643,0.0028071612998894014
253.644,0.0035496395248499203
253.645,0.0032588523242683613
253.64600000000002,0.0020503173123050003
253.64700000000002,0.0003583294545739821
253.648,0.0012182266137848476
253.649,0.002134224293994934
253.65,0.0021029784908547173
253.651,0.0012113172001644713
253.65200000000002,0.00010121625941657983
253.65300000000002,0.0011974330058643302
253.654,0.001480887671639122
253.655,0.0006336695357045815
253.656,0.0012342342921040357
253.657,0.003584060087667276
253.65800000000002,0.005605193612330207
253.65900000000002,0.0064828678574811
253.66,0.005687642291641407
253.661,0.0031856832161719995
253.662,0.0005077767823979267
253.663,0.004457777894345999
253.66400000000002,0.007585179397865123
253.66500000000002,0.009000088511532327
253.666,0.008282470450696246
253.667,0.0056148240544758405
253.668,0.0017207447904322248
253.669,0.00237100237177779
253.67000000000002,0.005657378545018375
253.67100000000002,0.007474503871480535
253.672,0.007687179340795515
253.673,0.006691264102688094
253.674,0.0052312779652794955
253.675,0.004100636516949459
253.67600000000002,0.003833377541711413
253.67700000000002,0.004499194866038434
253.678,0.005676671443271253
253.679,0.0066155887975065655
253.68,0.006530670638389124
253.681,0.004920542336525132
253.68200000000002,0.0017946713061849325
253.68300000000002,0.002277981226024654
253.684,0.006322422976038636
253.685,0.009264973899331962
253.686,0.010290142948158778
253.687,0.009122729158506027
253.68800000000002,0.006134623267158493
253.68900000000002,0.002235469523672932
253.69,0.001418738817184983
253.691,0.0038011914460784274
253.692,0.004345789572800776
253.693,0.0031209473953479464
253.69400000000002,0.0007862164715139106
253.69500000000002,0.0016524032935457977
253.696,0.0032026020531181645
253.697,0.0032354055748722798
253.698,0.0017023912821033929
253.699,0.0008547016375634581
253.70000000000002,0.0035040319446411608
253.70100000000002,0.005261707824257415
253.702,0.005447756856928137
253.703,0.003933943627725409
253.704,0.001195851651842391
253.705,0.0018490088288446113
253.70600000000002,0.004159636463170123
253.70700000000002,0.004933856387762103
253.708,0.0038865866132768807
253.709,0.0013461727177631582
253.71,0.0018644044576953838
253.711,0.004718290234415533
253.71200000000002,0.006343410003928425
253.71300000000002,0.006321090619916943
253.714,0.004818442503699344
253.715,0.002507912165396695
253.716,0.00030379288953138827
253.717,0.00098851850254951
253.71800000000002,0.00098265341399209
253.71900000000002,0.0001336181153238154
253.72,0.001658182167481676
253.721,0.0026325804139152083
253.722,0.002209784736894169
253.723,1.8222000328077658e-06
253.72400000000002,0.0037190013444416948
253.72500000000002,0.008043459892394399
253.726,0.01167531344154581
253.727,0.013331484280444776
253.728,0.012162898637456745
253.729,0.008056436406935133
253.73000000000002,0.0017154864552765736
253.73100000000002,0.005511731332695817
253.732,0.012004757661296658
253.733,0.01632795812072887
253.734,0.017629099897148677
253.735,0.01585692527691645
253.73600000000002,0.011735136624947691
253.73700000000002,0.0065090964304408165
253.738,0.0015529874161693985
253.739,0.0020341006845163564
253.74,0.0037170869096824362
253.741,0.003615923992579874
253.74200000000002,0.002383967170276306
253.74300000000002,0.0009284477406936141
253.744,7.566448839176225e-05
253.745,0.00029485093610637144
253.746,0.0015675947842762848
253.747,0.003435277198021807
253.74800000000002,0.005195044265445853
253.74900000000002,0.006166660762071036
253.75,0.00593377627566407
253.751,0.004478374718978053
253.752,0.0021692824670155953
253.75300000000001,0.0003814644343533738
253.75400000000002,0.0025357482798733077
253.75500000000002,0.003839650020027495
253.756,0.004154187968334335
253.757,0.0036664430621602307
253.758,0.0027857247639151233
253.75900000000001,0.0019698451527373037
253.76000000000002,0.0015486565690779192
253.76100000000002,0.0016089707335246565
253.762,0.0019792570791706127
253.763,0.002314462199773271
253.764,0.0022450834432065072
253.76500000000001,0.0015330596493054256
253.76600000000002,0.00017704081841359094
253.767,0.0015699278735872787
253.768,0.0032746374802751404
253.769,0.004461592387099837
253.77,0.004765228596025424
253.77100000000002,0.004044488059883023
253.77200000000002,0.002423327976082413
253.773,0.00024797523597598956
253.774,0.0020196808885955485
253.775,0.003933363970143425
253.776,0.005174465370637635
253.77700000000002,0.005611883419034397
253.77800000000002,0.005297978883889377
253.779,0.004412208778541309
253.78,0.00318057195221186
253.781,0.0018034756722032574
253.782,0.0004164959608922307
253.78300000000002,0.0009079912494169074
253.78400000000002,0.0021280963332248695
253.785,0.0031904036864257076
253.786,0.004002380471541479
253.787,0.004434745680192635
253.788,0.0043549950985411765
253.78900000000002,0.0036789565570438296
253.79000000000002,0.002418812466855376
253.791,0.000706698968471012
253.792,0.0012178042319231426
253.793,0.0030542314998977032
253.794,0.004507146983118443
253.79500000000002,0.00535021031853898
253.79600000000002,0.005469089507091599
253.797,0.004873035226651187
253.798,0.003677133156653791
253.799,0.002067299184417919
253.8,0.0002638606273524897
253.80100000000002,0.0015041763889883
253.80200000000002,0.003011201352801275
253.803,0.004040357366026837
253.804,0.004394766045015135
253.805,0.003925320308523887
253.806,0.002576470912639302
253.80700000000002,0.0004384702182552915
253.80800000000002,0.0022161777857833687
253.809,0.004937022565636159
253.81,0.007157357525773746
253.811,0.008311867351752652
253.812,0.00798667091692916
253.81300000000002,0.006060206234924423
253.81400000000002,0.0027873456408373195
253.815,0.0012107309834027166
253.816,0.005063343578049135
253.817,0.007853287198898355
253.818,0.008855225401077622
253.81900000000002,0.007741979559454489
253.82000000000002,0.0046948991641600985
253.821,0.0003791805222893016
253.822,0.0042160016598472095
253.823,0.008031331610786285
253.824,0.01021366274997872
253.82500000000002,0.010334482536221075
253.82600000000002,0.008486502081343397
253.827,0.005231174652911753
253.828,0.0014158155557675693
253.829,0.002080866950703459
253.83,0.004594736745748511
253.83100000000002,0.005838203499560956
253.83200000000002,0.005931704650538631
253.833,0.005301928745123001
253.834,0.004487909421385165
253.835,0.003925540414086618
253.836,0.0037862603131797283
253.83700000000002,0.003925081675357007
253.83800000000002,0.003953969665234693
253.839,0.003412274258004603
253.84,0.0019716542804422395
253.841,0.00039958941709057334
253.842,0.0033743559651311563
253.84300000000002,0.006333425898191046
253.84400000000002,0.008543189663199724
253.845,0.009387755056320347
253.846,0.008578686679582502
253.847,0.0062712045983497645
253.848,0.0030451131717921685
253.84900000000002,0.0002477229647291955
253.85000000000002,0.0027243076093222676
253.851,0.003726091834339011
253.852,0.0030105479805566664
253.853,0.0008203396278659039
253.854,0.00218978809019605
253.85500000000002,0.005144175178990769
253.85600000000002,0.007195772718677023
253.857,0.007758497777919987
253.858,0.00665504150488732
253.859,0.004141381466845963
253.86,0.0008084189925075909
253.86100000000002,0.0026019745375615976
253.86200000000002,0.0054061259158956895
253.863,0.007149672331448511
253.864,0.007694228989294312
253.865,0.007203142800197167
253.866,0.006042349774597302
253.86700000000002,0.004636868603598918
253.86800000000002,0.0033328489894196792
253.869,0.0023076799905509954
253.87,0.0015503992374385335
253.871,0.000909343870851542
253.872,0.000182416148247985
253.87300000000002,0.0007857868900331256
253.87400000000002,0.002033822385685966
253.875,0.0034611661634379705
253.876,0.004856454972196693
253.877,0.005961722590566624
253.87800000000001,0.006548031587579062
253.87900000000002,0.006477311376712282
253.88000000000002,0.005733138363977616
253.881,0.004415774974162191
253.882,0.0027089979817516946
253.883,0.0008338480064906758
253.88400000000001,0.0009945858783000309
253.88500000000002,0.002596156893460293
253.88600000000002,0.0038372232650159886
253.887,0.0046289927092694715
253.888,0.004920791633900081
253.889,0.004695764093267806
253.89000000000001,0.003972285692711174
253.89100000000002,0.002809037342162876
253.892,0.0013079796589981992
253.893,0.0003907793428350997
253.894,0.002124912969396007
253.895,0.0037340133755725917
253.89600000000002,0.005084691736745392
253.89700000000002,0.006087737437063898
253.898,0.0067008695484493735
253.899,0.0069163975079479505
253.9,0.006739884419181335
253.901,0.006170658666125662
253.90200000000002,0.005195345594817658
253.90300000000002,0.003800796801181996
253.904,0.002004337677689008
253.905,0.00010967837325536885
253.906,0.0023636762531966168
253.907,0.004487237946712037
253.90800000000002,0.006153011624226146
253.90900000000002,0.007044988973058034
253.91,0.006943045921844328
253.911,0.005798669485036611
253.912,0.003775591276995112
253.913,0.0012369303700949885
253.91400000000002,0.0013244305382239566
253.91500000000002,0.0033977180979993162
253.916,0.004579251414999477
253.917,0.0046750921719815345
253.918,0.003750551868908244
253.919,0.0021103888850056997
253.92000000000002,0.00021387121412650475
253.92100000000002,0.0014514304094872493
253.922,0.002500549674705752
253.923,0.0027486367471602127
253.924,0.002247260779922754
253.925,0.0012505852735469872
253.92600000000002,0.00012401924195801705
253.92700000000002,0.0007747467969132601
253.928,0.0012047677223801126
253.929,0.001107690216442582
253.93,0.0006118514176269523
253.931,2.378766886657825e-05
253.93200000000002,0.0005052281415976464
253.93300000000002,0.0006059836941074313
253.934,0.00024290859564751974
253.935,0.0004986732446844762
253.936,0.0013973779257552513
253.937,0.0021736864633324963
253.93800000000002,0.0025868534561332523
253.93900000000002,0.0025186206514257133
253.94,0.002016317229974913
253.941,0.0012813030955677505
253.942,0.0006062579938661571
253.943,0.00028094811278554983
253.94400000000002,0.0004958636523714483
253.94500000000002,0.0012737057759189272
253.946,0.002450196483147942
253.947,0.0037109027502360108
253.948,0.004674259080185452
253.949,0.004997591809896208
253.95000000000002,0.004476416727678756
253.95100000000002,0.0031091993315261095
253.952,0.001109304650628472
253.953,0.0011398409245285805
253.954,0.003175275149085064
253.955,0.004567710952984039
253.95600000000002,0.0050286385686505244
253.95700000000002,0.004484093218283164
253.958,0.0030961917416478277
253.959,0.0012264479437835239
253.96,0.0006508062574550746
253.961,0.0020642381557387157
253.96200000000002,0.0026624660722990214
253.96300000000002,0.002303256641250297
253.964,0.0010922571712994966
253.965,0.0006395794196472683
253.966,0.002415799305573856
253.967,0.003732923460492968
253.96800000000002,0.004188597812646038
253.96900000000002,0.0035868843632657884
253.97,0.0019928502326162023
253.971,0.00027917651711800186
253.972,0.0027423463349820817
253.973,0.004860241811347773
253.97400000000002,0.006184108172241751
253.97500000000002,0.006467483684503285
253.976,0.005726510976670006
253.977,0.004228561089916485
253.978,0.0024116875357252693
253.979,0.0007573156366974159
253.98000000000002,0.0003474055874570469
253.98100000000002,0.0007174408457804114
253.982,0.0004158717256238097
253.983,0.0002759859555862462
253.984,0.0009556978823510642
253.985,0.0012347648376108467
253.98600000000002,0.0008701582123891956
253.98700000000002,0.00014878855439983204
253.988,0.001586200962886005
253.989,0.0030242250748701545
253.99,0.00398800344294267
253.991,0.004093627477209508
253.99200000000002,0.0031738257495387986
253.99300000000002,0.001342265129982096
253.994,0.0010243596476019784
253.995,0.0033823912732193428
253.996,0.005167627267509657
253.997,0.005949067104629131
253.99800000000002,0.005544979546433446
253.99900000000002,0.004068045826510923
254.0,0.001888035495149911
254.001,0.00047478962663572696
254.002,0.0024923097027654264
254.00300000000001,0.0037647333939003847
254.00400000000002,0.004111897974016245
254.00500000000002,0.003596810172359862
254.006,0.0024802576996337798
254.007,0.0011260359848482952
254.008,0.0001104300244901765
254.00900000000001,0.0009752932500044097
254.01000000000002,0.0013656967529839924
254.01100000000002,0.0013263231824543547
254.012,0.0010020010529469992
254.013,0.0005686138370267969
254.014,0.00016908279519441306
254.01500000000001,0.00012395480528317007
254.01600000000002,0.00030944285271496065
254.017,0.0004284002866546626
254.018,0.0005202327817816795
254.019,0.000585741761472577
254.02,0.0005736237903845812
254.02100000000002,0.0003967315673304548
254.02200000000002,2.8366038696881415e-05
254.023,0.0007350056220432316
254.024,0.0016732062230421733
254.025,0.002705227001427654
254.026,0.0036349620475963117
254.02700000000002,0.004263366851484931
254.02800000000002,0.0044517328823061985
254.029,0.0041706125608364265
254.03,0.0035161274668032514
254.031,0.0026859898192003848
254.032,0.0019211654104635697
254.03300000000002,0.0014309706750910251
254.03400000000002,0.0013254063825331734
254.035,0.0015766193999961723
254.036,0.002022233549502119
254.037,0.0024100436327943674
254.038,0.0024706854714517694
254.03900000000002,0.0019965885405060393
254.04000000000002,0.0009043076111528795
254.041,0.0007367456591011113
254.042,0.0027154296316461417
254.043,0.004724381837558853
254.044,0.006425516104754163
254.04500000000002,0.007517557109504014
254.04600000000002,0.007789932927772815
254.047,0.007153842234310006
254.048,0.005649135932981201
254.049,0.0034318173587401675
254.05,0.0007495589060557943
254.05100000000002,0.0020885140253961237
254.05200000000002,0.004744909102355744
254.053,0.006890085232176047
254.054,0.00824324983345049
254.055,0.00861651252578935
254.056,0.007956493874380705
254.05700000000002,0.006372643509488071
254.05800000000002,0.004139504945687693
254.059,0.0016631400458552957
254.06,0.0005897658426466684
254.061,0.00218989340003431
254.062,0.0028488266292732165
254.06300000000002,0.0025000333943331335
254.06400000000002,0.0013307558059753501
254.065,0.00025110460632800044
254.066,0.001713554477668887
254.067,0.0025395678883763694
254.068,0.002372514472896831
254.06900000000002,0.001126361051078179
254.07000000000002,0.0009739800641345975
254.071,0.0034384880180829513
254.072,0.005635685898963978
254.073,0.0069619975283789284
254.074,0.007009458714918203
254.07500000000002,0.005682949802774566
254.07600000000002,0.003231510862226835
254.077,0.00018300029238987225
254.078,0.002799952529558308
254.079,0.005100906796085228
254.08,0.006314255060079143
254.08100000000002,0.006345120405264394
254.08200000000002,0.005415841996430342
254.083,0.003979096009370926
254.084,0.0025663876782382015
254.085,0.0016202569392163762
254.086,0.0013628262781372215
254.08700000000002,0.0017409120859216182
254.08800000000002,0.002462804072407686
254.089,0.003112086797719434
254.09,0.0032991443102316216
254.091,0.0027992657015173715
254.092,0.0016313511547846565
254.09300000000002,5.1420996150492334e-05
254.09400000000002,0.0015361869930331634
254.095,0.0027193347224384267
254.096,0.0032221520022373603
254.097,0.003002955460354027
254.098,0.002271442901474223
254.09900000000002,0.001417508093467432
254.10000000000002,0.0008739244264098853
254.101,0.000958138435105647
254.102,0.0017467619869259794
254.103,0.0030270437996750277
254.104,0.004345386076761327
254.10500000000002,0.005141522428473546
254.10600000000002,0.004928430902791929
254.107,0.0034617547515439447
254.108,0.0008439293798394332
254.109,0.0024728057608136415
254.11,0.005789614042922878
254.11100000000002,0.008342758028010915
254.11200000000002,0.009511459119472328
254.113,0.008990999793284753
254.114,0.0068802553417680965
254.115,0.003658438270691971
254.116,5.8853696513093126e-05
254.11700000000002,0.003122416729258917
254.11800000000002,0.005227012980193215
254.119,0.0058875197963823974
254.12,0.005093450754608421
254.121,0.003157865129222722
254.122,0.0006025357564570958
254.12300000000002,0.0019976743794060457
254.12400000000002,0.004161948071359923
254.125,0.005600352493980935
254.126,0.006238770746712364
254.127,0.006175845890860625
254.12800000000001,0.00559787407193743
254.12900000000002,0.004688831039357626
254.13000000000002,0.003569939553764301
254.131,0.0022881310445043647
254.132,0.0008514357467663005
254.133,0.0007101724393913115
254.13400000000001,0.0022903983660543426
254.13500000000002,0.0036881792035377975
254.13600000000002,0.004640186342959967
254.137,0.004898215127360648
254.138,0.004325588189006629
254.139,0.0029757596133580372
254.14000000000001,0.0011188142718748548
254.14100000000002,0.0008026829737710038
254.142,0.0022830423806305673
254.143,0.0028985531257370877
254.144,0.002443446572372344
254.145,0.0010109328336267058
254.14600000000002,0.0010116916001887922
254.14700000000002,0.0030386446689534903
254.148,0.004447437690530779
254.149,0.0047596399950271245
254.15,0.0037852653934647073
254.151,0.001684972548079016
254.15200000000002,0.0010710339617553807
254.15300000000002,0.0038363728448848706
254.154,0.005973845125077364
254.155,0.007035736039583386
254.156,0.006883380380958216
254.157,0.005709584523204482
254.15800000000002,0.00395856809292178
254.15900000000002,0.0021709206451073805
254.16,0.000804977848689062
254.161,9.318659370398655e-05
254.162,1.991653246026121e-05
254.163,0.00016134536554931493
254.16400000000002,0.00020986580323142977
254.16500000000002,0.0002540714084278071
254.166,0.0014062595270350588
254.167,0.003129312184782019
254.168,0.005022636216979977
254.169,0.00651138014330514
254.17000000000002,0.007021809728790366
254.17100000000002,0.006168590384406208
254.172,0.003894817516217293
254.173,0.0005197153530980081
254.174,0.0033228849631224237
254.175,0.006838897588496408
254.17600000000002,0.00927686914433634
254.17700000000002,0.010121114724892704
254.178,0.009220694724276484
254.179,0.0068198318240637506
254.18,0.003484821362035778
254.181,4.793353266962689e-05
254.18200000000002,0.0030573393374257025
254.18300000000002,0.005004776641659189
254.184,0.00564044598259614
254.185,0.005027005192171126
254.186,0.0034836791646744255
254.187,0.0014755800109618586
254.18800000000002,0.0005150951831766596
254.18900000000002,0.0020995511440098113
254.19,0.003048982121291695
254.191,0.00330844712005098
254.192,0.0029658785318761754
254.193,0.0021953951744042776
254.19400000000002,0.0011973063319796788
254.19500000000002,0.0001526162218338906
254.196,0.0007996124242293257
254.197,0.0015638288631574196
254.198,0.0020773692908472668
254.199,0.002298456635068267
254.20000000000002,0.0022006861154327613
254.20100000000002,0.0017761074002142702
254.202,0.0010434274376373513
254.203,5.492819420079057e-05
254.204,0.0011035440453511923
254.205,0.0023214488557866198
254.20600000000002,0.0034786187856442703
254.20700000000002,0.004460779151863699
254.208,0.005169810197284798
254.209,0.005526254952730053
254.21,0.005466428635129886
254.211,0.004940488525940898
254.21200000000002,0.00391865835466972
254.21300000000002,0.002409432167158338
254.214,0.00048688539211169473
254.215,0.0016831734845500987
254.216,0.0038331208350560536
254.217,0.00561344053569509
254.21800000000002,0.0066490251325970525
254.21900000000002,0.006625714761426408
254.22,0.005387435886816833
254.221,0.0030149074346960563
254.222,0.00014401817782722673
254.223,0.0035127838127787287
254.22400000000002,0.006395354881579759
254.22500000000002,0.008136027131608325
254.226,0.00829049898749268
254.227,0.006759779319420123
254.228,0.003843642448950477
254.229,0.00018971845678637496
254.23000000000002,0.0033567980279837414
254.23100000000002,0.005967693679918655
254.232,0.007053418205747204
254.233,0.006428494857462626
254.234,0.0043697921847160965
254.235,0.0015455508772151644
254.23600000000002,0.0011698201123385597
254.23700000000002,0.0029456131381027893
254.238,0.0032385182516187646
254.239,0.0019584218509929685
254.24,0.0004947869629455089
254.241,0.0033378055019287374
254.24200000000002,0.005626140877410849
254.24300000000002,0.006529184345848056
254.244,0.005578275625754807
254.245,0.0028143647322892893
254.246,0.001209564994115534
254.247,0.0055737363887714934
254.24800000000002,0.009243243598588018
254.24900000000002,0.011353183308085539
254.25,0.011444224162744598
254.251,0.009580380875680214
254.252,0.006316050533970944
254.25300000000001,0.002524482785461552
254.25400000000002,0.0008589494231041977
254.25500000000002,0.0031006208673087406
254.256,0.003860942173142946
254.257,0.0032597892600874094
254.258,0.0017999632148463624
254.25900000000001,0.00017784105767515416
254.26000000000002,0.0009551291066518237
254.26100000000002,0.0012025140469165325
254.262,0.0005379175537341732
254.263,0.0007095501177749879
254.264,0.0019908759427943227
254.26500000000001,0.0027454743546183177
254.26600000000002,0.0026101003885809428
254.267,0.0015563052417592496
254.268,9.150235344797528e-05
254.269,0.0017649780719058098
254.27,0.002851942025757557
254.27100000000002,0.0029198169422726718
254.27200000000002,0.0018848016765504977
254.273,6.54454572995398e-05
254.274,0.0019032030655690342
254.275,0.0032719146564989306
254.276,0.00343242655119294
254.27700000000002,0.0021409960124380996
254.27800000000002,0.00036732382896102555
254.279,0.003418374658203902
254.28,0.006087984609589991
254.281,0.007486093812660382
254.282,0.007047626773441589
254.28300000000002,0.004735545491564945
254.28400000000002,0.0010859537898992358
254.285,0.0029266206299269756
254.286,0.006168482335521127
254.287,0.007687520115357797
254.288,0.007009852840242876
254.28900000000002,0.004297472463893331
254.29000000000002,0.000313443146624706
254.291,0.0037991329659197316
254.292,0.006859086063286492
254.293,0.008005276505469748
254.294,0.0069591616453999715
254.29500000000002,0.0041087724368532265
254.29600000000002,0.0003864785583560789
254.297,0.00302221244659677
254.298,0.0050479735644318275
254.299,0.0050692078440177
254.3,0.003101718295745458
254.30100000000002,0.0002126023695330792
254.30200000000002,0.0038132639581089783
254.303,0.0065577889932202866
254.304,0.007579791502357374
254.305,0.006555006755836996
254.306,0.003792359940403889
254.30700000000002,0.00012413654226961217
254.30800000000002,0.0033659888365970953
254.309,0.00568696041519485
254.31,0.006244837079296641
254.311,0.005011318032636979
254.312,0.002506047045260811
254.31300000000002,0.0003958241527765006
254.31400000000002,0.0027626001884269924
254.315,0.003910199539510525
254.316,0.0036112027497701474
254.317,0.0021427299970303
254.318,0.0001625550377455224
254.31900000000002,0.0015393242049109618
254.32000000000002,0.0023256584643870574
254.321,0.0019350916702109524
254.322,0.0005681050615564499
254.323,0.0011915389375530964
254.324,0.0025906158042215514
254.32500000000002,0.002980485515671578
254.32600000000002,0.002056561549590959
254.327,1.9062305595697634e-05
254.328,0.0026539419423170624
254.329,0.005008841706977143
254.33,0.006267542335502139
254.33100000000002,0.00590367137672648
254.33200000000002,0.0038571437217223142
254.333,0.0005634844006756155
254.334,0.003171947823533458
254.335,0.006412574094687796
254.336,0.008364658703872338
254.33700000000002,0.00860052178144361
254.33800000000002,0.007163931046202697
254.339,0.0045308595357914545
254.34,0.00144574583526142
254.341,0.001308560319014721
254.342,0.0031318617049591727
254.34300000000002,0.0037516515532257035
254.34400000000002,0.0032545214018691038
254.345,0.0020058529154648426
254.346,0.0004955091916931082
254.347,0.000832368999304934
254.348,0.0017080908793527946
254.34900000000002,0.0020862792314435287
254.35000000000002,0.002110359310288116
254.351,0.002015402093380778
254.352,0.0020121691878958996
254.353,0.0021973841133018104
254.354,0.002521091615374209
254.35500000000002,0.0028178547107921273
254.35600000000002,0.0028839972316264126
254.357,0.0025671393401412042
254.358,0.0018321565621431165
254.359,0.0007792368757653174
254.36,0.0003903191393528907
254.36100000000002,0.001444569630693794
254.36200000000002,0.0021987010220040674
254.363,0.002570005960725124
254.364,0.0025905168678940285
254.365,0.0023752952442750988
254.366,0.0020618525083669027
254.36700000000002,0.0017468321202431594
254.36800000000002,0.0014460730984699776
254.369,0.0010939098731215166
254.37,0.0005813793058008175
254.371,0.00018263850841161724
254.372,0.0012123916022826649
254.37300000000002,0.0024125760513109456
254.37400000000002,0.0035861317915913135
254.375,0.004481348569744877
254.376,0.004862585380457833
254.377,0.004580571722113683
254.37800000000001,0.0036189802707225823
254.37900000000002,0.002103035139005784
254.38000000000002,0.0002695090460956594
254.381,0.0015897770615959435
254.382,0.0031916012123941254
254.383,0.004313303678926447
254.38400000000001,0.004821529009415927
254.38500000000002,0.004676642724107508
254.38600000000002,0.0039206366857436675
254.387,0.0026600653214310464
254.388,0.001052939736528887
254.389,0.0006986398410704271
254.39000000000001,0.002356072648639222
254.39100000000002,0.0036620701783858416
254.392,0.004376375859603568
254.393,0.004328672452640846
254.394,0.0034768038108237993
254.395,0.0019496666325868176
254.39600000000002,5.2558298801854435e-05
254.39700000000002,0.0017792677092432015
254.398,0.0030770489315695513
254.399,0.003464168687294076
254.4,0.0027753410033114732
254.401,0.0011293401219861297
254.40200000000002,0.0010752414511140246
254.40300000000002,0.003250100702594397
254.404,0.004774635535277176
254.405,0.005177894752153738
254.406,0.004290113378918612
254.407,0.0023139487008355998
254.40800000000002,0.00021253555783450558
254.40900000000002,0.0025565327648916
254.41,0.003997243441826946
254.411,0.004038653938219236
254.412,0.002564045596429505
254.413,0.00011607073053056033
254.41400000000002,0.0033393355532344467
254.41500000000002,0.0062697012126158224
254.416,0.008126672565821136
254.417,0.008398749253882076
254.418,0.006979653700621081
254.419,0.004189994130109032
254.42000000000002,0.0006817251536410215
254.42100000000002,0.002742991871671314
254.422,0.005343717929246332
254.423,0.0066240423380212275
254.424,0.006436503190281923
254.425,0.004988100558879748
254.42600000000002,0.002754303347253984
254.42700000000002,0.0003340805843035447
254.428,0.0017090712389528433
254.429,0.0029771816141903242
254.43,0.0033099850471813674
254.431,0.0027901456407763573
254.43200000000002,0.001691244841807864
254.43300000000002,0.0003905369010194451
254.434,0.0007279842917218185
254.435,0.0013586728253088128
254.436,0.0013339662842457858
254.437,0.0006533126219925776
254.43800000000002,0.0005187761792227155
254.43900000000002,0.0018832950047650622
254.44,0.003062859053523586
254.441,0.0036785441825644997
254.442,0.0034384507165162526
254.443,0.002222801986398716
254.44400000000002,0.00014482515148414566
254.44500000000002,0.0024345290834072325
254.446,0.004953727203633853
254.447,0.0067611249806380485
254.448,0.007270957371748104
254.449,0.00612863998159823
254.45000000000002,0.0033387598982348777
254.45100000000002,0.000687778054897708
254.452,0.005192908125057875
254.453,0.009233055507818942
254.454,0.011907431658596557
254.455,0.012592819203772133
254.45600000000002,0.011117167445484934
254.45700000000002,0.007817719487651883
254.458,0.0034610491857223133
254.459,0.000956804109912824
254.46,0.004474776546791318
254.461,0.006419326702161132
254.46200000000002,0.00657100961088226
254.46300000000002,0.005196864501916688
254.464,0.002941815222091805
254.465,0.0006159207769523427
254.466,0.0010541024077795331
254.467,0.0016314974694502386
254.46800000000002,0.0010727250558653194
254.46900000000002,0.0002984929684003609
254.47,0.0019293017990312138
254.471,0.003235431663377542
254.472,0.0037895673421924694
254.473,0.003439195180591394
254.47400000000002,0.002321040484182662
254.47500000000002,0.0007773001001655762
254.476,0.0007871152982528429
254.477,0.00204919053032413
254.478,0.002861096785581082
254.479,0.0032624671025890495
254.48000000000002,0.0034153886899778133
254.48100000000002,0.0034961957408795635
254.482,0.003593839704137508
254.483,0.0036598814134249443
254.484,0.003532182504363716
254.485,0.0030224485875817693
254.48600000000002,0.0020296818179463038
254.48700000000002,0.000628703756135113
254.488,0.0009092683733066234
254.489,0.0021810252222732793
254.49,0.002783429346600249
254.491,0.0024664845066078916
254.49200000000002,0.0012483127950072045
254.49300000000002,0.0005568804179222947
254.494,0.0024168072234933063
254.495,0.003744849663408159
254.496,0.00409554784559768
254.497,0.003322509367201113
254.49800000000002,0.0016393101368065424
254.49900000000002,0.00044351164811939653
254.5,0.002288214944134638
254.501,0.0033495044937947986
254.502,0.0033666859215615366
254.50300000000001,0.0024579187176311844
254.50400000000002,0.0010790954903696106
254.50500000000002,0.0001423290913828959
254.506,0.000642478100073323
254.507,0.00014203499280438772
254.508,0.0012280095193579965
254.50900000000001,0.0029456393795958555
254.51000000000002,0.004261781379816122
254.51100000000002,0.0044570491399575606
254.512,0.0031046834911063227
254.513,0.00024803157180490834
254.514,0.0035721641961508625
254.51500000000001,0.0074553369347743455
254.51600000000002,0.010402169078474542
254.517,0.011615271155395988
254.518,0.01074139263757302
254.519,0.007976311711875928
254.52,0.003999539559207507
254.52100000000002,0.00023722026899582736
254.52200000000002,0.0037959420234077836
254.523,0.006017830206422919
254.524,0.006683846629080598
254.525,0.0060240326189625335
254.526,0.004582546454168089
254.52700000000002,0.0029941441476105425
254.52800000000002,0.0017553919787725628
254.529,0.0010711458513796234
254.53,0.0008256721233071395
254.531,0.0006802054439330774
254.532,0.0002523203675881454
254.53300000000002,0.000696022803709778
254.53400000000002,0.002135625774708741
254.535,0.003759616408212783
254.536,0.005089008298922831
254.537,0.005653580164546966
254.538,0.005178866728265773
254.53900000000002,0.003707564245036657
254.54000000000002,0.0016078431849452352
254.541,0.000537221476181499
254.542,0.0021211044064617483
254.543,0.0027183570219068776
254.544,0.002229326080733788
254.54500000000002,0.0009134974644741514
254.54600000000002,0.0007003608171254535
254.547,0.0019954488777023873
254.548,0.0024759740788739856
254.549,0.0019316192400607324
254.55,0.0005020674398577081
254.55100000000002,0.001377675487262719
254.55200000000002,0.0031285236778724385
254.553,0.004219891195617094
254.554,0.004336416912164119
254.555,0.0034638510855003525
254.556,0.0018702026300177802
254.55700000000002,3.753429451783914e-06
254.55800000000002,0.001699623214191251
254.559,0.0028843335715953698
254.56,0.0034319704434447344
254.561,0.003422027116775056
254.562,0.0030646669380789615
254.56300000000002,0.0025905363422825214
254.56400000000002,0.0021533956542448274
254.565,0.0017848835729201435
254.566,0.001416340530910649
254.567,0.0009529627297926666
254.568,0.0003627122149510015
254.56900000000002,0.00026438795753524547
254.57000000000002,0.0007188672287084703
254.571,0.0007423707947111928
254.572,0.000142201915492348
254.573,0.001095780181136213
254.574,0.0027457060222500045
254.57500000000002,0.004365663546892726
254.57600000000002,0.005410446470822144
254.577,0.005402135733293955
254.578,0.004102523468427915
254.579,0.0016255591790359765
254.58,0.001555472445219721
254.58100000000002,0.004717441359894021
254.58200000000002,0.00708517694589557
254.583,0.008057577661176754
254.584,0.007389869469899445
254.585,0.005271971978726142
254.586,0.0022756224197206035
254.58700000000002,0.0008147119686846105
254.58800000000002,0.0032343350096385092
254.589,0.004461018477442549
254.59,0.004358373685656322
254.591,0.0031967174509758512
254.592,0.0015481510176115158
254.59300000000002,9.257678443612217e-05
254.59400000000002,0.0006016437014032949
254.595,0.00025311430799628535
254.596,0.0010535731174870968
254.597,0.0029050296006031175
254.598,0.0046951293147584955
254.59900000000002,0.005813189109856253
254.60000000000002,0.005824772638286097
254.601,0.004592362006169465
254.602,0.002305578262527365
254.603,0.0005798215382078912
254.604,0.0034683843383982796
254.60500000000002,0.005775526043354181
254.60600000000002,0.007059887285778599
254.607,0.007106845205274972
254.608,0.00595118286087907
254.609,0.0038452560314329158
254.61,0.0011911413971100084
254.61100000000002,0.001541392313296679
254.61200000000002,0.0038934983682919213
254.613,0.0054828280416678215
254.614,0.006053565162744263
254.615,0.00551152768634844
254.616,0.003943571159746117
254.61700000000002,0.001616845152366395
254.61800000000002,0.001048962992980975
254.619,0.0035413136479905977
254.62,0.0053440757638391935
254.621,0.006043309943876468
254.622,0.005426545287310699
254.62300000000002,0.003548018630822822
254.62400000000002,0.000736590667268023
254.625,0.0024637548953993574
254.626,0.005412118391723257
254.627,0.0075203789548682655
254.62800000000001,0.008395388665331458
254.62900000000002,0.007934237665937743
254.63000000000002,0.006344987020110981
254.631,0.0040861142312897236
254.632,0.0017413612009129084
254.633,0.00013472415102224546
254.63400000000001,0.0011573976923930358
254.63500000000002,0.0012005320242760526
254.63600000000002,0.0004119874625466929
254.637,0.0008442071242136584
254.638,0.0020981686987739177
254.639,0.0029034367335438907
254.64000000000001,0.0029496980015532824
254.64100000000002,0.0021318055095587572
254.642,0.0005628721576817914
254.643,0.0014646732871457138
254.644,0.0035538956465821364
254.645,0.0052923091481032304
254.64600000000002,0.006334583272735543
254.64700000000002,0.006464582203943148
254.648,0.005629694606384369
254.649,0.003946390024304629
254.65,0.001679308169004065
254.651,0.0008024787841679247
254.65200000000002,0.0030874170208747527
254.65300000000002,0.004794839660621561
254.654,0.005649226326922568
254.655,0.005540880176872701
254.656,0.004556914136018153
254.657,0.0029695890467065357
254.65800000000002,0.0011779441160786903
254.65900000000002,0.00038821553490183324
254.66,0.001379494343725339
254.661,0.0016221876480902967
254.662,0.0011671966071214032
254.663,0.00027337815082381623
254.66400000000002,0.0006743006215952144
254.66500000000002,0.0012895471036675006
254.666,0.001313708962724764
254.667,0.0007056969876084529
254.668,0.0003398942517601316
254.669,0.0014562167464638005
254.67000000000002,0.0022306412430075943
254.67100000000002,0.0023521678802724357
254.672,0.0017277536223499227
254.673,0.0005239350229518739
254.674,0.0008849764685402346
254.675,0.002047540309575564
254.67600000000002,0.0026001467832413635
254.67700000000002,0.0024065100708074694
254.678,0.001617940657065563
254.679,0.0006270496471161228
254.68,7.42179175209445e-05
254.681,8.471788574765771e-05
254.68200000000002,0.0007363567338460333
254.68300000000002,0.0021863706337623854
254.684,0.0037608316860700056
254.685,0.004814341320782767
254.686,0.004791019694638759
254.687,0.003445244825889909
254.68800000000002,0.0009711869798199094
254.68900000000002,0.0020133503681568376
254.69,0.004634896338564762
254.691,0.0060366493650856135
254.692,0.0056678777293639945
254.693,0.0034917576987693695
254.69400000000002,3.564789493732511e-05
254.69500000000002,0.003742040372293587
254.696,0.00673290480163164
254.697,0.008020523160584388
254.698,0.00717272158893681
254.699,0.00438689048416949
254.70000000000002,0.00043778324123427406
254.70100000000002,0.0035580418859466187
254.702,0.006486044148675357
254.703,0.00757442577689766
254.704,0.006621405078138788
254.705,0.004036813604125197
254.70600000000002,0.0006880842054170786
254.70700000000002,0.0023941962385876955
254.708,0.004350366268411918
254.709,0.004753903738509826
254.71,0.0037177398552864474
254.711,0.0018161699374657152
254.71200000000002,0.00014231891959309089
254.71300000000002,0.0014062758284865097
254.714,0.001533041518257134
254.715,0.0005159672487233676
254.716,0.0012500335315000762
254.717,0.0031422370693923373
254.71800000000002,0.004551494616812539
254.71900000000002,0.005098144134433865
254.72,0.004743005305857412
254.721,0.0037570183924821227
254.722,0.0025688898968977436
254.723,0.001557542433553183
254.72400000000002,0.0008772830059370371
254.72500000000002,0.00039033260708266524
254.726,0.0002614552161307107
254.727,0.0014701782310121703
254.728,0.003433715259101124
254.729,0.005980516163031257
254.73000000000002,0.008527931060438821
254.73100000000002,0.010208574289187944
254.732,0.01013713821975616
254.733,0.007734346311694963
254.734,0.0029961070719867664
254.735,0.003394015901294401
254.73600000000002,0.010164109120028256
254.73700000000002,0.01575159273530823
254.738,0.018718756339561136
254.739,0.018162927951039833
254.74,0.013994844289649531
254.741,0.006996789693372276
254.74200000000002,0.0013609425381387015
254.74300000000002,0.009292717182856052
254.744,0.015149979315251643
254.745,0.017822555174605938
254.746,0.0169778516728409
254.747,0.013080499949835345
254.74800000000002,0.007203535538260219
254.74900000000002,0.0007029818198426927
254.75,0.005138405059927854
254.751,0.009394571307577496
254.752,0.0116377169392711
254.75300000000001,0.01192177772146991
254.75400000000002,0.010643425649562974
254.75500000000002,0.008349367951205285
254.756,0.005563802636950106
254.757,0.002688138672398149
254.758,1.2577149139480107e-05
254.75900000000001,0.0023597717782961078
254.76000000000002,0.004194313895694855
254.76100000000002,0.005339203200324999
254.762,0.0056183583784248006
254.763,0.004926238365220354
254.764,0.0033142928540375993
254.76500000000001,0.001046934423699421
254.76600000000002,0.0014121299277953113
254.767,0.0034956414192539005
254.768,0.0046883324047322684
254.769,0.004691475568174007
254.77,0.0035354505184956044
254.77100000000002,0.0015927297804294123
254.77200000000002,0.0005231940199694228
254.773,0.002146296014936661
254.774,0.0027734584001687895
254.775,0.0022330200282410584
254.776,0.0007455974974626831
254.77700000000002,0.0011479744700271582
254.77800000000002,0.00277057238460687
254.779,0.0035433482901044023
