Czas,AbsSum,Sum
10.076,0.030953131266098877,-0.030953131266098877
10.077,0.03971651813614023,-0.03971651813614023
10.078,0.04239092380636918,-0.04239092380636918
10.078999999999999,0.03842679366886677,-0.03842679366886677
10.08,0.028737529184327898,-0.028737529184327898
10.081,0.015549687813261758,-0.015549687813261758
10.081999999999999,0.0018518551208584614,-0.0018518551208584614
10.083,0.00941159459562592,0.00941159459562592
10.084,0.016159180471396143,0.016159180471396143
10.084999999999999,0.017742287860502574,0.017742287860502574
10.086,0.015075371389199196,0.015075371389199196
10.087,0.01027374527545253,0.01027374527545253
10.088,0.005908017486706747,0.005908017486706747
10.089,0.004114440059968593,0.004114440059968593
10.09,0.005853626118366821,0.005853626118366821
10.091,0.010566048471358442,0.010566048471358442
10.092,0.01634430150833633,0.01634430150833633
10.093,0.020571302385550223,0.020571302385550223
10.094,0.020817620744162456,0.020817620744162456
10.094999999999999,0.015702797551611324,0.015702797551611324
10.096,0.005435105534156253,0.005435105534156253
10.097,0.008151145266654013,-0.008151145266654013
10.097999999999999,0.022077063690168982,-0.022077063690168982
10.099,0.033066531685888315,-0.033066531685888315
10.1,0.03848942638689399,-0.03848942638689399
10.100999999999999,0.03710396340228421,-0.03710396340228421
10.102,0.029372480518300662,-0.029372480518300662
10.103,0.017267952237513255,-0.017267952237513255
10.104,0.0036537425465610535,-0.0036537425465610535
10.105,0.008549344066639361,0.008549344066639361
10.106,0.017139528762483154,0.017139528762483154
10.107,0.021121353544358526,0.021121353544358526
10.108,0.020782400824345026,0.020782400824345026
10.109,0.01738214680476079,0.01738214680476079
10.11,0.012601117835388647,0.012601117835388647
10.110999999999999,0.007962856246289594,0.007962856246289594
10.112,0.0044257591139471334,0.0044257591139471334
10.113,0.0022575760025836233,0.0022575760025836233
10.113999999999999,0.0011876802524326457,0.0011876802524326457
10.115,0.0007271745326391339,0.0007271745326391339
10.116,0.000493583582807213,0.000493583582807213
10.116999999999999,0.0003930931914369519,0.0003930931914369519
10.118,0.0005892556394641736,0.0005892556394641736
10.119,0.001289857426902752,0.001289857426902752
10.12,0.002470235833153068,0.002470235833153068
10.121,0.0036855698918777297,0.0036855698918777297
10.122,0.004091463625185883,0.004091463625185883
10.123,0.0027036147605228053,0.0027036147605228053
10.123999999999999,0.0011814697763192345,-0.0011814697763192345
10.125,0.007567309123357839,-0.007567309123357839
10.126,0.015525894480669301,-0.015525894480669301
10.126999999999999,0.023287910941412127,-0.023287910941412127
10.128,0.02867652047842147,-0.02867652047842147
10.129,0.029773240925364923,-0.029773240925364923
10.129999999999999,0.025600666142561446,-0.025600666142561446
10.131,0.016574812494033316,-0.016574812494033316
10.132,0.004537670246472747,-0.004537670246472747
10.133,0.007686485159143801,0.007686485159143801
10.134,0.017102695160099053,0.017102695160099053
10.135,0.021477666047093943,0.021477666047093943
10.136,0.02008449459232582,0.02008449459232582
10.137,0.01399450698862979,0.01399450698862979
10.138,0.005789226299086562,0.005789226299086562
10.139,0.001244310797127757,-0.001244310797127757
10.139999999999999,0.004193009643388265,-0.004193009643388265
10.141,0.0015251195305887315,-0.0015251195305887315
10.142,0.006313396299889967,0.006313396299889967
10.142999999999999,0.016930172240667198,0.016930172240667198
10.144,0.026662675579415526,0.026662675579415526
10.145,0.031704796142804206,0.031704796142804206
10.145999999999999,0.029335492668968524,0.029335492668968524
10.147,0.01885800933789433,0.01885800933789433
10.148,0.0019419148281877826,0.0019419148281877826
10.149,0.017754774050040157,-0.017754774050040157
10.15,0.035579320911476836,-0.035579320911476836
10.151,0.04719480503118132,-0.04719480503118132
10.152,0.04980850965498449,-0.04980850965498449
10.153,0.042946302737452945,-0.042946302737452945
10.154,0.028545462654113847,-0.028545462654113847
10.155,0.01035208886138522,-0.01035208886138522
10.155999999999999,0.0071773199642263495,0.0071773199642263495
10.157,0.02012544326430601,0.02012544326430601
10.158,0.02613769359892279,0.02613769359892279
10.158999999999999,0.024929143891701075,0.024929143891701075
10.16,0.01815758125865019,0.01815758125865019
10.161,0.008746449118298496,0.008746449118298496
10.161999999999999,9.545260808258894e-05,-9.545260808258894e-05
10.163,0.005835547468555677,-0.005835547468555677
10.164,0.007270162151883473,-0.007270162151883473
10.165,0.004699663793441865,-0.004699663793441865
10.166,0.00037683261190181975,0.00037683261190181975
10.167,0.005897339944877069,0.005897339944877069
10.168,0.009963011746452444,0.009963011746452444
10.169,0.011410365256401971,0.011410365256401971
10.17,0.010063361852905598,0.010063361852905598
10.171,0.006624593965614507,0.006624593965614507
10.171999999999999,0.002291569431302436,0.002291569431302436
10.173,0.0017316862596261457,-0.0017316862596261457
10.174,0.004641262676182004,-0.004641262676182004
10.174999999999999,0.006223231930690929,-0.006223231930690929
10.176,0.0067866200821556635,-0.0067866200821556635
10.177,0.00689971830928005,-0.00689971830928005
10.177999999999999,0.007058730645427197,-0.007058730645427197
10.179,0.007431962533162389,-0.007431962533162389
10.18,0.007781064965257169,-0.007781064965257169
10.181,0.007582712220859506,-0.007582712220859506
10.182,0.006291398513018077,-0.006291398513018077
10.183,0.0036286470067000295,-0.0036286470067000295
10.184,0.00022418799242622975,0.00022418799242622975
10.185,0.004611976306628391,0.004611976306628391
10.186,0.008581533346397663,0.008581533346397663
10.187,0.011183329733115175,0.011183329733115175
10.187999999999999,0.011786746145150719,0.011786746145150719
10.189,0.01029136684158603,0.01029136684158603
10.19,0.007156426835588053,0.007156426835588053
10.190999999999999,0.00323895796871536,0.00323895796871536
10.192,0.0004979046454804078,-0.0004979046454804078
10.193,0.0032982449268828358,-0.0032982449268828358
10.193999999999999,0.004834547984750701,-0.004834547984750701
10.195,0.005259887754795478,-0.005259887754795478
10.196,0.0050790744413816745,-0.0050790744413816745
10.197,0.0048947455944254375,-0.0048947455944254375
10.198,0.005130229728407516,-0.005130229728407516
10.199,0.005837952934458905,-0.005837952934458905
10.2,0.006668169383965281,-0.006668169383965281
10.201,0.007011010602500962,-0.007011010602500962
10.202,0.006258460510892744,-0.006258460510892744
10.203,0.004086453279078535,-0.004086453279078535
10.203999999999999,0.0006478266027204751,-0.0006478266027204751
10.205,0.003402341158426359,0.003402341158426359
10.206,0.007067731575648754,0.007067731575648754
10.206999999999999,0.009309744370743776,0.009309744370743776
10.208,0.009385557379091115,0.009385557379091115
10.209,0.0071103566972917,0.0071103566972917
10.209999999999999,0.002952545382900277,0.002952545382900277
10.211,0.0020742670891124673,-0.0020742670891124673
10.212,0.006691642104694109,-0.006691642104694109
10.213,0.009721980358591648,-0.009721980358591648
10.214,0.010425596175385759,-0.010425596175385759
10.215,0.008706014754358461,-0.008706014754358461
10.216,0.00512381019809855,-0.00512381019809855
10.217,0.0007202332107856488,-0.0007202332107856488
10.218,0.003290120082752435,0.003290120082752435
10.219,0.005861590367042296,0.005861590367042296
10.219999999999999,0.006393531965300268,0.006393531965300268
10.221,0.004865030235286434,0.004865030235286434
10.222,0.0017999256431979224,0.0017999256431979224
10.222999999999999,0.001914627439379945,-0.001914627439379945
10.224,0.005292683936607135,-0.005292683936607135
10.225,0.007516034690893875,-0.007516034690893875
10.225999999999999,0.008129392988734763,-0.008129392988734763
10.227,0.007118910712419099,-0.007118910712419099
10.228,0.004866299677894764,-0.004866299677894764
10.229,0.0020058537195766835,-0.0020058537195766835
10.23,0.0007656045972679528,0.0007656045972679528
10.231,0.00287003273174868,0.00287003273174868
10.232,0.00397504673514947,0.00397504673514947
10.233,0.004041394249562583,0.004041394249562583
10.234,0.003290020216728947,0.003290020216728947
10.235,0.0021081822031482453,0.0021081822031482453
10.235999999999999,0.0009265274519753966,0.0009265274519753966
10.237,0.00010192784738029828,0.00010192784738029828
10.238,0.000164846566998093,-0.000164846566998093
10.238999999999999,0.00014072264757254086,0.00014072264757254086
10.24,0.0008717016513983569,0.0008717016513983569
10.241,0.0017880100303880092,0.0017880100303880092
10.241999999999999,0.002645761768652535,0.002645761768652535
10.243,0.0032796703378560085,0.0032796703378560085
10.244,0.003652160022614614,0.003652160022614614
10.245,0.0038519009088258415,0.0038519009088258415
10.246,0.004039586477139128,0.004039586477139128
10.247,0.00435642447612165,0.00435642447612165
10.248,0.004825918584106291,0.004825918584106291
10.248999999999999,0.005286625875366327,0.005286625875366327
10.25,0.005388736424416543,0.005388736424416543
10.251,0.004669948432459557,0.004669948432459557
10.251999999999999,0.0027000026671242902,0.0027000026671242902
10.253,0.0007438743937154813,-0.0007438743937154813
10.254,0.005526916605513541,-0.005526916605513541
10.254999999999999,0.011090256147004209,-0.011090256147004209
10.256,0.016507545177191576,-0.016507545177191576
10.257,0.020669133179639445,-0.020669133179639445
10.258,0.02255587000503235,-0.02255587000503235
10.259,0.021529185119786784,-0.021529185119786784
10.26,0.017548831797013817,-0.017548831797013817
10.261,0.011242369267318522,-0.011242369267318522
10.262,0.003789922636166186,-0.003789922636166186
10.263,0.003356677633214852,0.003356677633214852
10.264,0.008846987427153865,0.008846987427153865
10.264999999999999,0.011789380325645986,0.011789380325645986
10.266,0.011983408939002904,0.011983408939002904
10.267,0.009951960869280279,0.009951960869280279
10.267999999999999,0.00675881111868762,0.00675881111868762
10.269,0.003665370416643483,0.003665370416643483
10.27,0.0017334807089266781,0.0017334807089266781
10.270999999999999,0.0015005128511224053,0.0015005128511224053
10.272,0.0028310449370437655,0.0028310449370437655
10.273,0.004992251847057149,0.004992251847057149
10.274,0.006926340341780035,0.006926340341780035
10.275,0.007627701743034948,0.007627701743034948
10.276,0.006497481953724275,0.006497481953724275
10.277,0.003556352017499046,0.003556352017499046
10.278,0.0005549930716388807,-0.0005549930716388807
10.279,0.004785267676245349,-0.004785267676245349
10.28,0.008017909430675015,-0.008017909430675015
10.280999999999999,0.009432566713501636,-0.009432566713501636
10.282,0.008759349584914592,-0.008759349584914592
10.283,0.006341794455133224,-0.006341794455133224
10.283999999999999,0.0029927574038732968,-0.0029927574038732968
10.285,0.00029980486631602226,0.00029980486631602226
10.286,0.002708928636263346,0.002708928636263346
10.286999999999999,0.0038266745508769655,0.0038266745508769655
10.288,0.0037557716662989186,0.0037557716662989186
10.289,0.0030094764260675997,0.0030094764260675997
10.29,0.0022651693992350856,0.0022651693992350856
10.291,0.0020700366551622386,0.0020700366551622386
10.292,0.0026126484341954296,0.0026126484341954296
10.293,0.003647015527291409,0.003647015527291409
10.294,0.00459630998325558,0.00459630998325558
10.295,0.004794357877340669,0.004794357877340669
10.296,0.003770272638081141,0.003770272638081141
10.296999999999999,0.0014650315286463256,0.0014650315286463256
10.298,0.0017054033147793056,-0.0017054033147793056
10.299,0.004967460736688488,-0.004967460736688488
10.299999999999999,0.007446104613271368,-0.007446104613271368
10.301,0.008464981682406076,-0.008464981682406076
10.302,0.007778753814205325,-0.007778753814205325
10.302999999999999,0.005651332058228351,-0.005651332058228351
10.304,0.0027522216466134416,-0.0027522216466134416
10.305,8.769158709039333e-05,8.769158709039333e-05
10.306,0.002166403083433572,0.002166403083433572
10.307,0.003135996341594038,0.003135996341594038
10.308,0.0030783714610741115,0.0030783714610741115
10.309,0.0024069690777479198,0.0024069690777479198
10.31,0.0016399000588119066,0.0016399000588119066
10.311,0.0011423339399655847,0.0011423339399655847
10.312,0.0009496949055493637,0.0009496949055493637
10.312999999999999,0.0007516537778575368,0.0007516537778575368
10.314,5.129224936003618e-05,5.129224936003618e-05
10.315,0.001560746434200924,-0.001560746434200924
10.315999999999999,0.0041311490672699645,-0.0041311490672699645
10.317,0.0071922108421050715,-0.0071922108421050715
10.318,0.009817886428664236,-0.009817886428664236
10.318999999999999,0.010894443590186754,-0.010894443590186754
10.32,0.00952551800874041,-0.00952551800874041
10.321,0.005428350059132768,-0.005428350059132768
10.322,0.0008347521764084942,0.0008347521764084942
10.323,0.00789950229290278,0.00789950229290278
10.324,0.013935190988252478,0.013935190988252478
10.325,0.01718433359571567,0.01718433359571567
10.326,0.01653587385903222,0.01653587385903222
10.327,0.011935237533253143,0.011935237533253143
10.328,0.004477418335421555,0.004477418335421555
10.328999999999999,0.003870214064401655,-0.003870214064401655
10.33,0.010843479844652972,-0.010843479844652972
10.331,0.014576882179266486,-0.014576882179266486
10.331999999999999,0.014191329296746415,-0.014191329296746415
10.333,0.010074216250043337,-0.010074216250043337
10.334,0.0037501016735220585,-0.0037501016735220585
10.334999999999999,0.0026232858637070845,0.0026232858637070845
10.336,0.006970503627863999,0.006970503627863999
10.337,0.007986604676021192,0.007986604676021192
10.338,0.005564439696193985,0.005564439696193985
10.339,0.0008130464101480466,0.0008130464101480466
10.34,0.004342672126476331,-0.004342672126476331
10.341,0.007846943541459907,-0.007846943541459907
10.342,0.008248989456924682,-0.008248989456924682
10.343,0.005235409147618908,-0.005235409147618908
10.344,0.00022839843690923093,0.00022839843690923093
10.344999999999999,0.0062029795817536305,0.0062029795817536305
10.346,0.010428099741507518,0.010428099741507518
10.347,0.011105859044249659,0.011105859044249659
10.347999999999999,0.007547526075628453,0.007547526075628453
10.349,0.00046093213984909893,0.00046093213984909893
10.35,0.0082254868037395,-0.0082254868037395
10.350999999999999,0.015950630898141176,-0.015950630898141176
10.352,0.020330544726594773,-0.020330544726594773
10.353,0.019924681223001995,-0.019924681223001995
10.354,0.014706636827444339,-0.014706636827444339
10.355,0.006084701410863592,-0.006084701410863592
10.356,0.0035342460210036814,0.0035342460210036814
10.357,0.011494703703324748,0.011494703703324748
10.358,0.015712777566051488,0.015712777566051488
10.359,0.01530335707734244,0.01530335707734244
10.36,0.010817392676041088,0.010817392676041088
10.360999999999999,0.004021573320562711,0.004021573320562711
10.362,0.002699122632042979,-0.002699122632042979
10.363,0.007117031225791353,-0.007117031225791353
10.363999999999999,0.00786528302944446,-0.00786528302944446
10.365,0.00484911381564074,-0.00484911381564074
10.366,0.0007559189746047881,0.0007559189746047881
10.366999999999999,0.006906103970980865,0.006906103970980865
10.368,0.011355166894282185,0.011355166894282185
10.369,0.012370159783892658,0.012370159783892658
10.37,0.00927775429103822,0.00927775429103822
10.371,0.0026818077426934953,0.0026818077426934953
10.372,0.005701518854725026,-0.005701518854725026
10.373,0.013529845110443766,-0.013529845110443766
10.373999999999999,0.018491327688706448,-0.018491327688706448
10.375,0.01894228155563558,-0.01894228155563558
10.376,0.014353494830174533,-0.014353494830174533
10.376999999999999,0.005456846239263937,-0.005456846239263937
10.378,0.005929280760103074,0.005929280760103074
10.379,0.017333994472957772,0.017333994472957772
10.379999999999999,0.02620757533061939,0.02620757533061939
10.381,0.0304937367803945,0.0304937367803945
10.382,0.02907382102435148,0.02907382102435148
10.383,0.02199665236592901,0.02199665236592901
10.384,0.010459982197857823,0.010459982197857823
10.385,0.003439582682064804,-0.003439582682064804
10.386,0.01713041193903955,-0.01713041193903955
10.387,0.028078839362131753,-0.028078839362131753
10.388,0.034294377556811945,-0.034294377556811945
10.389,0.03473180916764194,-0.03473180916764194
10.389999999999999,0.029510097801692396,-0.029510097801692396
10.391,0.019897223509202703,-0.019897223509202703
10.392,0.008051924819076578,-0.008051924819076578
10.392999999999999,0.003436663768813095,0.003436663768813095
10.394,0.012121484382270242,0.012121484382270242
10.395,0.016256744342801003,0.016256744342801003
10.395999999999999,0.015209260371881835,0.015209260371881835
10.397,0.009612296489606839,0.009612296489606839
10.398,0.0012099397317354864,0.0012099397317354864
10.399,0.007581505980139312,-0.007581505980139312
10.4,0.01429026249178233,-0.01429026249178233
10.401,0.01702456200020764,-0.01702456200020764
10.402,0.0149556503035652,-0.0149556503035652
10.403,0.008514964430067721,-0.008514964430067721
10.404,0.0007488254238364254,0.0007488254238364254
10.405,0.01060957495999536,0.01060957495999536
10.405999999999999,0.01877054604125223,0.01877054604125223
10.407,0.023461255744382542,0.023461255744382542
10.408,0.023854294894622232,0.023854294894622232
10.408999999999999,0.020191996290082035,0.020191996290082035
10.41,0.013605987894672326,0.013605987894672326
10.411,0.005708353987076895,0.005708353987076895
10.411999999999999,0.0019002840173950426,-0.0019002840173950426
10.413,0.00804454152230646,-0.00804454152230646
10.414,0.012187387561089435,-0.012187387561089435
10.415,0.014398368383656334,-0.014398368383656334
10.416,0.01512184547782098,-0.01512184547782098
10.417,0.014858157678814661,-0.014858157678814661
10.418,0.01389369457012334,-0.01389369457012334
10.419,0.012187031500000303,-0.012187031500000303
10.42,0.00944975210893408,-0.00944975210893408
10.421,0.005379165170692086,-0.005379165170692086
10.421999999999999,6.287881996320836e-05,6.287881996320836e-05
10.423,0.006451356558253887,0.006451356558253887
10.424,0.012876078119191536,0.012876078119191536
10.424999999999999,0.018124060158315167,0.018124060158315167
10.426,0.021012788302061002,0.021012788302061002
10.427,0.020758591633758802,0.020758591633758802
10.427999999999999,0.01724539428185803,0.01724539428185803
10.429,0.011091549285314016,0.011091549285314016
10.43,0.003484704244611193,0.003484704244611193
10.431,0.004160356997331359,-0.004160356997331359
10.432,0.010600559765592541,-0.010600559765592541
10.433,0.015079252522989747,-0.015079252522989747
10.434,0.017448823332608283,-0.017448823332608283
10.435,0.018067443530267315,-0.018067443530267315
10.436,0.017523523803303,-0.017523523803303
10.437,0.01630820959191286,-0.01630820959191286
10.437999999999999,0.014575904143818255,-0.014575904143818255
10.439,0.012096680828979864,-0.012096680828979864
10.44,0.008425420787943597,-0.008425420787943597
10.440999999999999,0.003220689256882547,-0.003220689256882547
10.442,0.0034220970707689456,0.0034220970707689456
10.443,0.010775383483639548,0.010775383483639548
10.443999999999999,0.01752994362922165,0.01752994362922165
10.445,0.022107806812775584,0.022107806812775584
10.446,0.023149448344264287,0.023149448344264287
10.447,0.02000856400483106,0.02000856400483106
10.448,0.013067819735212125,0.013067819735212125
10.449,0.003739035284573496,0.003739035284573496
10.45,0.005883231077699909,-0.005883231077699909
10.451,0.013621069719721136,-0.013621069719721136
10.452,0.01787354342927023,-0.01787354342927023
10.453,0.018111724024692626,-0.018111724024692626
10.453999999999999,0.015028329255026457,-0.015028329255026457
10.455,0.010275543698364756,-0.010275543698364756
10.456,0.005867840622029333,-0.005867840622029333
10.456999999999999,0.0034489213238651025,-0.0034489213238651025
10.458,0.003678288413106761,-0.003678288413106761
10.459,0.0059605463365508034,-0.0059605463365508034
10.459999999999999,0.00862746190643477,-0.00862746190643477
10.461,0.009526491648834429,-0.009526491648834429
10.462,0.006823930031841808,-0.006823930031841808
10.463,0.0002521062257745945,0.0002521062257745945
10.464,0.010992883246649177,0.010992883246649177
10.465,0.02327525262590175,0.02327525262590175
10.466,0.03411182759672018,0.03411182759672018
10.467,0.04051878187784143,0.04051878187784143
10.468,0.04042341266980424,0.04042341266980424
10.469,0.0333152771987568,0.0333152771987568
10.469999999999999,0.02042689839516485,0.02042689839516485
10.471,0.0043851771536922044,0.0043851771536922044
10.472,0.01155031262897757,-0.01155031262897757
10.472999999999999,0.024411123057843338,-0.024411123057843338
10.474,0.0323062375741292,-0.0323062375741292
10.475,0.0348249616315521,-0.0348249616315521
10.475999999999999,0.032946659936591634,-0.032946659936591634
10.477,0.028517988352810206,-0.028517988352810206
10.478,0.023503105109520975,-0.023503105109520975
10.479,0.019281562364426224,-0.019281562364426224
10.48,0.01623938271725447,-0.01623938271725447
10.481,0.013783512595713483,-0.013783512595713483
10.482,0.010751096644570813,-0.010751096644570813
10.483,0.006040416581447294,-0.006040416581447294
10.484,0.0007883130257778718,0.0007883130257778718
10.485,0.009179243455898815,0.009179243455898815
10.485999999999999,0.017649226148876453,0.017649226148876453
10.487,0.024241686725622196,0.024241686725622196
10.488,0.027204024998449466,0.027204024998449466
10.488999999999999,0.02563991039950863,0.02563991039950863
10.49,0.019891722375501904,0.019891722375501904
10.491,0.011501712655049815,0.011501712655049815
10.491999999999999,0.002750024506000192,0.002750024506000192
10.493,0.004079917516765885,-0.004079917516765885
10.494,0.007457423907548901,-0.007457423907548901
10.495,0.0071178675348918105,-0.0071178675348918105
10.496,0.004149271249535795,-0.004149271249535795
10.497,0.0006133826997415909,-0.0006133826997415909
10.498,0.0011775466642747752,0.0011775466642747752
10.498999999999999,0.0005121625382866208,-0.0005121625382866208
10.5,0.006188579334484342,-0.006188579334484342
10.501,0.014870312897720893,-0.014870312897720893
10.501999999999999,0.02431615313799193,-0.02431615313799193
10.503,0.03166866083320841,-0.03166866083320841
10.504,0.03430946237419835,-0.03430946237419835
10.504999999999999,0.03065680404132889,-0.03065680404132889
10.506,0.020659922359552538,-0.020659922359552538
10.507,0.005847073769348989,-0.005847073769348989
10.508,0.0110720786603529,0.0110720786603529
10.509,0.02691258803387193,0.02691258803387193
10.51,0.03880675340991146,0.03880675340991146
10.511,0.04485183080860189,0.04485183080860189
10.512,0.044445925051921305,0.044445925051921305
10.513,0.03825575341777651,0.03825575341777651
10.514,0.027876695165777354,0.027876695165777354
10.514999999999999,0.015329221490494292,0.015329221490494292
10.516,0.0025621957853479717,0.0025621957853479717
10.517,0.00889946312593039,-0.00889946312593039
10.517999999999999,0.018098748016414534,-0.018098748016414534
10.519,0.024600842966664125,-0.024600842966664125
10.52,0.028337139204551783,-0.028337139204551783
10.520999999999999,0.02943772382024926,-0.02943772382024926
10.522,0.028127471432165,-0.028127471432165
10.523,0.024709859093831072,-0.024709859093831072
10.524,0.019609255590674248,-0.019609255590674248
10.525,0.013410526599877738,-0.013410526599877738
10.526,0.006837272642258134,-0.006837272642258134
10.527,0.0006440885520791502,-0.0006440885520791502
10.528,0.0045528360801266165,0.0045528360801266165
10.529,0.008441900626732066,0.008441900626732066
10.53,0.011101728134074727,0.011101728134074727
10.530999999999999,0.012952287425719798,0.012952287425719798
10.532,0.014568958018354733,0.014568958018354733
10.533,0.016416045922828474,0.016416045922828474
10.533999999999999,0.018598032975143442,0.018598032975143442
10.535,0.02073211885204439,0.02073211885204439
10.536,0.022009036311203087,0.022009036311203087
10.536999999999999,0.021442035941383806,0.021442035941383806
10.538,0.018230661309215877,0.018230661309215877
10.539,0.012114729215455231,0.012114729215455231
10.54,0.003586097356758137,0.003586097356758137
10.541,0.006132897313477005,-0.006132897313477005
10.542,0.015357685350635248,-0.015357685350635248
10.543,0.02238255984228618,-0.02238255984228618
10.544,0.02595586892254103,-0.02595586892254103
10.545,0.025632579293458697,-0.025632579293458697
10.546,0.021884641982129412,-0.021884641982129412
10.546999999999999,0.01593011116484689,-0.01593011116484689
10.548,0.009337950380988565,-0.009337950380988565
10.549,0.003542775407153717,-0.003542775407153717
10.549999999999999,0.00056556068550019,0.00056556068550019
10.551,0.0028401631861185578,0.0028401631861185578
10.552,0.003802037403822338,0.003802037403822338
10.552999999999999,0.004328788699455856,0.004328788699455856
10.554,0.005228666199664523,0.005228666199664523
10.555,0.006862084033580547,0.006862084033580547
10.556,0.008954465826000093,0.008954465826000093
10.557,0.010673518398908495,0.010673518398908495
10.558,0.01094622527000447,0.01094622527000447
10.559,0.008901230695135105,0.008901230695135105
10.56,0.004273326219367309,0.004273326219367309
10.561,0.002383593037522084,-0.002383593037522084
10.562,0.00976350443675139,-0.00976350443675139
10.562999999999999,0.016145711811558786,-0.016145711811558786
10.564,0.01989747242007712,-0.01989747242007712
10.565,0.019976574992223738,-0.019976574992223738
10.565999999999999,0.01626581725214224,-0.01626581725214224
10.567,0.009626538049186771,-0.009626538049186771
10.568,0.0016521747235555804,-0.0016521747235555804
10.568999999999999,0.0057974987870250605,0.0057974987870250605
10.57,0.011129604564132693,0.011129604564132693
10.571,0.013448216839154085,0.013448216839154085
10.572,0.012749466313865648,0.012749466313865648
10.573,0.009831680874644784,0.009831680874644784
10.574,0.005966041582745508,0.005966041582745508
10.575,0.00244948404723967,0.00244948404723967
10.576,0.00019342953012310514,0.00019342953012310514
10.577,0.0005194714669703638,-0.0005194714669703638
10.578,4.3163514643555365e-05,-4.3163514643555365e-05
10.578999999999999,0.0008431194877477487,0.0008431194877477487
10.58,0.0012760331154091534,0.0012760331154091534
10.581,0.0006521150346185375,0.0006521150346185375
10.581999999999999,0.0011443413742040125,-0.0011443413742040125
10.583,0.003700273154932893,-0.003700273154932893
10.584,0.006221627877014271,-0.006221627877014271
10.584999999999999,0.007807759210564739,-0.007807759210564739
10.586,0.007752633875647934,-0.007752633875647934
10.587,0.0057726630063399545,-0.0057726630063399545
10.588,0.002094517469342361,-0.002094517469342361
10.589,0.0026113116893717514,0.0026113116893717514
10.59,0.007414555499951587,0.007414555499951587
10.591,0.011358480102868738,0.011358480102868738
10.592,0.013670354547955572,0.013670354547955572
10.593,0.013898310761505888,0.013898310761505888
10.594,0.011958311788477524,0.011958311788477524
10.594999999999999,0.008106948014447824,0.008106948014447824
10.596,0.002872813104200244,0.002872813104200244
10.597,0.003023157241863317,-0.003023157241863317
10.597999999999999,0.008744853650263762,-0.008744853650263762
10.599,0.013422018497602533,-0.013422018497602533
10.6,0.016251981392751854,-0.016251981392751854
10.600999999999999,0.01663268543185304,-0.01663268543185304
10.602,0.014315879615052974,-0.014315879615052974
10.603,0.00954215595210859,-0.00954215595210859
10.604,0.0031012891185603015,-0.0031012891185603015
10.605,0.003735318608541035,0.003735318608541035
10.606,0.009433762120146235,0.009433762120146235
10.607,0.01254283548400235,0.01254283548400235
10.608,0.012087370805099883,0.012087370805099883
10.609,0.007896656763498253,0.007896656763498253
10.61,0.0007540439718819776,0.0007540439718819776
10.610999999999999,0.007706651356992565,-0.007706651356992565
10.612,0.015360952256406261,-0.015360952256406261
10.613,0.020130806785184734,-0.020130806785184734
10.613999999999999,0.020555028924619925,-0.020555028924619925
10.615,0.016225217321671658,-0.016225217321671658
10.616,0.007948105798510059,-0.007948105798510059
10.616999999999999,0.002428811455394382,0.002428811455394382
10.618,0.012490872032286361,0.012490872032286361
10.619,0.019898079139982795,0.019898079139982795
10.62,0.02300897323508105,0.02300897323508105
10.621,0.0213027249407907,0.0213027249407907
10.622,0.01547630782132994,0.01547630782132994
10.623,0.007193795653244077,0.007193795653244077
10.624,0.0014277293224082457,-0.0014277293224082457
10.625,0.008431471215157119,-0.008431471215157119
10.626,0.012543184030976456,-0.012543184030976456
10.626999999999999,0.013447769007028685,-0.013447769007028685
10.628,0.011750182905483117,-0.011750182905483117
10.629,0.008655350860289632,-0.008655350860289632
10.629999999999999,0.005491353115247468,-0.005491353115247468
10.631,0.003245069384285367,-0.003245069384285367
10.632,0.002265913428081657,-0.002265913428081657
10.633,0.0022276557280605583,-0.0022276557280605583
10.634,0.0023446272765580436,-0.0023446272765580436
10.635,0.0017498559632032162,-0.0017498559632032162
10.636,0.00011062857808626383,0.00011062857808626383
10.637,0.0032135702314341564,0.0032135702314341564
10.638,0.006919636126774645,0.006919636126774645
10.639,0.010172104883469535,0.010172104883469535
10.639999999999999,0.011859937924591625,0.011859937924591625
10.641,0.011214544870618133,0.011214544870618133
10.642,0.008099284621010106,0.008099284621010106
10.642999999999999,0.003090162774997448,0.003090162774997448
10.644,0.0026797479533013325,-0.0026797479533013325
10.645,0.007857697523437034,-0.007857697523437034
10.645999999999999,0.011274969889406716,-0.011274969889406716
10.647,0.01228197089709991,-0.01228197089709991
10.648,0.010907341483340958,-0.010907341483340958
10.649,0.007797235431938327,-0.007797235431938327
10.65,0.003966936806771724,-0.003966936806771724
10.651,0.0004586386101839488,-0.0004586386101839488
10.652,0.0019744399575089334,0.0019744399575089334
10.653,0.0030540474211940495,0.0030540474211940495
10.654,0.0029812926868756414,0.0029812926868756414
10.655,0.0022748513236855237,0.0022748513236855237
10.655999999999999,0.0015162803568758432,0.0015162803568758432
10.657,0.0011041421233727795,0.0011041421233727795
10.658,0.0011087320405376766,0.0011087320405376766
10.658999999999999,0.0012762944331261062,0.0012762944331261062
10.66,0.0011727192558191263,0.0011727192558191263
10.661,0.00040401547003372437,0.00040401547003372437
10.661999999999999,0.0011765319194994223,-0.0011765319194994223
10.663,0.0033574778269460756,-0.0033574778269460756
10.664,0.005599611248148224,-0.005599611248148224
10.665,0.0071987416533425,-0.0071987416533425
10.666,0.007522431434818096,-0.007522431434818096
10.667,0.00623510128417502,-0.00623510128417502
10.668,0.003430624074297725,-0.003430624074297725
10.669,0.0003744893667797168,0.0003744893667797168
10.67,0.004384077080513592,0.004384077080513592
10.671,0.007750647650452366,0.007750647650452366
10.671999999999999,0.009810319868100754,0.009810319868100754
10.673,0.010246953723311115,0.010246953723311115
10.674,0.009136955109862909,0.009136955109862909
10.674999999999999,0.0068711059809865764,0.0068711059809865764
10.676,0.0039934352021500155,0.0039934352021500155
10.677,0.001023458813379837,0.001023458813379837
10.677999999999999,0.0016720408695382319,-0.0016720408695382319
10.679,0.003917007666426936,-0.003917007666426936
10.68,0.0056732136263728744,-0.0056732136263728744
10.681,0.006934251097261542,-0.006934251097261542
10.682,0.00762578277744316,-0.00762578277744316
10.683,0.007567592113481217,-0.007567592113481217
10.684,0.0065251652260699625,-0.0065251652260699625
10.685,0.004337644360491533,-0.004337644360491533
10.686,0.0010713021344183917,-0.0010713021344183917
10.687,0.0028713208297775623,0.0028713208297775623
10.687999999999999,0.006748057326822421,0.006748057326822421
10.689,0.009606658420002294,0.009606658420002294
10.69,0.010525662585284265,0.010525662585284265
10.690999999999999,0.008899458736671726,0.008899458736671726
10.692,0.00467527679925339,0.00467527679925339
10.693,0.0015442413371950718,-0.0015442413371950718
10.693999999999999,0.00858234747281843,-0.00858234747281843
10.695,0.014946110185084452,-0.014946110185084452
10.696,0.01919575322094907,-0.01919575322094907
10.697,0.02032076409453331,-0.02032076409453331
10.698,0.018011192212440668,-0.018011192212440668
10.699,0.012741448368974494,-0.012741448368974494
10.7,0.005639939430948594,-0.005639939430948594
10.701,0.0018168993552116453,0.0018168993552116453
10.702,0.008194343013403894,0.008194343013403894
10.703,0.01245703763379886,0.01245703763379886
10.703999999999999,0.014191573212171344,0.014191573212171344
10.705,0.013636049400611385,0.013636049400611385
10.706,0.011520866921366493,0.011520866921366493
10.706999999999999,0.008783598446367438,0.008783598446367438
10.708,0.0062568516922582714,0.0062568516922582714
10.709,0.0044304138781751075,0.0044304138781751075
10.709999999999999,0.003358038052504165,0.003358038052504165
10.711,0.0027265120456666956,0.0027265120456666956
10.712,0.0020486576718919194,0.0020486576718919194
10.713,0.0009017234117756664,0.0009017234117756664
10.714,0.0008786072607735841,-0.0008786072607735841
10.715,0.003117835893405554,-0.003117835893405554
10.716,0.0053610432837527654,-0.0053610432837527654
10.717,0.0070437187970571755,-0.0070437187970571755
10.718,0.007708183388127691,-0.007708183388127691
10.719,0.007183365581554935,-0.007183365581554935
10.719999999999999,0.005660393720197571,-0.005660393720197571
10.721,0.0036355295600637733,-0.0036355295600637733
10.722,0.00174104646385965,-0.00174104646385965
10.722999999999999,0.0005259602715584174,-0.0005259602715584174
10.724,0.0002671411175035962,-0.0002671411175035962
10.725,0.0008805249364443968,-0.0008805249364443968
10.725999999999999,0.0019657229959941626,-0.0019657229959941626
10.727,0.0029683456587911044,-0.0029683456587911044
10.728,0.003400487580674592,-0.003400487580674592
10.729,0.0030370952286724335,-0.0030370952286724335
10.73,0.002012995738428046,-0.002012995738428046
10.731,0.0007802744217363309,-0.0007802744217363309
10.732,6.354795813727073e-05,6.354795813727073e-05
10.733,1.74363318747526e-05,1.74363318747526e-05
10.734,0.001099108580176865,-0.001099108580176865
10.735,0.003025844417166524,-0.003025844417166524
10.735999999999999,0.005098145103606849,-0.005098145103606849
10.737,0.006438849370097832,-0.006438849370097832
10.738,0.00624854832272916,-0.00624854832272916
10.738999999999999,0.004098837184805067,-0.004098837184805067
10.74,0.00012641783260460517,-0.00012641783260460517
10.741,0.004945349910966448,0.004945349910966448
10.741999999999999,0.009975455770655702,0.009975455770655702
10.743,0.013718975434667095,0.013718975434667095
10.744,0.015189172272938652,0.015189172272938652
10.745,0.013952169519213844,0.013952169519213844
10.746,0.010257635505101163,0.010257635505101163
10.747,0.0049612637357198865,0.0049612637357198865
10.748,0.0007368471623873107,-0.0007368471623873107
10.749,0.005652536790722062,-0.005652536790722062
10.75,0.00895817270242106,-0.00895817270242106
10.751,0.010391919300088526,-0.010391919300088526
10.751999999999999,0.010269268961374266,-0.010269268961374266
10.753,0.009298735514910332,-0.009298735514910332
10.754,0.008271664045386396,-0.008271664045386396
10.754999999999999,0.007740105421649657,-0.007740105421649657
10.756,0.007800798178779704,-0.007800798178779704
10.757,0.00806535921224211,-0.00806535921224211
10.758,0.007829470090441262,-0.007829470090441262
10.759,0.006380534725145682,-0.006380534725145682
10.76,0.003330097426648754,-0.003330097426648754
10.761,0.0011560593180968209,0.0011560593180968209
10.762,0.006324684382441041,0.006324684382441041
10.763,0.011024916873299907,0.011024916873299907
10.764,0.014066594203829948,0.014066594203829948
10.764999999999999,0.014627556487192623,0.014627556487192623
10.766,0.012565684051770694,0.012565684051770694
10.767,0.008517239987351616,0.008517239987351616
10.767999999999999,0.003732623873287374,0.003732623873287374
10.769,0.0003088770079067061,-0.0003088770079067061
10.77,0.0023834562546045314,-0.0023834562546045314
10.770999999999999,0.0019431257593915006,-0.0019431257593915006
10.772,0.0006770646623325024,0.0006770646623325024
10.773,0.004347077404202061,0.004347077404202061
10.774,0.0075086513855081366,0.0075086513855081366
10.775,0.00870680872743395,0.00870680872743395
10.776,0.007109941820505574,0.007109941820505574
10.777,0.002838365829878259,0.002838365829878259
10.778,0.00302080308549781,-0.00302080308549781
10.779,0.008732267829321983,-0.008732267829321983
10.78,0.012471337642100695,-0.012471337642100695
10.780999999999999,0.012943923040002032,-0.012943923040002032
10.782,0.00986084294142635,-0.00986084294142635
10.783,0.0041006628551209096,-0.0041006628551209096
10.783999999999999,0.002506417400681869,0.002506417400681869
10.785,0.007717248315596978,0.007717248315596978
10.786,0.00957224386169478,0.00957224386169478
10.786999999999999,0.007028802061457996,0.007028802061457996
10.788,0.00032649090818780857,0.00032649090818780857
10.789,0.009037560066408636,-0.009037560066408636
10.79,0.018720237795238993,-0.018720237795238993
10.791,0.026203938746969666,-0.026203938746969666
10.792,0.029518008146583816,-0.029518008146583816
10.793,0.027785984726679695,-0.027785984726679695
10.794,0.021433445293364727,-0.021433445293364727
10.795,0.012003102222605193,-0.012003102222605193
10.796,0.0016507725993463397,-0.0016507725993463397
10.796999999999999,0.0075045939207514295,0.0075045939207514295
10.798,0.013964142810071953,0.013964142810071953
10.799,0.017185259164777516,0.017185259164777516
10.799999999999999,0.017581578616090533,0.017581578616090533
10.801,0.016215246454212767,0.016215246454212767
10.802,0.014312337574484923,0.014312337574484923
10.802999999999999,0.012785079662346467,0.012785079662346467
10.804,0.011930770431511221,0.011930770431511221
10.805,0.011404108955982784,0.011404108955982784
10.806,0.01045495142178136,0.01045495142178136
10.807,0.008325685388595818,0.008325685388595818
10.808,0.004646585250785287,0.004646585250785287
10.809,0.0003271140558156992,-0.0003271140558156992
10.81,0.005729442169241899,-0.005729442169241899
10.811,0.010345483586107443,-0.010345483586107443
10.812,0.01302301640672146,-0.01302301640672146
10.812999999999999,0.013079865288354258,-0.013079865288354258
10.814,0.010554555959910472,-0.010554555959910472
10.815,0.006206598516693221,-0.006206598516693221
10.815999999999999,0.0012661998287651593,-0.0012661998287651593
10.817,0.0029737078100302277,0.0029737078100302277
10.818,0.0055724197244127645,0.0055724197244127645
10.818999999999999,0.006211802682754276,0.006211802682754276
10.82,0.005226778491648327,0.005226778491648327
10.821,0.0033930076249532124,0.0033930076249532124
10.822,0.00156213611514437,0.00156213611514437
10.823,0.0002936030782528603,0.0002936030782528603
10.824,0.00036692434044251096,-0.00036692434044251096
10.825,0.0008702069163090032,-0.0008702069163090032
10.826,0.0019103514725039683,-0.0019103514725039683
10.827,0.004036179556083789,-0.004036179556083789
10.828,0.0072881197029436165,-0.0072881197029436165
10.828999999999999,0.011021393648380416,-0.011021393648380416
10.83,0.014012219114735897,-0.014012219114735897
10.831,0.014837598258805764,-0.014837598258805764
10.831999999999999,0.01240954072958691,-0.01240954072958691
10.833,0.006472896656884652,-0.006472896656884652
10.834,0.002128382631331063,0.002128382631331063
10.834999999999999,0.011543213847881446,0.011543213847881446
10.836,0.019369971468606976,0.019369971468606976
10.837,0.023353218708308372,0.023353218708308372
10.838,0.022101524641946063,0.022101524641946063
10.839,0.015584871756772364,0.015584871756772364
10.84,0.005231292588747255,0.005231292588747255
10.841,0.0064308345758139086,-0.0064308345758139086
10.842,0.016487783447091477,-0.016487783447091477
10.843,0.02249287123167343,-0.02249287123167343
10.844,0.023184613469195488,-0.023184613469195488
10.844999999999999,0.018838028114427093,-0.018838028114427093
10.846,0.011134712651841471,-0.011134712651841471
10.847,0.0025955470915597096,-0.0025955470915597096
10.847999999999999,0.004235562969036395,0.004235562969036395
10.849,0.007587129280610408,0.007587129280610408
10.85,0.0069748495978175715,0.0069748495978175715
10.850999999999999,0.0032736624664609706,0.0032736624664609706
10.852,0.0016630429920703673,-0.0016630429920703673
10.853,0.005693774850299387,-0.005693774850299387
10.854,0.007143613334870676,-0.007143613334870676
10.855,0.005362348622256971,-0.005362348622256971
10.856,0.0009003642204027889,-0.0009003642204027889
10.857,0.0047449228081506145,0.0047449228081506145
10.858,0.00970686019924525,0.00970686019924525
10.859,0.012434180353587483,0.012434180353587483
10.86,0.012232378933474215,0.012232378933474215
10.860999999999999,0.009469469733029753,0.009469469733029753
10.862,0.005380111964568026,0.005380111964568026
10.863,0.0015509744888081108,0.0015509744888081108
10.863999999999999,0.000712620211322164,-0.000712620211322164
10.865,0.0008958982380051648,-0.0008958982380051648
10.866,0.0005359502839028965,0.0005359502839028965
10.866999999999999,0.002343452203075037,0.002343452203075037
10.868,0.003039278376337544,0.003039278376337544
10.869,0.0015369362179543644,0.0015369362179543644
10.87,0.0023291281924423895,-0.0023291281924423895
10.871,0.007622749610075128,-0.007622749610075128
10.872,0.012555278343248674,-0.012555278343248674
10.873,0.015097469645769952,-0.015097469645769952
10.874,0.01374721757130927,-0.01374721757130927
10.875,0.008176768774605941,-0.008176768774605941
10.876,0.000489098376388985,0.000489098376388985
10.876999999999999,0.009893746196211486,0.009893746196211486
10.878,0.017127476601101477,0.017127476601101477
10.879,0.019659714959334024,0.019659714959334024
10.879999999999999,0.016220002598863744,0.016220002598863744
10.881,0.0073243935605186135,0.0073243935605186135
10.882,0.0047511284924989135,-0.0047511284924989135
10.883,0.016572429382138883,-0.016572429382138883
10.884,0.024556693922285773,-0.024556693922285773
10.885,0.026082029398935738,-0.026082029398935738
10.886,0.02034681517303163,-0.02034681517303163
10.887,0.008698577559312389,-0.008698577559312389
10.888,0.0056860779345840416,0.0056860779345840416
10.889,0.01868716770353091,0.01868716770353091
10.889999999999999,0.02643220555186796,0.02643220555186796
10.891,0.026435746476157245,0.026435746476157245
10.892,0.0183461178498035,0.0183461178498035
10.892999999999999,0.0040780765902525525,0.0040780765902525525
10.894,0.012703622698360539,-0.012703622698360539
10.895,0.02759160496832071,-0.02759160496832071
10.895999999999999,0.03663560274616086,-0.03663560274616086
10.897,0.037389346398273335,-0.037389346398273335
10.898,0.02951705202618791,-0.02951705202618791
10.899,0.014811450155647325,-0.014811450155647325
10.9,0.0033496763724159997,0.0033496763724159997
10.901,0.020925442814051436,0.020925442814051436
10.902,0.03423734599970668,0.03423734599970668
10.903,0.04081769909135451,0.04081769909135451
10.904,0.03987533597570038,0.03987533597570038
10.905,0.0322986270358712,0.0322986270358712
10.905999999999999,0.020250209287364623,0.020250209287364623
10.907,0.006510546434662679,0.006510546434662679
10.908,0.0062275161476949845,-0.0062275161476949845
10.908999999999999,0.01592890340687952,-0.01592890340687952
10.91,0.02153309291078238,-0.02153309291078238
10.911,0.02298691966358446,-0.02298691966358446
10.911999999999999,0.021042295878071524,-0.021042295878071524
10.913,0.016917632926860278,-0.016917632926860278
10.914,0.011933702556295955,-0.011933702556295955
10.915,0.0072139342015484385,-0.0072139342015484385
10.916,0.0035001039331166977,-0.0035001039331166977
10.917,0.0010936514124139025,-0.0010936514124139025
10.918,9.708446723549793e-05,9.708446723549793e-05
10.919,0.0004378530481723552,0.0004378530481723552
10.92,0.00041345964035371274,0.00041345964035371274
10.921,0.00046802140543190663,0.00046802140543190663
10.921999999999999,0.0008675603385913722,0.0008675603385913722
10.923,0.0016101867448837677,0.0016101867448837677
10.924,0.002407249629624154,0.002407249629624154
10.924999999999999,0.002751582476897733,0.002751582476897733
10.926,0.0020721748521547725,0.0020721748521547725
10.927,5.116710876718906e-05,-5.116710876718906e-05
10.927999999999999,0.003667512265204705,-0.003667512265204705
10.929,0.008301838260030779,-0.008301838260030779
10.93,0.012940318387340877,-0.012940318387340877
10.931,0.016195930021846907,-0.016195930021846907
10.932,0.016644417713130966,-0.016644417713130966
10.933,0.013259324261022424,-0.013259324261022424
10.934,0.005824912677883105,-0.005824912677883105
10.935,0.004812078581159331,0.004812078581159331
10.936,0.016764314619387974,0.016764314619387974
10.937,0.027442444299718708,0.027442444299718708
10.937999999999999,0.034158468756502,0.034158468756502
10.939,0.034850065531559574,0.034850065531559574
10.94,0.028724418377698673,0.028724418377698673
10.940999999999999,0.016619971480810812,0.016619971480810812
10.942,0.0009481779924792259,0.0009481779924792259
10.943,0.014809541349246183,-0.014809541349246183
10.943999999999999,0.026943531967020026,-0.026943531967020026
10.945,0.032481555500847345,-0.032481555500847345
10.946,0.03001258998099771,-0.03001258998099771
10.947,0.02012890127735539,-0.02012890127735539
10.948,0.005345156098525076,-0.005345156098525076
10.949,0.01050229894757832,0.01050229894757832
10.95,0.023224950997793314,0.023224950997793314
10.951,0.029362192008244487,0.029362192008244487
10.952,0.027079789345339944,0.027079789345339944
10.953,0.016644466276209,0.016644466276209
10.953999999999999,0.0003511156380969029,0.0003511156380969029
10.955,0.018068582225200677,-0.018068582225200677
10.956,0.03438667658836154,-0.03438667658836154
10.956999999999999,0.044910494493418975,-0.044910494493418975
10.958,0.047334235955780686,-0.047334235955780686
10.959,0.04120279725574083,-0.04120279725574083
10.959999999999999,0.0278969494495072,-0.0278969494495072
10.961,0.010182800649501972,-0.010182800649501972
10.962,0.008520397450144514,0.008520397450144514
10.963,0.024941507977012504,0.024941507977012504
10.964,0.03662122873452357,0.03662122873452357
10.965,0.04229388059367528,0.04229388059367528
10.966,0.041937115235120025,0.041937115235120025
10.967,0.03653454020214321,0.03653454020214321
10.968,0.027664573425332184,0.027664573425332184
10.969,0.01705421463663389,0.01705421463663389
10.969999999999999,0.006218024814800095,0.006218024814800095
10.971,0.0037468215551762422,-0.0037468215551762422
10.972,0.012198609692879597,-0.012198609692879597
10.972999999999999,0.018861831275705288,-0.018861831275705288
10.974,0.02367713548084384,-0.02367713548084384
10.975,0.02665712059501397,-0.02665712059501397
10.975999999999999,0.027793904969014134,-0.027793904969014134
10.977,0.027034726142749207,-0.027034726142749207
10.978,0.024315381213534146,-0.024315381213534146
10.979,0.019626236199905545,-0.019626236199905545
10.98,0.013083522850378218,-0.013083522850378218
10.981,0.004985761593496825,-0.004985761593496825
10.982,0.004155267985965042,0.004155267985965042
10.983,0.013613245591416481,0.013613245591416481
10.984,0.022478865900140657,0.022478865900140657
10.985,0.029729258997980092,0.029729258997980092
10.985999999999999,0.0343402252090926,0.0343402252090926
10.987,0.03543970588196975,0.03543970588196975
10.988,0.03248685103285776,0.03248685103285776
10.988999999999999,0.02544320242071159,0.02544320242071159
10.99,0.014888537185640288,0.014888537185640288
10.991,0.0020323080074055363,0.0020323080074055363
10.991999999999999,0.011412260591116127,-0.011412260591116127
10.993,0.023491449140735424,-0.023491449140735424
10.994,0.03237018526684049,-0.03237018526684049
10.995,0.03670871280470189,-0.03670871280470189
10.996,0.035960359769004954,-0.035960359769004954
10.997,0.030504006695548955,-0.030504006695548955
10.998,0.02156354712724805,-0.02156354712724805
10.999,0.010924412604803596,-0.010924412604803596
11.0,0.0005168246270320322,-0.0005168246270320322
11.001,0.008022679823317563,0.008022679823317563
11.001999999999999,0.013690726143249796,0.013690726143249796
11.003,0.016265257949379892,0.016265257949379892
11.004,0.016228383046003058,0.016228383046003058
11.004999999999999,0.014500009319411698,0.014500009319411698
11.006,0.01207725399511169,0.01207725399511169
11.007,0.009702328036288609,0.009702328036288609
11.008,0.007668229339042004,0.007668229339042004
11.009,0.0058210472188453335,0.0058210472188453335
11.01,0.0037468428606704956,0.0037468428606704956
11.011,0.0010642396085094315,0.0010642396085094315
11.012,0.0022954590213799158,-0.0022954590213799158
11.013,0.005936137467026961,-0.005936137467026961
11.014,0.009043463608984004,-0.009043463608984004
11.014999999999999,0.010628751137292346,-0.010628751137292346
11.016,0.009893762329475511,-0.009893762329475511
11.017,0.006589098785745002,-0.006589098785745002
11.017999999999999,0.0012307066879247688,-0.0012307066879247688
11.019,0.004921408723936118,0.004921408723936118
11.02,0.010142487420465774,0.010142487420465774
11.020999999999999,0.01271322394716568,0.01271322394716568
11.022,0.01144407680738913,0.01144407680738913
11.023,0.006089171968544013,0.006089171968544013
11.024,0.0024894181388189452,-0.0024894181388189452
11.025,0.012474336335893045,-0.012474336335893045
11.026,0.02153334345931149,-0.02153334345931149
11.027,0.027427762850240914,-0.027427762850240914
11.028,0.02861406967038163,-0.02861406967038163
11.029,0.024662135114289923,-0.024662135114289923
11.03,0.016366867597670837,-0.016366867597670837
11.030999999999999,0.0055216684492494774,-0.0055216684492494774
11.032,0.005576502857025173,0.005576502857025173
11.033,0.014741402444877295,0.014741402444877295
11.033999999999999,0.02044957447003412,0.02044957447003412
11.035,0.022172554704615013,0.022172554704615013
11.036,0.02040337330418912,0.02040337330418912
11.036999999999999,0.0163878388000247,0.0163878388000247
11.038,0.01166104767481048,0.01166104767481048
11.039,0.007544992503812684,0.007544992503812684
11.04,0.004767475631822761,0.004767475631822761
11.041,0.003315899746544476,0.003315899746544476
11.042,0.0025583060202441685,0.0025583060202441685
11.043,0.0015753140559566536,0.0015753140559566536
11.044,0.0004208513098482054,-0.0004208513098482054
11.045,0.003729080436810709,-0.003729080436810709
11.046,0.00798823045908613,-0.00798823045908613
11.046999999999999,0.01225164618997299,-0.01225164618997299
11.048,0.015283517497330229,-0.015283517497330229
11.049,0.015978701542428492,-0.015978701542428492
11.049999999999999,0.013765900163502143,-0.013765900163502143
11.051,0.008858155636755488,-0.008858155636755488
11.052,0.0022626749112427736,-0.0022626749112427736
11.052999999999999,0.0044617545931557225,0.0044617545931557225
11.054,0.009631443000478556,0.009631443000478556
11.055,0.01192158845694105,0.01192158845694105
11.056,0.010760988197970183,0.010760988197970183
11.057,0.006517238848830984,0.006517238848830984
11.058,0.00041429596899827985,0.00041429596899827985
11.059,0.005796313489001877,-0.005796313489001877
11.06,0.010316960446681516,-0.010316960446681516
11.061,0.01180053775167013,-0.01180053775167013
11.062,0.009721722636201854,-0.009721722636201854
11.062999999999999,0.004520115960991289,-0.004520115960991289
11.064,0.0025211322361532976,0.0025211322361532976
11.065,0.009622689748945718,0.009622689748945718
11.065999999999999,0.0149822202544485,0.0149822202544485
11.067,0.017241841432521877,0.017241841432521877
11.068,0.015824881807628633,0.015824881807628633
11.068999999999999,0.011057797440377793,0.011057797440377793
11.07,0.0040550757113850845,0.0040550757113850845
11.071,0.0035903763692834126,-0.0035903763692834126
11.072,0.010219584754852393,-0.010219584754852393
11.073,0.014509584868893637,-0.014509584868893637
11.074,0.015762950269152805,-0.015762950269152805
11.075,0.014019972911821726,-0.014019972911821726
11.076,0.009980561593282805,-0.009980561593282805
11.077,0.004773799957415894,-0.004773799957415894
11.078,0.0003508742381077633,0.0003508742381077633
11.078999999999999,0.004324280049241289,0.004324280049241289
11.08,0.006475310642587578,0.006475310642587578
11.081,0.006622217703203888,0.006622217703203888
11.081999999999999,0.005032752401378111,0.005032752401378111
11.083,0.002284094754758914,0.002284094754758914
11.084,0.0009241863277136208,-0.0009241863277136208
11.084999999999999,0.003946648785377707,-0.003946648785377707
11.086,0.006313327968977604,-0.006313327968977604
11.087,0.007775320636190862,-0.007775320636190862
11.088,0.008280576510084426,-0.008280576510084426
11.089,0.007906463339858285,-0.007906463339858285
11.09,0.00678449026170098,-0.00678449026170098
11.091,0.005048127636970042,-0.005048127636970042
11.092,0.002819878780482467,-0.002819878780482467
11.093,0.00023472677541978208,-0.00023472677541978208
11.094,0.0025191402688200504,0.0025191402688200504
11.094999999999999,0.005169162841236558,0.005169162841236558
11.096,0.007360433294229359,0.007360433294229359
11.097,0.00870180594673893,0.00870180594673893
11.097999999999999,0.008849435915559183,0.008849435915559183
11.099,0.007605039168365748,0.007605039168365748
11.1,0.004997414279663811,0.004997414279663811
11.100999999999999,0.001317621416574191,0.001317621416574191
11.102,0.0029095997998406027,-0.0029095997998406027
11.103,0.007016848274589973,-0.007016848274589973
11.104,0.010326917345298824,-0.010326917345298824
11.105,0.012293386368182986,-0.012293386368182986
11.106,0.012611597262103839,-0.012611597262103839
11.107,0.011270861089812371,-0.011270861089812371
11.108,0.00853585938851997,-0.00853585938851997
11.109,0.00486582816448532,-0.00486582816448532
11.11,0.0007976865453773763,-0.0007976865453773763
11.110999999999999,0.003171740269772546,0.003171740269772546
11.112,0.0066715549778090565,0.0066715549778090565
11.113,0.009490400699941401,0.009490400699941401
11.113999999999999,0.011556023625323007,0.011556023625323007
11.115,0.012877002996357715,0.012877002996357715
11.116,0.01347444782626622,0.01347444782626622
11.116999999999999,0.013332793204784919,0.013332793204784919
11.118,0.01238968848850176,0.01238968848850176
11.119,0.010568765363444931,0.010568765363444931
11.12,0.007841676819970545,0.007841676819970545
11.121,0.004293502576174028,0.004293502576174028
11.122,0.0001629303613916818,0.0001629303613916818
11.123,0.0041633475592496045,-0.0041633475592496045
11.124,0.00820657653140257,-0.00820657653140257
11.125,0.011488468678594233,-0.011488468678594233
11.126,0.01363260598086973,-0.01363260598086973
11.126999999999999,0.014442624915810035,-0.014442624915810035
11.128,0.013932190431036063,-0.013932190431036063
11.129,0.012298105281207903,-0.012298105281207903
11.129999999999999,0.009847765559461286,-0.009847765559461286
11.131,0.006908333862969725,-0.006908333862969725
11.132,0.0037512954301126616,-0.0037512954301126616
11.133,0.0005597151543329542,-0.0005597151543329542
11.134,0.002551660878875376,0.002551660878875376
11.135,0.005475323575257347,0.005475323575257347
11.136,0.008039436352512556,0.008039436352512556
11.137,0.009964019836189676,0.009964019836189676
11.138,0.010875954700261392,0.010875954700261392
11.139,0.010393097443705885,0.010393097443705885
11.139999999999999,0.008259950640490423,0.008259950640490423
11.141,0.004492229793653753,0.004492229793653753
11.142,0.0005248396714851741,-0.0005248396714851741
11.142999999999999,0.00603331014195293,-0.00603331014195293
11.144,0.011017882998702846,-0.011017882998702846
11.145,0.014425770178216743,-0.014425770178216743
11.145999999999999,0.01543885155033405,-0.01543885155033405
11.147,0.013720521876854899,-0.013720521876854899
11.148,0.009557080234630765,-0.009557080234630765
11.149,0.0038372251781084747,-0.0038372251781084747
11.15,0.0021419980097802365,0.0021419980097802365
11.151,0.00700131558263057,0.00700131558263057
11.152,0.00965104805102028,0.00965104805102028
11.153,0.00960092263136212,0.00960092263136212
11.154,0.00711109550978445,0.00711109550978445
11.155,0.0031297332682624934,0.0031297332682624934
11.155999999999999,0.0009754352427005763,-0.0009754352427005763
11.157,0.00382059814910034,-0.00382059814910034
11.158,0.00442826585654303,-0.00442826585654303
11.158999999999999,0.002541093989976449,-0.002541093989976449
11.16,0.0012728035658103537,0.0012728035658103537
11.161,0.005763257235303687,0.005763257235303687
11.161999999999999,0.009355823766198852,0.009355823766198852
11.163,0.010622943309412883,0.010622943309412883
11.164,0.008729700582685507,0.008729700582685507
11.165,0.0037191624294056163,0.0037191624294056163
11.166,0.0034525584272690796,-0.0034525584272690796
11.167,0.011147824382750375,-0.011147824382750375
11.168,0.01748220681042933,-0.01748220681042933
11.169,0.020837728914995256,-0.020837728914995256
11.17,0.020305976975319835,-0.020305976975319835
11.171,0.015933398351633925,-0.015933398351633925
11.171999999999999,0.0087004565823204,-0.0087004565823204
11.173,0.0002455708593154877,-0.0002455708593154877
11.174,0.007580664200674914,0.007580664200674914
11.174999999999999,0.013198451102750525,0.013198451102750525
11.176,0.015680772797126822,0.015680772797126822
11.177,0.01493245784752004,0.01493245784752004
11.177999999999999,0.011629839267405663,0.011629839267405663
11.179,0.006957561999879195,0.006957561999879195
11.18,0.0022365001649140744,0.0022365001649140744
11.181,0.001438760848268971,-0.001438760848268971
11.182,0.0034486794112258317,-0.0034486794112258317
11.183,0.0037254417078701543,-0.0037254417078701543
11.184,0.002659592578913028,-0.002659592578913028
11.185,0.0008923322685147333,-0.0008923322685147333
11.186,0.0009212950376489915,0.0009212950376489915
11.187,0.002295938679357568,0.002295938679357568
11.187999999999999,0.002995307285853984,0.002995307285853984
11.189,0.0030028359900750676,0.0030028359900750676
11.19,0.0024219580772068964,0.0024219580772068964
11.190999999999999,0.0013674115917497725,0.0013674115917497725
11.192,9.548933649350966e-05,-9.548933649350966e-05
11.193,0.0019356883773256253,-0.0019356883773256253
11.193999999999999,0.0040780694026270525,-0.0040780694026270525
11.195,0.00630959510520183,-0.00630959510520183
11.196,0.008231277511098116,-0.008231277511098116
11.197,0.00930304026086282,-0.00930304026086282
11.198,0.008990475548691593,-0.008990475548691593
11.199,0.006975100576341827,-0.006975100576341827
11.2,0.0033522148679223426,-0.0033522148679223426
11.201,0.0012704057862799032,0.0012704057862799032
11.202,0.005836455985805085,0.005836455985805085
11.203,0.00907900855255034,0.00907900855255034
11.203999999999999,0.00987966080348712,0.00987966080348712
11.205,0.007643360063318519,0.007643360063318519
11.206,0.002562690914109392,0.002562690914109392
11.206999999999999,0.004332188706703242,-0.004332188706703242
11.208,0.011380254777604274,-0.011380254777604274
11.209,0.016713014224189596,-0.016713014224189596
11.209999999999999,0.018778847488055563,-0.018778847488055563
11.211,0.016810034852985867,-0.016810034852985867
11.212,0.011081880602715914,-0.011081880602715914
11.213,0.0028717168809127324,-0.0028717168809127324
11.214,0.005882342519710592,0.005882342519710592
11.215,0.013126613992012431,0.013126613992012431
11.216,0.017276194701756738,0.017276194701756738
11.217,0.01765696012919612,0.01765696012919612
11.218,0.014666176390536084,0.014666176390536084
11.219,0.009601710795901566,0.009601710795901566
11.219999999999999,0.0042167128304565525,0.0042167128304565525
11.221,0.00014598008382529171,0.00014598008382529171
11.222,0.001608182105685733,-0.001608182105685733
11.222999999999999,0.0009634906942902443,-0.0009634906942902443
11.224,0.0012719325134792933,0.0012719325134792933
11.225,0.0037298902889519674,0.0037298902889519674
11.225999999999999,0.0049954736308685625,0.0049954736308685625
11.227,0.004124750237928582,0.004124750237928582
11.228,0.0009881989050872359,0.0009881989050872359
11.229,0.0036773338226645576,-0.0036773338226645576
11.23,0.008523834792643896,-0.008523834792643896
11.231,0.01206345560888939,-0.01206345560888939
11.232,0.013190041126828988,-0.013190041126828988
11.233,0.011567888757653497,-0.011567888757653497
11.234,0.0077516313246984,-0.0077516313246984
11.235,0.002995626886416091,-0.002995626886416091
11.235999999999999,0.0011796352997204232,0.0011796352997204232
11.237,0.003511121307283695,0.003511121307283695
11.238,0.00342216160608373,0.00342216160608373
11.238999999999999,0.0012055198654967753,0.0012055198654967753
11.24,0.0021033878911278165,-0.0021033878911278165
11.241,0.0051169026092898326,-0.0051169026092898326
11.241999999999999,0.006608595174322797,-0.006608595174322797
11.243,0.005964445026540211,-0.005964445026540211
11.244,0.003407528898799788,-0.003407528898799788
11.245,8.769603712805125e-05,8.769603712805125e-05
11.246,0.003163953493063045,0.003163953493063045
11.247,0.0046016880503893425,0.0046016880503893425
11.248,0.003802614049650679,0.003802614049650679
11.249,0.0010559565304947875,0.0010559565304947875
11.25,0.002519280379643209,-0.002519280379643209
11.251,0.005348832256184083,-0.005348832256184083
11.251999999999999,0.005972714084617519,-0.005972714084617519
11.253,0.003613194682389289,-0.003613194682389289
11.254,0.0014631030696734802,0.0014631030696734802
11.254999999999999,0.007929496762454151,0.007929496762454151
11.256,0.013755561192052915,0.013755561192052915
11.257,0.01683361271584102,0.01683361271584102
11.258,0.015676997261327787,0.015676997261327787
11.259,0.009959947433082053,0.009959947433082053
11.26,0.000713649044932019,0.000713649044932019
11.261,0.009899021557608247,-0.009899021557608247
11.262,0.01917206952798654,-0.01917206952798654
11.263,0.024631747257398934,-0.024631747257398934
11.264,0.02476005877479801,-0.02476005877479801
11.264999999999999,0.01944253524779115,-0.01944253524779115
11.266,0.010003138073087175,-0.010003138073087175
11.267,0.0011809140954501406,0.0011809140954501406
11.267999999999999,0.011361087292020941,0.011361087292020941
11.269,0.018184051426755204,0.018184051426755204
11.27,0.020311065944782915,0.020311065944782915
11.270999999999999,0.017712739574273738,0.017712739574273738
11.272,0.011569743320953488,0.011569743320953488
11.273,0.003835107885060809,0.003835107885060809
11.274,0.0033853179479539025,-0.0033853179479539025
11.275,0.008432323649169179,-0.008432323649169179
11.276,0.01049279569932163,-0.01049279569932163
11.277,0.009697548466156935,-0.009697548466156935
11.278,0.0069212313208411175,-0.0069212313208411175
11.279,0.0033837454975857513,-0.0033837454975857513
11.28,0.0002074096958760836,-0.0002074096958760836
11.280999999999999,0.0019175858927657468,0.0019175858927657468
11.282,0.0028604177803963383,0.0028604177803963383
11.283,0.002953613428676243,0.002953613428676243
11.283999999999999,0.002739274578224969,0.002739274578224969
11.285,0.0026741153967381947,0.0026741153967381947
11.286,0.0029143579386058825,0.0029143579386058825
11.286999999999999,0.0032607309380833166,0.0032607309380833166
11.288,0.003275393569365991,0.003275393569365991
11.289,0.002513386075796117,0.002513386075796117
11.29,0.0007671245469118303,0.0007671245469118303
11.291,0.0017808560694476795,-0.0017808560694476795
11.292,0.0045642455882462666,-0.0045642455882462666
11.293,0.006802618637452587,-0.006802618637452587
11.294,0.007774176693625638,-0.007774176693625638
11.295,0.007089815850148523,-0.007089815850148523
11.296,0.004863593286960688,-0.004863593286960688
11.296999999999999,0.0017108924316895679,-0.0017108924316895679
11.298,0.0014322410499933065,0.0014322410499933065
11.299,0.0036098362286749765,0.0036098362286749765
11.299999999999999,0.004163454464361095,0.004163454464361095
11.301,0.0029552611177354306,0.0029552611177354306
11.302,0.000417485944340029,0.000417485944340029
11.302999999999999,0.002590839732434914,-0.002590839732434914
11.304,0.005071987640081538,-0.005071987640081538
11.305,0.006224321692470911,-0.006224321692470911
11.306,0.005709537710133503,-0.005709537710133503
11.307,0.003761564196941194,-0.003761564196941194
11.308,0.0011008084254069501,-0.0011008084254069501
11.309,0.0013161605944861823,0.0013161605944861823
11.31,0.002625935798509863,0.002625935798509863
11.311,0.002355217756864228,0.002355217756864228
11.312,0.0005860150871508385,0.0005860150871508385
11.312999999999999,0.002065200993764225,-0.002065200993764225
11.314,0.00464637034480691,-0.00464637034480691
11.315,0.006180282408884623,-0.006180282408884623
11.315999999999999,0.005984725968689153,-0.005984725968689153
11.317,0.003899081312974612,-0.003899081312974612
11.318,0.0003460181370960112,-0.0003460181370960112
11.318999999999999,0.0037892190548661424,0.0037892190548661424
11.32,0.007421785403262083,0.007421785403262083
11.321,0.009589212576997283,0.009589212576997283
11.322,0.009733447772156725,0.009733447772156725
11.323,0.007859282524112898,0.007859282524112898
11.324,0.004525415359204666,0.004525415359204666
11.325,0.0006754891301288774,0.0006754891301288774
11.326,0.002637200581834821,-0.002637200581834821
11.327,0.004549329390212058,-0.004549329390212058
11.328,0.004626194145837243,-0.004626194145837243
11.328999999999999,0.0029748860511940186,-0.0029748860511940186
11.33,0.00020478091022712677,-0.00020478091022712677
11.331,0.0027495027544990904,0.0027495027544990904
11.331999999999999,0.004891731270581827,0.004891731270581827
11.333,0.005442750927940344,0.005442750927940344
11.334,0.004061262888928589,0.004061262888928589
11.334999999999999,0.0009501648451741943,0.0009501648451741943
11.336,0.0031787810936950334,-0.0031787810936950334
11.337,0.007274512426794014,-0.007274512426794014
11.338,0.010210737613778798,-0.010210737613778798
11.339,0.011081668553256105,-0.011081668553256105
11.34,0.009457337022152686,-0.009457337022152686
11.341,0.0055331931808241756,-0.0055331931808241756
11.342,0.00013065131095251294,-0.00013065131095251294
11.343,0.005461420576855927,0.005461420576855927
11.344,0.009776135537715355,0.009776135537715355
11.344999999999999,0.011526313863937281,0.011526313863937281
11.346,0.009945753004573014,0.009945753004573014
11.347,0.005026506580048166,0.005026506580048166
11.347999999999999,0.0024159070228151358,-0.0024159070228151358
11.349,0.010878431320785847,-0.010878431320785847
11.35,0.01848650045938842,-0.01848650045938842
11.350999999999999,0.02342063442905973,-0.02342063442905973
11.352,0.02435082514417408,-0.02435082514417408
11.353,0.020768573773058525,-0.020768573773058525
11.354,0.01312889698519764,-0.01312889698519764
11.355,0.002762280397924902,-0.002762280397924902
11.356,0.008423069961261756,0.008423069961261756
11.357,0.01837228389511781,0.01837228389511781
11.358,0.025336591207322574,0.025336591207322574
11.359,0.028232544335518674,0.028232544335518674
11.36,0.026821622592566267,0.026821622592566267
11.360999999999999,0.021677236605280998,0.021677236605280998
11.362,0.013966736468789747,0.013966736468789747
11.363,0.005125363648037038,0.005125363648037038
11.363999999999999,0.0034777390693189244,-0.0034777390693189244
11.365,0.010790480646096716,-0.010790480646096716
11.366,0.016191571833777396,-0.016191571833777396
11.366999999999999,0.019463661538408422,-0.019463661538408422
11.368,0.020669147024350444,-0.020669147024350444
11.369,0.019998652216300913,-0.019998652216300913
11.37,0.01766060301066497,-0.01766060301066497
11.371,0.013852701540156876,-0.013852701540156876
11.372,0.008814158889520602,-0.008814158889520602
11.373,0.002918141483020864,-0.002918141483020864
11.374,0.0032573258978115262,0.0032573258978115262
11.375,0.00893620588120401,0.00893620588120401
11.376,0.01325472114655617,0.01325472114655617
11.376999999999999,0.015456804615760726,0.015456804615760726
11.378,0.015116253248786968,0.015116253248786968
11.379,0.012306809012598048,0.012306809012598048
11.379999999999999,0.007650147690858109,0.007650147690858109
11.381,0.002207966848970469,0.002207966848970469
11.382,0.002764027156421286,-0.002764027156421286
11.383,0.006133714805460013,-0.006133714805460013
11.384,0.007187272692161474,-0.007187272692161474
11.385,0.005810173413007589,-0.005810173413007589
11.386,0.002498515138090925,-0.002498515138090925
11.387,0.0018008809325580006,0.0018008809325580006
11.388,0.005968122991373698,0.005968122991373698
11.389,0.00901577436327017,0.00901577436327017
11.39,0.010327282004259145,0.010327282004259145
11.391,0.00976088257147248,0.00976088257147248
11.392,0.00760125012131345,0.00760125012131345
11.392999999999999,0.004394516960757143,0.004394516960757143
11.394,0.000739765764048948,0.000739765764048948
11.395,0.002881722533797781,-0.002881722533797781
11.395999999999999,0.0061814270007118505,-0.0061814270007118505
11.397,0.00902950060446627,-0.00902950060446627
11.398,0.011346537821070217,-0.011346537821070217
11.399,0.012988106789866323,-0.012988106789866323
11.4,0.013691604742686185,-0.013691604742686185
11.401,0.013126627849288242,-0.013126627849288242
11.402,0.011041540046478997,-0.011041540046478997
11.403,0.007449790981553602,-0.007449790981553602
11.404,0.002770533360333507,-0.002770533360333507
11.405,0.002156917662882365,0.002156917662882365
11.405999999999999,0.006225134723570471,0.006225134723570471
11.407,0.008355072712013628,0.008355072712013628
11.408,0.007852834665325234,0.007852834665325234
11.408999999999999,0.004705108355560281,0.004705108355560281
11.41,0.00030412995399325336,-0.00030412995399325336
11.411,0.005724592824395061,-0.005724592824395061
11.411999999999999,0.009808189176179583,-0.009808189176179583
11.413,0.011021068489512174,-0.011021068489512174
11.414,0.008546140568695529,-0.008546140568695529
11.415,0.00261143540294662,-0.00261143540294662
11.416,0.005476971361946759,0.005476971361946759
11.417,0.013631690675423027,0.013631690675423027
11.418,0.01954077215095106,0.01954077215095106
11.419,0.021328031738156214,0.021328031738156214
11.42,0.018120239128139263,0.018120239128139263
11.421,0.010345622201429852,0.010345622201429852
11.421999999999999,0.00033432406666224104,-0.00033432406666224104
11.423,0.011447641786078664,-0.011447641786078664
11.424,0.02036941316832348,-0.02036941316832348
11.424999999999999,0.025022867280649553,-0.025022867280649553
11.426,0.024421026720237573,-0.024421026720237573
11.427,0.01889639191644902,-0.01889639191644902
11.427999999999999,0.009962388783416634,-0.009962388783416634
11.429,0.00013903583789207148,0.00013903583789207148
11.43,0.009059292545241978,0.009059292545241978
11.431,0.014948165647413697,0.014948165647413697
11.432,0.016872642179755763,0.016872642179755763
11.433,0.014947726456365327,0.014947726456365327
11.434,0.010171113287785624,0.010171113287785624
11.435,0.004042154411254034,0.004042154411254034
11.436,0.0018987015570725175,-0.0018987015570725175
11.437,0.0064659379930022826,-0.0064659379930022826
11.437999999999999,0.009054617260488652,-0.009054617260488652
11.439,0.009657215527619138,-0.009657215527619138
11.44,0.008704691021901318,-0.008704691021901318
11.440999999999999,0.006816129341160081,-0.006816129341160081
11.442,0.004557386219008112,-0.004557386219008112
11.443,0.0022886183098306733,-0.0022886183098306733
11.443999999999999,0.00013504814955625068,-0.00013504814955625068
11.445,0.001935940301053602,0.001935940301053602
11.446,0.003985856556777295,0.003985856556777295
11.447,0.005990346726785661,0.005990346726785661
11.448,0.007788851473768194,0.007788851473768194
11.449,0.00911494948005011,0.00911494948005011
11.45,0.00968695160138464,0.00968695160138464
11.451,0.009313964521961036,0.009313964521961036
11.452,0.00796955192108381,0.00796955192108381
11.453,0.005802843942744983,0.005802843942744983
11.453999999999999,0.003086458328681077,0.003086458328681077
11.455,0.0001284586907073114,0.0001284586907073114
11.456,0.002810291610854155,-0.002810291610854155
11.456999999999999,0.005557321622659936,-0.005557321622659936
11.458,0.008014056659660165,-0.008014056659660165
11.459,0.010099616836550961,-0.010099616836550961
11.459999999999999,0.01168855345261967,-0.01168855345261967
11.461,0.012583079899383103,-0.012583079899383103
11.462,0.012545546805202852,-0.012545546805202852
11.463,0.011388103935479501,-0.011388103935479501
11.464,0.009085941981650969,-0.009085941981650969
11.465,0.005862033411583292,-0.005862033411583292
11.466,0.002194442804617022,-0.002194442804617022
11.467,0.0012769770426738236,0.0012769770426738236
11.468,0.003927936380102901,0.003927936380102901
11.469,0.005356042541791077,0.005356042541791077
11.469999999999999,0.005539961823304736,0.005539961823304736
11.471,0.004882145639004703,0.004882145639004703
11.472,0.004101076428439655,0.004101076428439655
11.472999999999999,0.003991753535102398,0.003991753535102398
11.474,0.005124926519746604,0.005124926519746604
11.475,0.0075867029466431205,0.0075867029466431205
11.475999999999999,0.01085714909532806,0.01085714909532806
11.477,0.013887581954254897,0.013887581954254897
11.478,0.015372673808116168,0.015372673808116168
11.479,0.014146144776461615,0.014146144776461615
11.48,0.009581132890154994,0.009581132890154994
11.481,0.001865973462508252,0.001865973462508252
11.482,0.007941522620768702,-0.007941522620768702
11.483,0.018112340538162783,-0.018112340538162783
11.484,0.026649762211567164,-0.026649762211567164
11.485,0.03178563254877663,-0.03178563254877663
11.485999999999999,0.032426666462065504,-0.032426666462065504
11.487,0.028422783359029435,-0.028422783359029435
11.488,0.02058418672174819,-0.02058418672174819
11.488999999999999,0.010450413440037463,-0.010450413440037463
11.49,0.00011231427788832136,0.00011231427788832136
11.491,0.009362812184374944,0.009362812184374944
11.491999999999999,0.016057377396088073,0.016057377396088073
11.493,0.019649092801963107,0.019649092801963107
11.494,0.02028110089897026,0.02028110089897026
11.495,0.018606517098150824,0.018606517098150824
11.496,0.015515774331686766,0.015515774331686766
11.497,0.011868373840659734,0.011868373840659734
11.498,0.008307962140023896,0.008307962140023896
11.499,0.005197322184216266,0.005197322184216266
11.5,0.002661086360123261,0.002661086360123261
11.501,0.0006873881641430138,0.0006873881641430138
11.501999999999999,0.0007722879056359168,-0.0007722879056359168
11.503,0.001751201420667893,-0.001751201420667893
11.504,0.002277102150488639,-0.002277102150488639
11.504999999999999,0.0024224038907747964,-0.0024224038907747964
11.506,0.00235166813464265,-0.00235166813464265
11.507,0.002323799135477207,-0.002323799135477207
11.508,0.002628792646065879,-0.002628792646065879
11.509,0.0034731943786560256,-0.0034731943786560256
11.51,0.004859203583475884,-0.004859203583475884
11.511,0.0065152325896119904,-0.0065152325896119904
11.512,0.00792342375958385,-0.00792342375958385
11.513,0.008455219750044075,-0.008455219750044075
11.514,0.0075821963351891015,-0.0075821963351891015
11.515,0.00509342408603812,-0.00509342408603812
11.516,0.0012380463338253359,-0.0012380463338253359
11.517,0.003270316542102924,0.003270316542102924
11.517999999999999,0.0074067104085146565,0.0074067104085146565
11.519,0.010109634998919752,0.010109634998919752
11.52,0.010595081730086145,0.010595081730086145
11.520999999999999,0.00860756568171796,0.00860756568171796
11.522,0.004521443373533709,0.004521443373533709
11.523,0.0007471829618180864,-0.0007471829618180864
11.524,0.005994875677891832,-0.005994875677891832
11.525,0.01007187217322232,-0.01007187217322232
11.526,0.012199899397940703,-0.012199899397940703
11.527,0.01216466396184539,-0.01216466396184539
11.528,0.010324086435859386,-0.010324086435859386
11.529,0.007436993668996394,-0.007436993668996394
11.53,0.004378455015221225,-0.004378455015221225
11.530999999999999,0.0018452578380357464,-0.0018452578380357464
11.532,0.0001548480030690298,-0.0001548480030690298
11.533,0.0007962947053305003,0.0007962947053305003
11.533999999999999,0.0014095422441506294,0.0014095422441506294
11.535,0.00215250906840749,0.00215250906840749
11.536,0.0033148648573139623,0.0033148648573139623
11.536999999999999,0.00485060048121071,0.00485060048121071
11.538,0.006371201685328363,0.006371201685328363
11.539,0.007294834016805599,0.007294834016805599
11.54,0.007094780483758492,0.007094780483758492
11.541,0.005549401466709522,0.005549401466709522
11.542,0.002891641823564705,0.002891641823564705
11.543,0.00020911145044303015,-0.00020911145044303015
11.544,0.002838479157313321,-0.002838479157313321
11.545,0.00414166306678905,-0.00414166306678905
11.546,0.00363527681202066,-0.00363527681202066
11.546999999999999,0.0014125076841855079,-0.0014125076841855079
11.548,0.0018388397755875765,0.0018388397755875765
11.549,0.005022093176208116,0.005022093176208116
11.549999999999999,0.00696633825229257,0.00696633825229257
11.551,0.006801240136873881,0.006801240136873881
11.552,0.0042469528438233515,0.0042469528438233515
11.552999999999999,0.0002788173414130871,-0.0002788173414130871
11.554,0.005773090702510646,-0.005773090702510646
11.555,0.010941639469491128,-0.010941639469491128
11.556,0.014576534732480608,-0.014576534732480608
11.557,0.015893036147162035,-0.015893036147162035
11.558,0.014719061178752607,-0.014719061178752607
11.559,0.011484375523518636,-0.011484375523518636
11.56,0.007027196497286306,-0.007027196497286306
11.561,0.0022975903624427242,-0.0022975903624427242
11.562,0.001931984710383945,0.001931984710383945
11.562999999999999,0.0052486875074928595,0.0052486875074928595
11.564,0.007619749623941811,0.007619749623941811
11.565,0.009261553113038296,0.009261553113038296
11.565999999999999,0.010425420749415088,0.010425420749415088
11.567,0.011198059575408523,0.011198059575408523
11.568,0.011405475493883897,0.011405475493883897
11.568999999999999,0.010664980216932907,0.010664980216932907
11.57,0.008567837187283581,0.008567837187283581
11.571,0.004919165834677023,0.004919165834677023
11.572,6.622562538079855e-05,-6.622562538079855e-05
11.573,0.005701982776262068,-0.005701982776262068
11.574,0.010944851789016646,-0.010944851789016646
11.575,0.014662173118495294,-0.014662173118495294
11.576,0.015968185090701966,-0.015968185090701966
11.577,0.01451353766966974,-0.01451353766966974
11.578,0.010622472461218708,-0.010622472461218708
11.578999999999999,0.005221453215868361,-0.005221453215868361
11.58,0.00042527958368708974,0.00042527958368708974
11.581,0.005089235183374273,0.005089235183374273
11.581999999999999,0.007935887144994262,0.007935887144994262
11.583,0.0087461762674705,0.0087461762674705
11.584,0.007926153024799518,0.007926153024799518
11.584999999999999,0.006303380926428478,0.006303380926428478
11.586,0.004784103279664182,0.004784103279664182
11.587,0.003995256130095045,0.003995256130095045
11.588,0.004041906898626872,0.004041906898626872
11.589,0.004470603209697648,0.004470603209697648
11.59,0.00445595624556699,0.00445595624556699
11.591,0.003147009216709226,0.003147009216709226
11.592,5.005548250368405e-05,5.005548250368405e-05
11.593,0.004692893602486643,-0.004692893602486643
11.594,0.01023889523581536,-0.01023889523581536
11.594999999999999,0.015229971852686881,-0.015229971852686881
11.596,0.01818170312047224,-0.01818170312047224
11.597,0.01795405879085835,-0.01795405879085835
11.597999999999999,0.014151070013285017,-0.014151070013285017
11.599,0.00731382683382354,-0.00731382683382354
11.6,0.0011653524444634356,0.0011653524444634356
11.600999999999999,0.00939154401096665,0.00939154401096665
11.602,0.01547846745185378,0.01547846745185378
11.603,0.018069565181150094,0.018069565181150094
11.604,0.016711892707571178,0.016711892707571178
11.605,0.01197094660078264,0.01197094660078264
11.606,0.005254095187177871,0.005254095187177871
11.607,0.0016014629804509105,-0.0016014629804509105
11.608,0.0068510655198728435,-0.0068510655198728435
11.609,0.009320810375164853,-0.009320810375164853
11.61,0.008705331652448625,-0.008705331652448625
11.610999999999999,0.005606937867818464,-0.005606937867818464
11.612,0.0013164949123212484,-0.0013164949123212484
11.613,0.00258923196867144,0.00258923196867144
11.613999999999999,0.004710840868861781,0.004710840868861781
11.615,0.004217581365582607,0.004217581365582607
11.616,0.001062971884458345,0.001062971884458345
11.616999999999999,0.004023051462144122,-0.004023051462144122
11.618,0.009748757197530503,-0.009748757197530503
11.619,0.014611300143776531,-0.014611300143776531
11.62,0.017283170181561322,-0.017283170181561322
11.621,0.01693427474629802,-0.01693427474629802
11.622,0.013415658399135109,-0.013415658399135109
11.623,0.007272557375590922,-0.007272557375590922
11.624,0.00040128012754104425,0.00040128012754104425
11.625,0.008220772578917871,0.008220772578917871
11.626,0.01481158379315798,0.01481158379315798
11.626999999999999,0.01908868331373025,0.01908868331373025
11.628,0.020455770570865138,0.020455770570865138
11.629,0.018891903124858073,0.018891903124858073
11.629999999999999,0.01491690714578001,0.01491690714578001
11.631,0.009450836486113237,0.009450836486113237
11.632,0.0036015951706317743,0.0036015951706317743
11.633,0.0015731881576335433,-0.0015731881576335433
11.634,0.005280153534488166,-0.005280153534488166
11.635,0.00713538921436409,-0.00713538921436409
11.636,0.007210291612415447,-0.007210291612415447
11.637,0.005969207212967886,-0.005969207212967886
11.638,0.004115331033720824,-0.004115331033720824
11.639,0.002384793973640032,-0.002384793973640032
11.64,0.0013438450925720268,-0.0013438450925720268
11.641,0.001245062311056357,-0.001245062311056357
11.642,0.0019834646478884416,-0.0019834646478884416
11.642999999999999,0.0031649444474369246,-0.0031649444474369246
11.644,0.004265119330496702,-0.004265119330496702
11.645,0.004827054848792522,-0.004827054848792522
11.645999999999999,0.004631587983480167,-0.004631587983480167
11.647,0.003780484302374056,-0.003780484302374056
11.648,0.002659984256773314,-0.002659984256773314
11.649,0.0017927127047618666,-0.0017927127047618666
11.65,0.0016263815014640392,-0.0016263815014640392
11.651,0.0023339592027851862,-0.0023339592027851862
11.652,0.003701568295299069,-0.003701568295299069
11.653,0.005154737402571162,-0.005154737402571162
11.654,0.005927700295198599,-0.005927700295198599
11.655,0.005328900076165756,-0.005328900076165756
11.655999999999999,0.0030165931884979457,-0.0030165931884979457
11.657,0.0008136299777637286,0.0008136299777637286
11.658,0.005406029686820505,0.005406029686820505
11.658999999999999,0.009612929037819663,0.009612929037819663
11.66,0.012216562670833257,0.012216562670833257
11.661,0.012311124364080644,0.012311124364080644
11.661999999999999,0.009623058613125741,0.009623058613125741
11.663,0.004658334509142102,0.004658334509142102
11.664,0.0013856689349263471,-0.0013856689349263471
11.665,0.006933021059989325,-0.006933021059989325
11.666,0.01048208019640177,-0.01048208019640177
11.667,0.011062948712989252,-0.011062948712989252
11.668,0.008555040313516898,-0.008555040313516898
11.669,0.0037575915798079653,-0.0037575915798079653
11.67,0.0018204069216873004,0.0018204069216873004
11.671,0.006396925502582457,0.006396925502582457
11.671999999999999,0.008452844507271753,0.008452844507271753
11.673,0.007204340453414566,0.007204340453414566
11.674,0.002864041522693974,0.002864041522693974
11.674999999999999,0.003394654106234819,-0.003394654106234819
11.676,0.009765451527132023,-0.009765451527132023
11.677,0.014334215255168068,-0.014334215255168068
11.677999999999999,0.015644216252125573,-0.015644216252125573
11.679,0.013130735077222008,-0.013130735077222008
11.68,0.007293140084872146,-0.007293140084872146
11.681,0.0004476695847891819,0.0004476695847891819
11.682,0.008162788785983926,0.008162788785983926
11.683,0.013974098407469942,0.013974098407469942
11.684,0.016589617736724724,0.016589617736724724
11.685,0.01565564063121032,0.01565564063121032
11.686,0.011823392143474122,0.011823392143474122
11.687,0.006515709886528134,0.006515709886528134
11.687999999999999,0.0014699388922263662,0.0014699388922263662
11.689,0.0018008633122282016,-0.0018008633122282016
11.69,0.002464677330984123,-0.002464677330984123
11.690999999999999,0.0006096420078324534,-0.0006096420078324534
11.692,0.002801863807138256,0.002801863807138256
11.693,0.006244952383162218,0.006244952383162218
11.693999999999999,0.008111909447492262,0.008111909447492262
11.695,0.007214490473198851,0.007214490473198851
11.696,0.0031602215858265222,0.0031602215858265222
11.697,0.0035055317171251103,-0.0035055317171251103
11.698,0.011429348862972531,-0.011429348862972531
11.699,0.018809846414686793,-0.018809846414686793
11.7,0.023882034163459125,-0.023882034163459125
11.701,0.02538795329151548,-0.02538795329151548
11.702,0.02290391150999874,-0.02290391150999874
11.703,0.016938973677691906,-0.016938973677691906
11.703999999999999,0.008785583648063446,-0.008785583648063446
11.705,0.0001717293920730652,-0.0001717293920730652
11.706,0.007184196733866098,0.007184196733866098
11.706999999999999,0.01199312452708348,0.01199312452708348
11.708,0.013679812416767,0.013679812416767
11.709,0.012464343913976411,0.012464343913976411
11.709999999999999,0.009230977781784612,0.009230977781784612
11.711,0.005232421132248564,0.005232421132248564
11.712,0.0017193194537338404,0.0017193194537338404
11.713,0.00039990664589349955,-0.00039990664589349955
11.714,0.0007776258968992593,-0.0007776258968992593
11.715,0.00032929203015859276,0.00032929203015859276
11.716,0.0021930328236970578,0.0021930328236970578
11.717,0.0038786307623104943,0.0038786307623104943
11.718,0.0045562621954645345,0.0045562621954645345
11.719,0.003769330722224236,0.003769330722224236
11.719999999999999,0.0015807921120388722,0.0015807921120388722
11.721,0.0014432484879538365,-0.0014432484879538365
11.722,0.004406068568026523,-0.004406068568026523
11.722999999999999,0.006357192992189697,-0.006357192992189697
11.724,0.006591603755229172,-0.006591603755229172
11.725,0.0048825992599574874,-0.0048825992599574874
11.725999999999999,0.0015783269093889137,-0.0015783269093889137
11.727,0.0024690488291527852,0.0024690488291527852
11.728,0.006124422426683751,0.006124422426683751
11.729,0.008280327839101731,0.008280327839101731
11.73,0.008169820687048258,0.008169820687048258
11.731,0.005592944969973802,0.005592944969973802
11.732,0.0009921045386647447,0.0009921045386647447
11.733,0.004645641162975094,-0.004645641162975094
11.734,0.01003242265713625,-0.01003242265713625
11.735,0.013901825126867341,-0.013901825126867341
11.735999999999999,0.015321113854619798,-0.015321113854619798
11.737,0.013910135932941792,-0.013910135932941792
11.738,0.009912674388216814,-0.009912674388216814
11.738999999999999,0.004109705678908263,-0.004109705678908263
11.74,0.0023912910631051065,0.0023912910631051065
11.741,0.008424694315606605,0.008424694315606605
11.741999999999999,0.013016189564581273,0.013016189564581273
11.743,0.015550277361252396,0.015550277361252396
11.744,0.015824476801862827,0.015824476801862827
11.745,0.013997217309442424,0.013997217309442424
11.746,0.01046829660825505,0.01046829660825505
11.747,0.005745824439767382,0.005745824439767382
11.748,0.00034770884340897993,0.00034770884340897993
11.749,0.005237475995490289,-0.005237475995490289
11.75,0.010536207756779123,-0.010536207756779123
11.751,0.01505431102565896,-0.01505431102565896
11.751999999999999,0.018262650936749295,-0.018262650936749295
11.753,0.01963812546929064,-0.01963812546929064
11.754,0.01876827754472058,-0.01876827754472058
11.754999999999999,0.015495375551921846,-0.015495375551921846
11.756,0.010049401326760365,-0.010049401326760365
11.757,0.003110418074560762,-0.003110418074560762
11.758,0.004245292424979418,0.004245292424979418
11.759,0.010726989713078344,0.010726989713078344
11.76,0.015107402334578005,0.015107402334578005
11.761,0.01652713411067979,0.01652713411067979
11.762,0.014737411760272103,0.014737411760272103
11.763,0.010202295950694315,0.010202295950694315
11.764,0.004017546478365958,0.004017546478365958
11.765,0.002343937886592094,-0.002343937886592094
11.766,0.007397133382552162,-0.007397133382552162
11.767,0.0100212406328874,-0.0100212406328874
11.767999999999999,0.009741337529214297,-0.009741337529214297
11.769,0.0068347816187264215,-0.0068347816187264215
11.77,0.002232389627510122,-0.002232389627510122
11.770999999999999,0.002755411624573131,0.002755411624573131
11.772,0.00680626999088296,0.00680626999088296
11.773,0.00894027743794908,0.00894027743794908
11.774,0.008760772962126602,0.008760772962126602
11.775,0.006518353710915771,0.006518353710915771
11.776,0.0029897549937825414,0.0029897549937825414
11.777,0.0007816406145301058,-0.0007816406145301058
11.778,0.0037987586302704736,-0.0037987586302704736
11.779,0.005382269653334076,-0.005382269653334076
11.78,0.005325169996668062,-0.005325169996668062
11.780999999999999,0.003896557338180673,-0.003896557338180673
11.782,0.0017092343705361979,-0.0017092343705361979
11.783,0.0004944501804911865,0.0004944501804911865
11.783999999999999,0.0020651942074110547,0.0020651942074110547
11.785,0.002610684130793529,0.002610684130793529
11.786,0.0020608077590416967,0.0020608077590416967
11.786999999999999,0.0006307936358660599,0.0006307936358660599
11.788,0.0012880098239050324,-0.0012880098239050324
11.789,0.0032615491477727973,-0.0032615491477727973
11.79,0.0049234297041524325,-0.0049234297041524325
11.791,0.006032630535202002,-0.006032630535202002
11.792,0.006474784092117299,-0.006474784092117299
11.793,0.006226341548571776,-0.006226341548571776
11.794,0.005312438184875133,-0.005312438184875133
11.795,0.0037855370757078647,-0.0037855370757078647
11.796,0.0017357934415332974,-0.0017357934415332974
11.796999999999999,0.0006765655572971964,0.0006765655572971964
11.798,0.0031921101818279843,0.0031921101818279843
11.799,0.005454724286662846,0.005454724286662846
11.799999999999999,0.007062844283772042,0.007062844283772042
11.801,0.007664930889959731,0.007664930889959731
11.802,0.0070717531638315395,0.0070717531638315395
11.802999999999999,0.005343830886172477,0.005343830886172477
11.804,0.002814009795976939,0.002814009795976939
11.805,2.38135553395531e-05,2.38135553395531e-05
11.806,0.002417743327745014,-0.002417743327745014
11.807,0.00401352229594916,-0.00401352229594916
11.808,0.00453708819982661,-0.00453708819982661
11.809,0.004112855721635072,-0.004112855721635072
11.81,0.003181680497465722,-0.003181680497465722
11.811,0.002353705803693519,-0.002353705803693519
11.812,0.0021908588770371295,-0.0021908588770371295
11.812999999999999,0.0029903061440225255,-0.0029903061440225255
11.814,0.004646011845921289,-0.004646011845921289
11.815,0.006644393913357608,-0.006644393913357608
11.815999999999999,0.008207420097105603,-0.008207420097105603
11.817,0.008545834279067663,-0.008545834279067663
11.818,0.007143751849130173,-0.007143751849130173
11.818999999999999,0.003978683510099565,-0.003978683510099565
11.82,0.00040431318769010115,0.00040431318769010115
11.821,0.005002195321369112,0.005002195321369112
11.822,0.00862582859559811,0.00862582859559811
11.823,0.010256992687785054,0.010256992687785054
11.824,0.009379808670987354,0.009379808670987354
11.825,0.006177205364086725,0.006177205364086725
11.826,0.0015204694550616745,0.0015204694550616745
11.827,0.0032571387006445907,-0.0032571387006445907
11.828,0.006742777540352572,-0.006742777540352572
11.828999999999999,0.007869797800290738,-0.007869797800290738
11.83,0.006255561882668056,-0.006255561882668056
11.831,0.002342534718342916,-0.002342534718342916
11.831999999999999,0.002708186962885815,0.002708186962885815
11.833,0.0073459097576343635,0.0073459097576343635
11.834,0.010086930668632761,0.010086930668632761
11.834999999999999,0.009961850059690584,0.009961850059690584
11.836,0.006816993490987216,0.006816993490987216
11.837,0.0013762140393428987,0.0013762140393428987
11.838,0.004958007394993786,-0.004958007394993786
11.839,0.010505383947311027,-0.010505383947311027
11.84,0.013789762384117535,-0.013789762384117535
11.841,0.013956770963551024,-0.013956770963551024
11.842,0.011002394598816256,-0.011002394598816256
11.843,0.005747044816737574,-0.005747044816737574
11.844,0.0004310537980840267,0.0004310537980840267
11.844999999999999,0.006015306080601314,0.006015306080601314
11.846,0.009789753227021972,0.009789753227021972
11.847,0.011161764421071465,0.011161764421071465
11.847999999999999,0.010273106593238287,0.010273106593238287
11.849,0.007874354352439954,0.007874354352439954
11.85,0.005014564605659233,0.005014564605659233
11.850999999999999,0.0026567522050277904,0.0026567522050277904
11.852,0.0013510182161181423,0.0013510182161181423
11.853,0.001074529387870527,0.001074529387870527
11.854,0.001288718715252271,0.001288718715252271
11.855,0.0011887979827518574,0.0011887979827518574
11.856,5.414576380000727e-05,5.414576380000727e-05
11.857,0.0024272599288108253,-0.0024272599288108253
11.858,0.005979327911790148,-0.005979327911790148
11.859,0.009773337372949801,-0.009773337372949801
11.86,0.012674621897712741,-0.012674621897712741
11.860999999999999,0.013622445608191073,-0.013622445608191073
11.862,0.01201570127686011,-0.01201570127686011
11.863,0.007969868873761318,-0.007969868873761318
11.863999999999999,0.0023491735909501052,-0.0023491735909501052
11.865,0.003449663139597432,0.003449663139597432
11.866,0.00790269468307645,0.00790269468307645
11.866999999999999,0.00982768561116869,0.00982768561116869
11.868,0.00876501698340245,0.00876501698340245
11.869,0.005142170031040783,0.005142170031040783
11.87,0.00016011083863073678,0.00016011083863073678
11.871,0.004570822620963003,-0.004570822620963003
11.872,0.0075349931096694725,-0.0075349931096694725
11.873,0.007795962328777229,-0.007795962328777229
11.874,0.005303934557262826,-0.005303934557262826
11.875,0.0009224533415010465,-0.0009224533415010465
11.876,0.0038402068480793044,0.0038402068480793044
11.876999999999999,0.007313497349731669,0.007313497349731669
11.878,0.008207976975627878,0.008207976975627878
11.879,0.006043845344703327,0.006043845344703327
11.879999999999999,0.0013231975120568053,0.0013231975120568053
11.881,0.004614008271938573,-0.004614008271938573
11.882,0.010007656426838615,-0.010007656426838615
11.883,0.013235849691602665,-0.013235849691602665
11.884,0.013332862942451318,-0.013332862942451318
11.885,0.010296474127237588,-0.010296474127237588
11.886,0.005081806270888755,-0.005081806270888755
11.887,0.0007187084619665248,0.0007187084619665248
11.888,0.005405395912753732,0.005405395912753732
11.889,0.007736214915760529,0.007736214915760529
11.89,0.007337066802431707,0.007337066802431707
11.891,0.004817047112218842,0.004817047112218842
11.892,0.001544993654285622,0.001544993654285622
11.892999999999999,0.0008428468857807214,-0.0008428468857807214
11.894,0.0010416445553519148,-0.0010416445553519148
11.895,0.0014194037657641087,0.0014194037657641087
11.895999999999999,0.005946825066978365,0.005946825066978365
11.897,0.011014953722082473,0.011014953722082473
11.898,0.014631722897068619,0.014631722897068619
11.899,0.014997001314409253,0.014997001314409253
11.9,0.01114310812516366,0.01114310812516366
11.901,0.0033450259774589356,0.0033450259774589356
11.902,0.006844974529271966,-0.006844974529271966
11.903,0.01696746803496004,-0.01696746803496004
11.904,0.02433151050109649,-0.02433151050109649
11.905,0.026796907728179508,-0.026796907728179508
11.905999999999999,0.023425737750598054,-0.023425737750598054
11.907,0.014801313242959321,-0.014801313242959321
11.908,0.002911765323527894,-0.002911765323527894
11.908999999999999,0.009373013096478134,0.009373013096478134
11.91,0.01907937969464095,0.01907937969464095
11.911,0.023935153491873168,0.023935153491873168
11.911999999999999,0.02296824647580841,0.02296824647580841
11.913,0.016729869051086785,0.016729869051086785
11.914,0.007088023740802851,0.007088023740802851
11.915,0.0033351534967290992,-0.0033351534967290992
11.916,0.0119070377214808,-0.0119070377214808
11.917,0.016688728620387307,-0.016688728620387307
11.918,0.016902039005111506,-0.016902039005111506
11.919,0.01304192455561073,-0.01304192455561073
11.92,0.006627802110415828,-0.006627802110415828
11.921,0.00030719491505911247,0.00030719491505911247
11.921999999999999,0.005821403917549227,0.005821403917549227
11.923,0.008583422142609801,0.008583422142609801
11.924,0.008165591536237714,0.008165591536237714
11.924999999999999,0.005052946865227297,0.005052946865227297
11.926,0.0003979565619778217,0.0003979565619778217
11.927,0.004377713875014844,-0.004377713875014844
11.927999999999999,0.008000943839397782,-0.008000943839397782
11.929,0.009663063932738218,-0.009663063932738218
11.93,0.009159995060750645,-0.009159995060750645
11.931,0.006845931918746066,-0.006845931918746066
11.932,0.0034467065757367234,-0.0034467065757367234
11.933,0.00018790940316850473,0.00018790940316850473
11.934,0.0033113019043882795,0.0033113019043882795
11.935,0.005428749648534051,0.005428749648534051
11.936,0.006347410897279621,0.006347410897279621
11.937,0.006142483237485458,0.006142483237485458
11.937999999999999,0.00507554285803932,0.00507554285803932
11.939,0.003503281471854552,0.003503281471854552
11.94,0.0018018438373627725,0.0018018438373627725
11.940999999999999,0.0003130786198956716,0.0003130786198956716
11.942,0.0006953601939036619,-0.0006953601939036619
11.943,0.0010672631699267284,-0.0010672631699267284
11.943999999999999,0.0007953060433809871,-0.0007953060433809871
11.945,4.762864130164512e-05,-4.762864130164512e-05
11.946,0.0008377565525564668,0.0008377565525564668
11.947,0.00141080275443622,0.00141080275443622
11.948,0.0012243288279194368,0.0012243288279194368
11.949,1.400199088932073e-05,-1.400199088932073e-05
11.95,0.002296796528589308,-0.002296796528589308
11.951,0.005235141077788654,-0.005235141077788654
11.952,0.008087132753618644,-0.008087132753618644
11.953,0.009913917458752143,-0.009913917458752143
11.953999999999999,0.009837287359655993,-0.009837287359655993
11.955,0.007331400386230327,-0.007331400386230327
11.956,0.0024574504180043203,-0.0024574504180043203
11.956999999999999,0.004044551300731052,0.004044551300731052
11.958,0.010856663945927398,0.010856663945927398
11.959,0.01636906979552366,0.01636906979552366
11.959999999999999,0.019083331675330717,0.019083331675330717
11.961,0.01802188434366049,0.01802188434366049
11.962,0.013023094463376112,0.013023094463376112
11.963,0.004830007887332952,0.004830007887332952
11.964,0.005059731793175279,-0.005059731793175279
11.965,0.014744048646326731,-0.014744048646326731
11.966,0.022368028748671148,-0.022368028748671148
11.967,0.026549502229791938,-0.026549502229791938
11.968,0.026662843213976464,-0.026662843213976464
11.969,0.02291289174700492,-0.02291289174700492
11.969999999999999,0.016197875870195836,-0.016197875870195836
11.971,0.007823472014062978,-0.007823472014062978
11.972,0.000831430437364935,0.000831430437364935
11.972999999999999,0.008594822549343689,0.008594822549343689
11.974,0.014658062487759346,0.014658062487759346
11.975,0.018592880261693916,0.018592880261693916
11.975999999999999,0.020266020050979716,0.020266020050979716
11.977,0.01972094009292436,0.01972094009292436
11.978,0.017096226454765245,0.017096226454765245
11.979,0.012620165332679215,0.012620165332679215
11.98,0.006674116646549045,0.006674116646549045
11.981,0.00012546511197965705,-0.00012546511197965705
11.982,0.006896178385796249,-0.006896178385796249
11.983,0.012566435429470417,-0.012566435429470417
11.984,0.0160735183541222,-0.0160735183541222
11.985,0.016640700313517498,-0.016640700313517498
11.985999999999999,0.014045021770689125,-0.014045021770689125
11.987,0.008771522272631395,-0.008771522272631395
11.988,0.00197435025588652,-0.00197435025588652
11.988999999999999,0.004775099502390833,0.004775099502390833
11.99,0.009897654507928701,0.009897654507928701
11.991,0.01225468115696097,0.01225468115696097
11.991999999999999,0.01148998849756138,0.01148998849756138
11.993,0.008143584463004562,0.008143584463004562
11.994,0.0034845892430219274,0.0034845892430219274
11.995,0.0008964493085483495,-0.0008964493085483495
11.996,0.00361051506307355,-0.00361051506307355
11.997,0.003936673290173194,-0.003936673290173194
11.998,0.002071550224179608,-0.002071550224179608
11.999,0.0009313943015939912,0.0009313943015939912
12.0,0.003522957605578897,0.003522957605578897
12.001,0.004205914059684412,0.004205914059684412
12.001999999999999,0.0020871081457496964,0.0020871081457496964
12.003,0.002756299289836193,-0.002756299289836193
12.004,0.009229257629058615,-0.009229257629058615
12.004999999999999,0.015517920615496368,-0.015517920615496368
12.006,0.01964610816107294,-0.01964610816107294
12.007,0.020110253863212725,-0.020110253863212725
12.008,0.01638349755040306,-0.01638349755040306
12.009,0.009119729932316389,-0.009119729932316389
12.01,1.3639836023445213e-05,1.3639836023445213e-05
12.011,0.00882258039291305,0.00882258039291305
12.012,0.015235484355791248,0.015235484355791248
12.013,0.017904091537103,0.017904091537103
12.014,0.01656432810904341,0.01656432810904341
12.015,0.012047838482615727,0.012047838482615727
12.016,0.005953244475862682,0.005953244475862682
12.017,9.89287301665463e-05,9.89287301665463e-05
12.017999999999999,0.004052302261187365,-0.004052302261187365
12.019,0.005804796480300582,-0.005804796480300582
12.02,0.00535055862918296,-0.00535055862918296
12.020999999999999,0.0035778489077887493,-0.0035778489077887493
12.022,0.0016569296982805696,-0.0016569296982805696
12.023,0.0005662497649747054,-0.0005662497649747054
12.024,0.0007353957376712135,-0.0007353957376712135
12.025,0.0019299048566784663,-0.0019299048566784663
12.026,0.003407750830018363,-0.003407750830018363
12.027,0.004273906328582871,-0.004273906328582871
12.028,0.003886196924613615,-0.003886196924613615
12.029,0.0021493968143113914,-0.0021493968143113914
12.03,0.00041949344269857355,0.00041949344269857355
12.031,0.0028814929923319903,0.0028814929923319903
12.032,0.0042477950837335595,0.0042477950837335595
12.033,0.0038880180900656793,0.0038880180900656793
12.033999999999999,0.0018122593751298145,0.0018122593751298145
12.035,0.0012893749106302746,-0.0012893749106302746
12.036,0.004274451357029107,-0.004274451357029107
12.036999999999999,0.005964692045815561,-0.005964692045815561
12.038,0.005597324736386949,-0.005597324736386949
12.039,0.0031387048422890753,-0.0031387048422890753
12.04,0.0006657627608801012,0.0006657627608801012
12.041,0.004535424106864881,0.004535424106864881
12.042,0.007111493078653757,0.007111493078653757
12.043,0.007463302900789694,0.007463302900789694
12.044,0.005454616398156053,0.005454616398156053
12.045,0.001826056558567798,0.001826056558567798
12.046,0.002049692288946818,-0.002049692288946818
12.046999999999999,0.00466278198708209,-0.00466278198708209
12.048,0.0049376548230120635,-0.0049376548230120635
12.049,0.002671578754372308,-0.002671578754372308
12.049999999999999,0.0013293701582435817,0.0013293701582435817
12.051,0.005482865338476529,0.005482865338476529
12.052,0.007965571002691135,0.007965571002691135
12.052999999999999,0.007372103345576535,0.007372103345576535
12.054,0.0032659326103503376,0.0032659326103503376
12.055,0.003581038836070538,-0.003581038836070538
12.056,0.011361217508735371,-0.011361217508735371
12.057,0.01777552341883592,-0.01777552341883592
12.058,0.020775968837156378,-0.020775968837156378
12.059,0.019257944740566618,-0.019257944740566618
12.06,0.013462766057266075,-0.013462766057266075
12.061,0.0049439296807509145,-0.0049439296807509145
12.062,0.0039033987920352796,0.0039033987920352796
12.062999999999999,0.010600663114404475,0.010600663114404475
12.064,0.013381842655823331,0.013381842655823331
12.065,0.011759979661826566,0.011759979661826566
12.065999999999999,0.006671597595721426,0.006671597595721426
12.067,0.0001474799813375235,0.0001474799813375235
12.068,0.005381480964226782,-0.005381480964226782
12.068999999999999,0.00791014308937111,-0.00791014308937111
12.07,0.006537573603655874,-0.006537573603655874
12.071,0.001767899926114703,-0.001767899926114703
12.072,0.004669245152450116,0.004669245152450116
12.073,0.010418736267625534,0.010418736267625534
12.074,0.013317711839301409,0.013317711839301409
12.075,0.012154074638587118,0.012154074638587118
12.076,0.007108073426449052,0.007108073426449052
12.077,0.0002744514114872873,-0.0002744514114872873
12.078,0.007571532557269205,-0.007571532557269205
12.078999999999999,0.012276839486321647,-0.012276839486321647
12.08,0.012632681206011914,-0.012632681206011914
12.081,0.008229865408451852,-0.008229865408451852
12.081999999999999,0.0001775817879427406,-0.0001775817879427406
12.083,0.009211952087985677,0.009211952087985677
12.084,0.017121482592875915,0.017121482592875915
12.084999999999999,0.021084829394104262,0.021084829394104262
12.086,0.0197298130289397,0.0197298130289397
12.087,0.013178498560001008,0.013178498560001008
12.088,0.0029895408163708413,0.0029895408163708413
12.089,0.008325177052698357,-0.008325177052698357
12.09,0.018045737020783586,-0.018045737020783586
12.091,0.024013197492796644,-0.024013197492796644
12.092,0.025189089842389035,-0.025189089842389035
12.093,0.021850184914465512,-0.021850184914465512
12.094,0.01538585073666512,-0.01538585073666512
12.094999999999999,0.00779038482399997,-0.00779038482399997
12.096,0.0010300190833768643,-0.0010300190833768643
12.097,0.003511615120110323,0.003511615120110323
12.097999999999999,0.0053481016569973325,0.0053481016569973325
12.099,0.004893522928420034,0.004893522928420034
12.1,0.0031878713670326054,0.0031878713670326054
12.100999999999999,0.0014625571952556658,0.0014625571952556658
12.102,0.000702502821441057,0.000702502821441057
12.103,0.0013455463479379337,0.0013455463479379337
12.104,0.0032001631828974314,0.0032001631828974314
12.105,0.005582775594043252,0.005582775594043252
12.106,0.007604406978896817,0.007604406978896817
12.107,0.008495828936613296,0.008495828936613296
12.108,0.00786064740195191,0.00786064740195191
12.109,0.005782214848859346,0.005782214848859346
12.11,0.0027664968603811338,0.0027664968603811338
12.110999999999999,0.00044200046165703607,-0.00044200046165703607
12.112,0.003098449104588114,-0.003098449104588114
12.113,0.004670041361762977,-0.004670041361762977
12.113999999999999,0.004961933689557847,-0.004961933689557847
12.115,0.00413195246243188,-0.00413195246243188
12.116,0.0026066735837690295,-0.0026066735837690295
12.116999999999999,0.0009381129181136599,-0.0009381129181136599
12.118,0.0003505084652825141,0.0003505084652825141
12.119,0.0008888384415067082,0.0008888384415067082
12.12,0.0005297153904862389,0.0005297153904862389
12.121,0.0006388164549434233,-0.0006388164549434233
12.122,0.0023305794543286434,-0.0023305794543286434
12.123,0.0041323097250419985,-0.0041323097250419985
12.124,0.0055937929074626885,-0.0055937929074626885
12.125,0.006324337322986129,-0.006324337322986129
12.126,0.0060830829321308864,-0.0060830829321308864
12.126999999999999,0.00484800253034019,-0.00484800253034019
12.128,0.0028453763778039085,-0.0028453763778039085
12.129,0.0005225790023863715,-0.0005225790023863715
12.129999999999999,0.0015438687432242158,0.0015438687432242158
12.131,0.0027953727984324616,0.0027953727984324616
12.132,0.002862002819865546,0.002862002819865546
12.133,0.0017076644160925393,0.0017076644160925393
12.134,0.00030406921461437485,-0.00030406921461437485
12.135,0.002462696686454651,-0.002462696686454651
12.136,0.0038884933597600722,-0.0038884933597600722
12.137,0.0037990053123053446,-0.0037990053123053446
12.138,0.001790092429452047,-0.001790092429452047
12.139,0.0019611168149660445,0.0019611168149660445
12.14,0.006652514040001865,0.006652514040001865
12.141,0.01101177733906793,0.01101177733906793
12.142,0.013627137663766054,0.013627137663766054
12.142999999999999,0.013369453690892014,0.013369453690892014
12.144,0.009779997313551368,0.009779997313551368
12.145,0.0032953857867213197,0.0032953857867213197
12.145999999999999,0.004778998910997903,-0.004778998910997903
12.147,0.012562593107883263,-0.012562593107883263
12.148,0.01809124466850986,-0.01809124466850986
12.149,0.019869558964824723,-0.019869558964824723
12.15,0.017318581359593268,-0.017318581359593268
12.151,0.010977100932061314,-0.010977100932061314
12.152,0.002385320803027985,-0.002385320803027985
12.153,0.006324170858374672,0.006324170858374672
12.154,0.013011756202979568,0.013011756202979568
12.155,0.01611933798455011,0.01611933798455011
12.156,0.015086122771796023,0.015086122771796023
12.157,0.010468580616173461,0.010468580616173461
12.158,0.0037335831383255814,0.0037335831383255814
12.158999999999999,0.0032047387702612696,-0.0032047387702612696
12.16,0.008555788824382207,-0.008555788824382207
12.161,0.011152853269133322,-0.011152853269133322
12.161999999999999,0.010733018022071905,-0.010733018022071905
12.163,0.007922180796291778,-0.007922180796291778
12.164,0.003947835127126603,-0.003947835127126603
12.165,0.00018860648391636514,-0.00018860648391636514
12.166,0.0022831989303811417,0.0022831989303811417
12.167,0.0030159449631766448,0.0030159449631766448
12.168,0.0022555482998136704,0.0022555482998136704
12.169,0.0007753088077663309,0.0007753088077663309
12.17,0.00046671892177327145,-0.00046671892177327145
12.171,0.0007131283804361076,-0.0007131283804361076
12.171999999999999,0.00030274991470770254,0.00030274991470770254
12.173,0.002260845283636603,0.002260845283636603
12.174,0.004379505486615522,0.004379505486615522
12.174999999999999,0.005710690998831618,0.005710690998831618
12.176,0.005496490366836297,0.005496490366836297
12.177,0.0034602383759289273,0.0034602383759289273
12.177999999999999,6.830066556065411e-05,-6.830066556065411e-05
12.179,0.004234626830320024,-0.004234626830320024
12.18,0.007917767392013856,-0.007917767392013856
12.181,0.010076638388643701,-0.010076638388643701
12.182,0.010070014909166737,-0.010070014909166737
12.183,0.007848833655493942,-0.007848833655493942
12.184,0.003965346355350379,-0.003965346355350379
12.185,0.0005952697982223757,0.0005952697982223757
12.186,0.004700150452416259,0.004700150452416259
12.187,0.007378732274202955,0.007378732274202955
12.187999999999999,0.008065918841825934,0.008065918841825934
12.189,0.006716041145128212,0.006716041145128212
12.19,0.0037704509704327314,0.0037704509704327314
12.190999999999999,6.157872811959943e-06,6.157872811959943e-06
12.192,0.003677595492248296,-0.003677595492248296
12.193,0.006470840780909979,-0.006470840780909979
12.193999999999999,0.007812218111730282,-0.007812218111730282
12.195,0.007471655150226665,-0.007471655150226665
12.196,0.0055581094796008255,-0.0055581094796008255
12.197,0.0024711748688843703,-0.0024711748688843703
12.198,0.0011805668265615213,0.0011805668265615213
12.199,0.004677857449907739,0.004677857449907739
12.2,0.00729871231237311,0.00729871231237311
12.201,0.008434146936534992,0.008434146936534992
12.202,0.007706289284777946,0.007706289284777946
12.203,0.005072589454069243,0.005072589454069243
12.203999999999999,0.0008880500609846385,0.0008880500609846385
12.205,0.0041066923037133,-0.0041066923037133
12.206,0.008893584437547598,-0.008893584437547598
12.206999999999999,0.012379097186376553,-0.012379097186376553
12.208,0.013654434337939161,-0.013654434337939161
12.209,0.012249426466612413,-0.012249426466612413
12.209999999999999,0.008303011058682964,-0.008303011058682964
12.211,0.002585753445980267,-0.002585753445980267
12.212,0.0036526265381733197,0.0036526265381733197
12.213,0.008985100224172609,0.008985100224172609
12.214,0.012182001179945624,0.012182001179945624
12.215,0.012551055627108296,0.012551055627108296
12.216,0.01013731959812788,0.01013731959812788
12.217,0.005714809110106686,0.005714809110106686
12.218,0.0005640223373003294,0.0005640223373003294
12.219,0.0039025087923345685,-0.0039025087923345685
12.219999999999999,0.006553832845192922,-0.006553832845192922
12.221,0.006865143907960899,-0.006865143907960899
12.222,0.005051487387053987,-0.005051487387053987
12.222999999999999,0.001969355816316882,-0.001969355816316882
12.224,0.001180044579415738,0.001180044579415738
12.225,0.0032477091824981816,0.0032477091824981816
12.225999999999999,0.0035039851736420997,0.0035039851736420997
12.227,0.0018577076778230226,0.0018577076778230226
12.228,0.001139750168127383,-0.001139750168127383
12.229,0.004499618592644262,-0.004499618592644262
12.23,0.007134620440039903,-0.007134620440039903
12.231,0.008213891004377617,-0.008213891004377617
12.232,0.0074153030270725255,-0.0074153030270725255
12.233,0.004996420243026531,-0.004996420243026531
12.234,0.0016709444327268523,-0.0016709444327268523
12.235,0.001654864245417639,0.001654864245417639
12.235999999999999,0.004185741643424054,0.004185741643424054
12.237,0.00547291654977928,0.00547291654977928
12.238,0.0055047064811172665,0.0055047064811172665
12.238999999999999,0.004632982408890034,0.004632982408890034
12.24,0.0033781638961671526,0.0033781638961671526
12.241,0.0021983650591137992,0.0021983650591137992
12.241999999999999,0.0013167278547545865,0.0013167278547545865
12.243,0.0006726013286814173,0.0006726013286814173
12.244,8.87414904150116e-06,8.87414904150116e-06
12.245,0.0009492623184588183,-0.0009492623184588183
12.246,0.002306964962613963,-0.002306964962613963
12.247,0.0038906703249855052,-0.0038906703249855052
12.248,0.0052722049411582554,-0.0052722049411582554
12.249,0.0059252899340055684,-0.0059252899340055684
12.25,0.005456133527662318,-0.005456133527662318
12.251,0.0038136033496820976,-0.0038136033496820976
12.251999999999999,0.0013850576521770377,-0.0013850576521770377
12.253,0.0010771469321950152,0.0010771469321950152
12.254,0.002689553864585855,0.002689553864585855
12.254999999999999,0.0027578349788876344,0.0027578349788876344
12.256,0.0010681589981457594,0.0010681589981457594
12.257,0.001965237291729453,-0.001965237291729453
12.258,0.0053671507331585575,-0.0053671507331585575
12.259,0.007880145638624108,-0.007880145638624108
12.26,0.008373910267435433,-0.008373910267435433
12.261,0.00625073863207802,-0.00625073863207802
12.262,0.0017044750724770114,-0.0017044750724770114
12.263,0.00426736047412044,0.00426736047412044
12.264,0.010118470287576049,0.010118470287576049
12.265,0.014204991744155635,0.014204991744155635
12.266,0.015292211817541547,0.015292211817541547
12.267,0.012951895332527582,0.012951895332527582
12.267999999999999,0.00771696676025437,0.00771696676025437
12.269,0.0009379736996366541,0.0009379736996366541
12.27,0.005616388439838177,-0.005616388439838177
12.270999999999999,0.010287677321980427,-0.010287677321980427
12.272,0.012015472336474561,-0.012015472336474561
12.273,0.010629251561081517,-0.010629251561081517
12.274,0.006855308956365305,-0.006855308956365305
12.275,0.002044877341102205,-0.002044877341102205
12.276,0.0022788472438647935,0.0022788472438647935
12.277,0.004900423954093296,0.004900423954093296
12.278,0.005261198127715897,0.005261198127715897
12.279,0.0035705769861538,0.0035705769861538
12.28,0.0006575607355422694,0.0006575607355422694
12.281,0.002370105873440735,-0.002370105873440735
12.282,0.004529407651455513,-0.004529407651455513
12.283,0.005283966427141936,-0.005283966427141936
12.283999999999999,0.004677181220029989,-0.004677181220029989
12.285,0.0032429069446505455,-0.0032429069446505455
12.286,0.0017424003236439268,-0.0017424003236439268
12.286999999999999,0.0008375004017967748,-0.0008375004017967748
12.288,0.0008283890609555011,-0.0008283890609555011
12.289,0.0015542564923002814,-0.0015542564923002814
12.29,0.002489124060884677,-0.002489124060884677
12.291,0.002988388691668404,-0.002988388691668404
12.292,0.0025833501045731395,-0.0025833501045731395
12.293,0.0012028904245902485,-0.0012028904245902485
12.294,0.0007697786332229913,0.0007697786332229913
12.295,0.002632761175932713,0.002632761175932713
12.296,0.0036449147423201853,0.0036449147423201853
12.296999999999999,0.003341844705683528,0.003341844705683528
12.298,0.0017625880143015264,0.0017625880143015264
12.299,0.000509636231951316,-0.000509636231951316
12.299999999999999,0.002521990621990682,-0.002521990621990682
12.301,0.0032902310352714717,-0.0032902310352714717
12.302,0.002183832909787093,-0.002183832909787093
12.302999999999999,0.0007832285659929046,0.0007832285659929046
12.304,0.004870996732804795,0.004870996732804795
12.305,0.008787074686460745,0.008787074686460745
12.306,0.011072321932679518,0.011072321932679518
12.307,0.010578867027330806,0.010578867027330806
12.308,0.006882724540036269,0.006882724540036269
12.309,0.0004887391093132245,0.0004887391093132245
12.31,0.007249877485056859,-0.007249877485056859
12.311,0.014482777551297146,-0.014482777551297146
12.312,0.0193806872872929,-0.0193806872872929
12.312999999999999,0.020660985586828516,-0.020660985586828516
12.314,0.017957365222310888,-0.017957365222310888
12.315,0.011919878426587855,-0.011919878426587855
12.315999999999999,0.004017716610783827,-0.004017716610783827
12.317,0.0038892354589743897,0.0038892354589743897
12.318,0.010073577323494407,0.010073577323494407
12.318999999999999,0.013397065443672907,0.013397065443672907
12.32,0.013567197768784166,0.013567197768784166
12.321,0.011129260775774348,0.011129260775774348
12.322,0.007215707478967125,0.007215707478967125
12.323,0.003149213886061611,0.003149213886061611
12.324,3.461307033179278e-05,3.461307033179278e-05
12.325,0.0015326149221489738,-0.0015326149221489738
12.326,0.0015621738611133877,-0.0015621738611133877
12.327,0.0005607371181924678,-0.0005607371181924678
12.328,0.0007209347802996074,0.0007209347802996074
12.328999999999999,0.0015840792866383525,0.0015840792866383525
12.33,0.0016157406282119465,0.0016157406282119465
12.331,0.0007873816526099555,0.0007873816526099555
12.331999999999999,0.0005995874457297762,-0.0005995874457297762
12.333,0.0020827599906063986,-0.0020827599906063986
12.334,0.0032457596393505993,-0.0032457596393505993
12.334999999999999,0.0038800201412763262,-0.0038800201412763262
12.336,0.004042311506956405,-0.004042311506956405
12.337,0.003993615659558107,-0.003993615659558107
12.338,0.0040521712973117805,-0.0040521712973117805
12.339,0.004425651827472632,-0.004425651827472632
12.34,0.005093258520226464,-0.005093258520226464
12.341,0.005786970781531692,-0.005786970781531692
12.342,0.006081402701732667,-0.006081402701732667
12.343,0.005559156036538971,-0.005559156036538971
12.344,0.003989183253345822,-0.003989183253345822
12.344999999999999,0.0014500482051508646,-0.0014500482051508646
12.346,0.0016503714457252127,0.0016503714457252127
12.347,0.004669992022270892,0.004669992022270892
12.347999999999999,0.006912807780502877,0.006912807780502877
12.349,0.007834908723441855,0.007834908723441855
12.35,0.007208360208369839,0.007208360208369839
12.350999999999999,0.0051903304034773496,0.0051903304034773496
12.352,0.002277607820160548,0.002277607820160548
12.353,0.0008352116126034739,-0.0008352116126034739
12.354,0.003445522573513026,-0.003445522573513026
12.355,0.005020077974023165,-0.005020077974023165
12.356,0.005308468310195526,-0.005308468310195526
12.357,0.004366664391854817,-0.004366664391854817
12.358,0.0024963227250154813,-0.0024963227250154813
12.359,0.00013195876538945402,-0.00013195876538945402
12.36,0.002279752770740597,0.002279752770740597
12.360999999999999,0.004369435119449322,0.004369435119449322
12.362,0.005882957041127463,0.005882957041127463
12.363,0.006671651830200911,0.006671651830200911
12.363999999999999,0.006657903583401261,0.006657903583401261
12.365,0.005806285280528075,0.005806285280528075
12.366,0.0041230419341966446,0.0041230419341966446
12.366999999999999,0.0016885373011904898,0.0016885373011904898
12.368,0.0012936094956458113,-0.0012936094956458113
12.369,0.004461370649306704,-0.004461370649306704
12.37,0.007304994651450296,-0.007304994651450296
12.371,0.009241776274544278,-0.009241776274544278
12.372,0.009749063773420797,-0.009749063773420797
12.373,0.00852377705324974,-0.00852377705324974
12.374,0.005619017160262835,-0.005619017160262835
12.375,0.0015064277432767711,-0.0015064277432767711
12.376,0.0029708233172457965,0.0029708233172457965
12.376999999999999,0.006759168929103331,0.006759168929103331
12.378,0.008839085046055885,0.008839085046055885
12.379,0.008492761460743783,0.008492761460743783
12.379999999999999,0.005521691210739809,0.005521691210739809
12.381,0.0003488594877083094,0.0003488594877083094
12.382,0.006031919661770813,-0.006031919661770813
12.383,0.012256709961610676,-0.012256709961610676
12.384,0.0168981228922541,-0.0168981228922541
12.385,0.01880344173230138,-0.01880344173230138
12.386,0.017378902747951838,-0.017378902747951838
12.387,0.012746896812285158,-0.012746896812285158
12.388,0.005734536870657793,-0.005734536870657793
12.389,0.002305275241342235,0.002305275241342235
12.39,0.009796927219247024,0.009796927219247024
12.391,0.01529530637062721,0.01529530637062721
