Czas,AbsSum,Sum
205.906,0.013881377653084925,0.013881377653084925
205.907,0.01356546325074162,0.01356546325074162
205.90800000000002,0.010963226518899418,0.010963226518899418
205.90900000000002,0.006688042639663944,0.006688042639663944
205.91,0.001658996424285104,0.001658996424285104
205.911,0.003170831230259494,-0.003170831230259494
205.912,0.007072665852894559,-0.007072665852894559
205.913,0.00970419545486821,-0.00970419545486821
205.91400000000002,0.011128450029429193,-0.011128450029429193
205.91500000000002,0.011693741563235698,-0.011693741563235698
205.916,0.011827959699290399,-0.011827959699290399
205.917,0.011829446479261617,-0.011829446479261617
205.918,0.011735230853188092,-0.011735230853188092
205.919,0.011316220667332389,-0.011316220667332389
205.92000000000002,0.010199478405836477,-0.010199478405836477
205.92100000000002,0.008068136970867439,-0.008068136970867439
205.922,0.00485820019206927,-0.00485820019206927
205.923,0.0008702494237405845,-0.0008702494237405845
205.924,0.003256137904653905,0.003256137904653905
205.925,0.006707106263100421,0.006707106263100421
205.92600000000002,0.008747457883719384,0.008747457883719384
205.92700000000002,0.008975027230107398,0.008975027230107398
205.928,0.007484277246188178,0.007484277246188178
205.929,0.004874629793875279,0.004874629793875279
205.93,0.0020907948741437587,0.0020907948741437587
205.931,0.00014026442601626173,0.00014026442601626173
205.93200000000002,0.00022310670271616948,-0.00022310670271616948
205.93300000000002,0.001253592611218891,0.001253592611218891
205.934,0.004226393981300167,0.004226393981300167
205.935,0.007843432079584375,0.007843432079584375
205.936,0.01099233668239317,0.01099233668239317
205.937,0.012628522348902594,0.012628522348902594
205.93800000000002,0.0120819578376559,0.0120819578376559
205.93900000000002,0.009249003690230063,0.009249003690230063
205.94,0.004614895416846932,0.004614895416846932
205.941,0.0008925793058414495,-0.0008925793058414495
205.942,0.0061656024208256105,-0.0061656024208256105
205.943,0.01021033846707261,-0.01021033846707261
205.94400000000002,0.012384937156511702,-0.012384937156511702
205.94500000000002,0.01251931206651227,-0.01251931206651227
205.946,0.010897079026586853,-0.010897079026586853
205.947,0.008124031513665994,-0.008124031513665994
205.948,0.0049379072225376455,-0.0049379072225376455
205.949,0.0020222123095585166,-0.0020222123095585166
205.95000000000002,0.00012724108380700045,0.00012724108380700045
205.95100000000002,0.0012622630427172818,0.0012622630427172818
205.952,0.001376768988923776,0.001376768988923776
205.953,0.0006623364322195403,0.0006623364322195403
205.954,0.0005465490289466089,-0.0005465490289466089
205.955,0.0018212667992539525,-0.0018212667992539525
205.95600000000002,0.002683894844187568,-0.002683894844187568
205.95700000000002,0.002663587870999728,-0.002663587870999728
205.958,0.0013802168188341154,-0.0013802168188341154
205.959,0.0013437461243752718,0.0013437461243752718
205.96,0.005365815940691504,0.005365815940691504
205.961,0.0101444266027655,0.0101444266027655
205.96200000000002,0.014748458223668765,0.014748458223668765
205.96300000000002,0.017989855917468534,0.017989855917468534
205.964,0.018677379628506383,0.018677379628506383
205.965,0.015943201782252076,0.015943201782252076
205.966,0.009554838194287237,0.009554838194287237
205.967,0.00010968886611542553,0.00010968886611542553
205.96800000000002,0.010971599411661556,-0.010971599411661556
205.96900000000002,0.02168514273036776,-0.02168514273036776
205.97,0.02987900900223518,-0.02987900900223518
205.971,0.03377858884029622,-0.03377858884029622
205.972,0.03245741462779108,-0.03245741462779108
205.973,0.02611220582537632,-0.02611220582537632
205.97400000000002,0.016050176901523164,-0.016050176901523164
205.97500000000002,0.004378594007123277,-0.004378594007123277
205.976,0.006523823719941248,0.006523823719941248
205.977,0.014605775347297165,0.014605775347297165
205.978,0.018640798289066025,0.018640798289066025
205.979,0.018481205033932878,0.018481205033932878
205.98000000000002,0.015001189532906604,0.015001189532906604
205.98100000000002,0.00975770297702974,0.00975770297702974
205.982,0.004483737943423999,0.004483737943423999
205.983,0.0005766849771343869,0.0005766849771343869
205.984,0.0012609983329671694,-0.0012609983329671694
205.985,0.0011278619359433345,-0.0011278619359433345
205.98600000000002,0.00023722548665200513,0.00023722548665200513
205.98700000000002,0.0018075293784003065,0.0018075293784003065
205.988,0.0026780780183117423,0.0026780780183117423
205.989,0.0023867275407866433,0.0023867275407866433
205.99,0.0010405777758909344,0.0010405777758909344
205.991,0.0007832957683281313,-0.0007832957683281313
205.99200000000002,0.0023109146692850847,-0.0023109146692850847
205.993,0.0029053711171012327,-0.0029053711171012327
205.994,0.0023310107197839387,-0.0023310107197839387
205.995,0.0008479891892396971,-0.0008479891892396971
205.996,0.0008954336027261926,0.0008954336027261926
205.997,0.002127340253380321,0.002127340253380321
205.99800000000002,0.0022678398464135805,0.0022678398464135805
205.999,0.0011709196691974512,0.0011709196691974512
206.0,0.0008045338678924803,-0.0008045338678924803
206.001,0.002926264586997617,-0.002926264586997617
206.002,0.004376237017267477,-0.004376237017267477
206.00300000000001,0.004585913858390508,-0.004585913858390508
206.00400000000002,0.003488783630049206,-0.003488783630049206
206.005,0.0015865152165124995,-0.0015865152165124995
206.006,0.00020806605703800339,0.00020806605703800339
206.007,0.0009049386388304286,0.0009049386388304286
206.008,0.00016753158513003002,-0.00016753158513003002
206.00900000000001,0.0030500429223218367,-0.0030500429223218367
206.01000000000002,0.00704522790697183,-0.00704522790697183
206.011,0.01087088241278239,-0.01087088241278239
206.012,0.013038651290257608,-0.013038651290257608
206.013,0.012342212337818757,-0.012342212337818757
206.014,0.008295393122070645,-0.008295393122070645
206.01500000000001,0.001370502490623482,-0.001370502490623482
206.01600000000002,0.007051898750464938,0.007051898750464938
206.017,0.015018526511058537,0.015018526511058537
206.018,0.020528558862594814,0.020528558862594814
206.019,0.022090996324228954,0.022090996324228954
206.02,0.01914584614504045,0.01914584614504045
206.02100000000002,0.01222398220494816,0.01222398220494816
206.02200000000002,0.0028027795749449554,0.0028027795749449554
206.023,0.007091784416243144,-0.007091784416243144
206.024,0.015411612967225468,-0.015411612967225468
206.025,0.02058487937119616,-0.02058487937119616
206.026,0.02184857995514879,-0.02184857995514879
206.02700000000002,0.019338029852856983,-0.019338029852856983
206.02800000000002,0.013935792856544464,-0.013935792856544464
206.029,0.0069540277310511526,-0.0069540277310511526
206.03,0.00023524020888169295,0.00023524020888169295
206.031,0.006508365794945774,0.006508365794945774
206.032,0.011161142972592379,0.011161142972592379
206.03300000000002,0.013924688952248248,0.013924688952248248
206.03400000000002,0.014863226096787047,0.014863226096787047
206.035,0.0142237470113247,0.0142237470113247
206.036,0.012308801451319708,0.012308801451319708
206.037,0.009416547418768266,0.009416547418768266
206.038,0.005850781950658644,0.005850781950658644
206.03900000000002,0.0019665582965236526,0.0019665582965236526
206.04000000000002,0.001800103950791717,-0.001800103950791717
206.041,0.004960414338163045,-0.004960414338163045
206.042,0.007069716952242977,-0.007069716952242977
206.043,0.007865166238907534,-0.007865166238907534
206.044,0.007387455806167799,-0.007387455806167799
206.04500000000002,0.00602474287072455,-0.00602474287072455
206.04600000000002,0.004439539908408484,-0.004439539908408484
206.047,0.003382381474812602,-0.003382381474812602
206.048,0.003443253518331723,-0.003443253518331723
206.049,0.004824101665699588,-0.004824101665699588
206.05,0.007218913581350109,-0.007218913581350109
206.05100000000002,0.009858117754335932,-0.009858117754335932
206.05200000000002,0.011720057669128136,-0.011720057669128136
206.053,0.011852529398443647,-0.011852529398443647
206.054,0.009703481966703223,-0.009703481966703223
206.055,0.005348933528800311,-0.005348933528800311
206.056,0.00046623039842690474,0.00046623039842690474
206.05700000000002,0.0065004840953223975,0.0065004840953223975
206.05800000000002,0.011356697628056947,0.011356697628056947
206.059,0.013889805507783615,0.013889805507783615
206.06,0.01355339496544282,0.01355339496544282
206.061,0.010573845567496984,0.010573845567496984
206.062,0.0058940827662751,0.0058940827662751
206.06300000000002,0.0009020117262101553,0.0009020117262101553
206.06400000000002,0.0029729597565708856,-0.0029729597565708856
206.065,0.004670838890139599,-0.004670838890139599
206.066,0.003794428175778496,-0.003794428175778496
206.067,0.0006997402018412366,-0.0006997402018412366
206.068,0.0036362473277960342,0.0036362473277960342
206.06900000000002,0.00792052553280894,0.00792052553280894
206.07000000000002,0.010920973727367401,0.010920973727367401
206.071,0.01179846334497644,0.01179846334497644
206.072,0.010299360723898034,0.010299360723898034
206.073,0.006764346751855862,0.006764346751855862
206.074,0.0019703428355054503,0.0019703428355054503
206.07500000000002,0.0031274553088173262,-0.0031274553088173262
206.07600000000002,0.007662738092492516,-0.007662738092492516
206.077,0.011052258599055063,-0.011052258599055063
206.078,0.013069775044286244,-0.013069775044286244
206.079,0.01379930745987755,-0.01379930745987755
206.08,0.013508381986341517,-0.013508381986341517
206.08100000000002,0.012503307103861739,-0.012503307103861739
206.08200000000002,0.011024371830462242,-0.011024371830462242
206.083,0.009213260740521773,-0.009213260740521773
206.084,0.007149729511744976,-0.007149729511744976
206.085,0.004924279600805355,-0.004924279600805355
206.086,0.0026999528674479627,-0.0026999528674479627
206.08700000000002,0.0007239912849571238,-0.0007239912849571238
206.08800000000002,0.0007250748097622661,0.0007250748097622661
206.089,0.0014380787019676548,0.0014380787019676548
206.09,0.0013821155223300954,0.0013821155223300954
206.091,0.0007643730946025153,0.0007643730946025153
206.092,1.6119370068119462e-05,1.6119370068119462e-05
206.09300000000002,0.00031149724402254044,-0.00031149724402254044
206.09400000000002,0.0002855094566842933,0.0002855094566842933
206.095,0.0020856416944153135,0.0020856416944153135
206.096,0.00501261716666911,0.00501261716666911
206.097,0.008603023424410031,0.008603023424410031
206.098,0.012089410651580574,0.012089410651580574
206.09900000000002,0.01458084722183242,0.01458084722183242
206.10000000000002,0.01529188590265455,0.01529188590265455
206.101,0.01375545713320429,0.01375545713320429
206.102,0.009960047389270994,0.009960047389270994
206.103,0.0043742925980272,0.0043742925980272
206.104,0.0021452906614447425,-0.0021452906614447425
206.10500000000002,0.008536017405624687,-0.008536017405624687
206.10600000000002,0.013751456168548351,-0.013751456168548351
206.107,0.01697006480214334,-0.01697006480214334
206.108,0.01774493938489825,-0.01774493938489825
206.109,0.01606902873698362,-0.01606902873698362
206.11,0.012352330247500869,-0.012352330247500869
206.11100000000002,0.007325799605163845,-0.007325799605163845
206.11200000000002,0.0018972464675966025,-0.0018972464675966025
206.113,0.003012738549149999,0.003012738549149999
206.114,0.006629131248365316,0.006629131248365316
206.115,0.008453460230749802,0.008453460230749802
206.116,0.008349370934148583,0.008349370934148583
206.11700000000002,0.00656790522966623,0.00656790522966623
206.118,0.003702532709097443,0.003702532709097443
206.119,0.0005730316980489334,0.0005730316980489334
206.12,0.0019486180287504283,-0.0019486180287504283
206.121,0.0031403061087678587,-0.0031403061087678587
206.122,0.002615367309206684,-0.002615367309206684
206.12300000000002,0.0004417807688860486,-0.0004417807688860486
206.124,0.002846142977207834,0.002846142977207834
206.125,0.0063608471532771585,0.0063608471532771585
206.126,0.009082365016756999,0.009082365016756999
206.127,0.010134957791158606,0.010134957791158606
206.12800000000001,0.009043959174744673,0.009043959174744673
206.12900000000002,0.005894760744352256,0.005894760744352256
206.13,0.0013383855387811261,0.0013383855387811261
206.131,0.0035689425996696354,-0.0035689425996696354
206.132,0.0076536875869064915,-0.0076536875869064915
206.133,0.009958921644226683,-0.009958921644226683
206.13400000000001,0.010023371746967357,-0.010023371746967357
206.13500000000002,0.008016944441659015,-0.008016944441659015
206.136,0.004686108362143101,-0.004686108362143101
206.137,0.0011219575765576226,-0.0011219575765576226
206.138,0.0015784541887572353,0.0015784541887572353
206.139,0.002650390498021363,0.002650390498021363
206.14000000000001,0.0018901370442024267,0.0018901370442024267
206.14100000000002,0.00030069163374058606,-0.00030069163374058606
206.142,0.003069778412071329,-0.003069778412071329
206.143,0.005415758788291492,-0.005415758788291492
206.144,0.006534946988727604,-0.006534946988727604
206.145,0.006095028883335647,-0.006095028883335647
206.14600000000002,0.004341639357754522,-0.004341639357754522
206.14700000000002,0.002000439793605806,-0.002000439793605806
206.148,7.71164041767264e-06,-7.71164041767264e-06
206.149,0.0008375186971491159,0.0008375186971491159
206.15,0.00017814845644420125,0.00017814845644420125
206.151,0.0017481174556304767,-0.0017481174556304767
206.15200000000002,0.004165299224342806,-0.004165299224342806
206.15300000000002,0.006011019041028075,-0.006011019041028075
206.154,0.006301686428565004,-0.006301686428565004
206.155,0.004488216888791966,-0.004488216888791966
206.156,0.0006802958181704501,-0.0006802958181704501
206.157,0.004340390316529872,0.004340390316529872
206.15800000000002,0.00932771867391476,0.00932771867391476
206.15900000000002,0.012935695389454431,0.012935695389454431
206.16,0.014123867916366552,0.014123867916366552
206.161,0.012473899203947399,0.012473899203947399
206.162,0.008317196027835294,0.008317196027835294
206.163,0.002635744564364768,0.002635744564364768
206.16400000000002,0.003228132857951435,-0.003228132857951435
206.16500000000002,0.007957359252196846,-0.007957359252196846
206.166,0.010618479734172796,-0.010618479734172796
206.167,0.010884598812716735,-0.010884598812716735
206.168,0.009063725673369799,-0.009063725673369799
206.169,0.0059392647748633025,-0.0059392647748633025
206.17000000000002,0.0024890819762707355,-0.0024890819762707355
206.17100000000002,0.0004167977727617115,0.0004167977727617115
206.172,0.002242161084741824,0.002242161084741824
206.173,0.00287176341153511,0.00287176341153511
206.174,0.0025507807159467375,0.0025507807159467375
206.175,0.0017194333152269895,0.0017194333152269895
206.17600000000002,0.0008172416036024245,0.0008172416036024245
206.17700000000002,0.00013280698589847594,0.00013280698589847594
206.178,0.00025198249045333754,-0.00025198249045333754
206.179,0.0004175936666477295,-0.0004175936666477295
206.18,0.000498211820337523,-0.000498211820337523
206.181,0.0005684381274081112,-0.0005684381274081112
206.18200000000002,0.0005821634448915602,-0.0005821634448915602
206.18300000000002,0.0003933452300249617,-0.0003933452300249617
206.184,0.00015115286575821774,0.00015115286575821774
206.185,0.001091712553715394,0.001091712553715394
206.186,0.0022700034585241904,0.0022700034585241904
206.187,0.003327074472669627,0.003327074472669627
206.18800000000002,0.0038018758718562566,0.0038018758718562566
206.18900000000002,0.003302904969819024,0.003302904969819024
206.19,0.0016897716756838585,0.0016897716756838585
206.191,0.0008112213963157918,-0.0008112213963157918
206.192,0.003615981218436976,-0.003615981218436976
206.193,0.005931642629200416,-0.005931642629200416
206.19400000000002,0.00700796820265372,-0.00700796820265372
206.19500000000002,0.006409495013584928,-0.006409495013584928
206.196,0.004209961081066649,-0.004209961081066649
206.197,0.0010292117904221135,-0.0010292117904221135
206.198,0.00211741263942239,0.00211741263942239
206.199,0.004122449907916992,0.004122449907916992
206.20000000000002,0.004150565525701526,0.004150565525701526
206.20100000000002,0.001943350011840563,0.001943350011840563
206.202,0.002043632909004081,-0.002043632909004081
206.203,0.006729396768756338,-0.006729396768756338
206.204,0.010706410679058007,-0.010706410679058007
206.205,0.01266306919063578,-0.01266306919063578
206.20600000000002,0.011797849682213805,-0.011797849682213805
206.20700000000002,0.008090737795446239,-0.008090737795446239
206.208,0.002339805777058418,-0.002339805777058418
206.209,0.004055137736595426,0.004055137736595426
206.21,0.009498288067674157,0.009498288067674157
206.211,0.012667340951259529,0.012667340951259529
206.21200000000002,0.012899419101129368,0.012899419101129368
206.21300000000002,0.010372323530914907,0.010372323530914907
206.214,0.00602566670089797,0.00602566670089797
206.215,0.0012499241883959665,0.0012499241883959665
206.216,0.0025547510312621566,-0.0025547510312621566
206.217,0.004408081922104592,-0.004408081922104592
206.21800000000002,0.004032167771844079,-0.004032167771844079
206.21900000000002,0.0019016070450004962,-0.0019016070450004962
206.22,0.0009475158359860097,0.0009475158359860097
206.221,0.003281054017141738,0.003281054017141738
206.222,0.004080763661407703,0.004080763661407703
206.223,0.0028747360409954277,0.0028747360409954277
206.22400000000002,0.00011838199518238855,-0.00011838199518238855
206.22500000000002,0.004070767635629198,-0.004070767635629198
206.226,0.007818333528599019,-0.007818333528599019
206.227,0.010231664844936456,-0.010231664844936456
206.228,0.010564616172805415,-0.010564616172805415
206.229,0.00867298205545877,-0.00867298205545877
206.23000000000002,0.005041865253220768,-0.005041865253220768
206.23100000000002,0.0006232717226801315,-0.0006232717226801315
206.232,0.003456091029469774,0.003456091029469774
206.233,0.0062211723573507415,0.0062211723573507415
206.234,0.007110221863913864,0.007110221863913864
206.235,0.006100446014663318,0.006100446014663318
206.23600000000002,0.003673383587699163,0.003673383587699163
206.23700000000002,0.0006453591304283625,0.0006453591304283625
206.238,0.002075225335009665,-0.002075225335009665
206.239,0.0037287601012387732,-0.0037287601012387732
206.24,0.003879554612712682,-0.003879554612712682
206.241,0.0024897534971171165,-0.0024897534971171165
206.24200000000002,0.00010944940199558411,0.00010944940199558411
206.243,0.0033231646521042703,0.0033231646521042703
206.244,0.0064350664381220505,0.0064350664381220505
206.245,0.008748829145489165,0.008748829145489165
206.246,0.009703806459540476,0.009703806459540476
206.247,0.008955780114975304,0.008955780114975304
206.24800000000002,0.006424857130455128,0.006424857130455128
206.249,0.0023154332679522576,0.0023154332679522576
206.25,0.0028913900361453157,-0.0028913900361453157
206.251,0.008479360488422618,-0.008479360488422618
206.252,0.013581693230809098,-0.013581693230809098
206.25300000000001,0.01731189757923136,-0.01731189757923136
206.25400000000002,0.018929347989661022,-0.018929347989661022
206.255,0.018009752821656864,-0.018009752821656864
206.256,0.014576630224536818,-0.014576630224536818
206.257,0.009148196800437283,-0.009148196800437283
206.258,0.0026689797239268097,-0.0026689797239268097
206.25900000000001,0.0036749122889569294,0.0036749122889569294
206.26000000000002,0.008721753901544331,0.008721753901544331
206.261,0.011615642724128666,0.011615642724128666
206.262,0.012024271568106024,0.012024271568106024
206.263,0.010224771595275784,0.010224771595275784
206.264,0.007023628117963344,0.007023628117963344
206.26500000000001,0.0035251390717122967,0.0035251390717122967
206.26600000000002,0.0008106311177609841,0.0008106311177609841
206.267,0.0003782089213222372,-0.0003782089213222372
206.268,0.00014462880807450209,0.00014462880807450209
206.269,0.0019630674756788242,0.0019630674756788242
206.27,0.004200349898854389,0.004200349898854389
206.27100000000002,0.005807826052851552,0.005807826052851552
206.27200000000002,0.005912951697960723,0.005912951697960723
206.273,0.004117299479861424,0.004117299479861424
206.274,0.0006486510913644081,0.0006486510913644081
206.275,0.0036845731435888943,-0.0036845731435888943
206.276,0.007726672024461716,-0.007726672024461716
206.27700000000002,0.01032627232582551,-0.01032627232582551
206.27800000000002,0.010698016842651429,-0.010698016842651429
206.279,0.00868111019735167,-0.00868111019735167
206.28,0.004811983505857958,-0.004811983505857958
206.281,0.0001850084245258101,-0.0001850084245258101
206.282,0.0038596145227103662,0.0038596145227103662
206.28300000000002,0.0061282865439878115,0.0061282865439878115
206.28400000000002,0.005929237045143127,0.005929237045143127
206.285,0.0032839555462148224,0.0032839555462148224
206.286,0.001068531913707214,-0.001068531913707214
206.287,0.005875940194337612,-0.005875940194337612
206.288,0.00972532265408968,-0.00972532265408968
206.28900000000002,0.011440998543177629,-0.011440998543177629
206.29000000000002,0.010413282309725333,-0.010413282309725333
206.291,0.00676574155307196,-0.00676574155307196
206.292,0.0013171324758181591,-0.0013171324758181591
206.293,0.004646355013775231,0.004646355013775231
206.294,0.009720085811661965,0.009720085811661965
206.29500000000002,0.01275150337870456,0.01275150337870456
206.29600000000002,0.01313069797646513,0.01313069797646513
206.297,0.01092610553421077,0.01092610553421077
206.298,0.006836241092982517,0.006836241092982517
206.299,0.001979460351295326,0.001979460351295326
206.3,0.0024143312939151136,-0.0024143312939151136
206.30100000000002,0.005324104028243704,-0.005324104028243704
206.30200000000002,0.0061866625445524065,-0.0061866625445524065
206.303,0.005014569676731557,-0.005014569676731557
206.304,0.0023610402223816288,-0.0023610402223816288
206.305,0.0008500006585407432,0.0008500006585407432
206.306,0.003578154936141936,0.003578154936141936
206.30700000000002,0.004937357640171554,0.004937357640171554
206.30800000000002,0.004416199802313828,0.004416199802313828
206.309,0.001997312259650917,0.001997312259650917
206.31,0.001847590839920177,-0.001847590839920177
206.311,0.00628007356561454,-0.00628007356561454
206.312,0.010301223898809716,-0.010301223898809716
206.31300000000002,0.012990846034463753,-0.012990846034463753
206.31400000000002,0.013723379051670408,-0.013723379051670408
206.315,0.012311475659153172,-0.012311475659153172
206.316,0.009045675629414192,-0.009045675629414192
206.317,0.0046225389854278,-0.0046225389854278
206.318,2.1057409795733414e-05,2.1057409795733414e-05
206.31900000000002,0.003928311459239869,0.003928311459239869
206.32000000000002,0.006345558211878451,0.006345558211878451
206.321,0.006894830599592594,0.006894830599592594
206.322,0.0056540931053578455,0.0056540931053578455
206.323,0.0031251432069201975,0.0031251432069201975
206.324,9.673710102211913e-05,9.673710102211913e-05
206.32500000000002,0.0025627990558942703,-0.0025627990558942703
206.32600000000002,0.00413032725923722,-0.00413032725923722
206.327,0.004211289713131397,-0.004211289713131397
206.328,0.0028329799293356946,-0.0028329799293356946
206.329,0.0004225826852215982,-0.0004225826852215982
206.33,0.002323755752429091,0.002323755752429091
206.33100000000002,0.004644033953599191,0.004644033953599191
206.33200000000002,0.005928035956017858,0.005928035956017858
206.333,0.005887164259557973,0.005887164259557973
206.334,0.004627535862974394,0.004627535862974394
206.335,0.0026055251130840218,0.0026055251130840218
206.336,0.00047972848565872196,0.00047972848565872196
206.33700000000002,0.0010955688366125606,-0.0010955688366125606
206.33800000000002,0.0016725016315300792,-0.0016725016315300792
206.339,0.0011455570366585544,-0.0011455570366585544
206.34,0.00022024904924161792,0.00022024904924161792
206.341,0.0018773176699723839,0.0018773176699723839
206.342,0.0031718275276493126,0.0031718275276493126
206.34300000000002,0.00355314719530646,0.00355314719530646
206.34400000000002,0.0027504974811591834,0.0027504974811591834
206.345,0.0008613099092924665,0.0008613099092924665
206.346,0.001676412999431814,-0.001676412999431814
206.347,0.004218686818789602,-0.004218686818789602
206.348,0.00611406763263378,-0.00611406763263378
206.34900000000002,0.006902774938436598,-0.006902774938436598
206.35000000000002,0.006452994413868569,-0.006452994413868569
206.351,0.0049912022761195015,-0.0049912022761195015
206.352,0.0030175367988730445,-0.0030175367988730445
206.353,0.0011343971432379995,-0.0011343971432379995
206.354,0.00015539118478674014,0.00015539118478674014
206.35500000000002,0.0006144664720864522,0.0006144664720864522
206.35600000000002,0.00034590886977820657,0.00034590886977820657
206.357,0.00024836662921708173,-0.00024836662921708173
206.358,0.0006136262912076362,-0.0006136262912076362
206.359,0.00024627522548379587,-0.00024627522548379587
206.36,0.001110430097032964,0.001110430097032964
206.36100000000002,0.00334385055758469,0.00334385055758469
206.36200000000002,0.005965587547091636,0.005965587547091636
206.363,0.008228372849161522,0.008228372849161522
206.364,0.009334771221515737,0.009334771221515737
206.365,0.00867699073726594,0.00867699073726594
206.366,0.006036233323466595,0.006036233323466595
206.36700000000002,0.001680865558593589,0.001680865558593589
206.368,0.0036681418084481775,-0.0036681418084481775
206.369,0.008997518754277881,-0.008997518754277881
206.37,0.0132445070626794,-0.0132445070626794
206.371,0.015555712270280167,-0.015555712270280167
206.372,0.015491899908563225,-0.015491899908563225
206.37300000000002,0.013125141434764391,-0.013125141434764391
206.374,0.009005895002824527,-0.009005895002824527
206.375,0.004013883520646915,-0.004013883520646915
206.376,0.0008626532370852854,0.0008626532370852854
206.377,0.00475811197572922,0.00475811197572922
206.37800000000001,0.007111225345766539,0.007111225345766539
206.37900000000002,0.007755266539357133,0.007755266539357133
206.38,0.006902761375017648,0.006902761375017648
206.381,0.005040219907099077,0.005040219907099077
206.382,0.00277086447063349,0.00277086447063349
206.383,0.000652989424465561,0.000652989424465561
206.38400000000001,0.0009230867126700154,-0.0009230867126700154
206.38500000000002,0.0017927221741773096,-0.0017927221741773096
206.386,0.002004379821160125,-0.002004379821160125
206.387,0.0017523414214454854,-0.0017523414214454854
206.388,0.001283574196667347,-0.001283574196667347
206.389,0.0008106736627623275,-0.0008106736627623275
206.39000000000001,0.00045595348228706466,-0.00045595348228706466
206.39100000000002,0.0002382700454523204,-0.0002382700454523204
206.392,9.89718278700676e-05,-9.89718278700676e-05
206.393,4.867430916921142e-05,4.867430916921142e-05
206.394,0.0002677559546754724,0.0002677559546754724
206.395,0.0005629145571659458,0.0005629145571659458
206.39600000000002,0.0008737243016309983,0.0008737243016309983
206.39700000000002,0.0010966643827490942,0.0010966643827490942
206.398,0.001126115164099322,0.001126115164099322
206.399,0.0008987640277816812,0.0008987640277816812
206.4,0.0004252759403225688,0.0004252759403225688
206.401,0.000202189083745423,-0.000202189083745423
206.40200000000002,0.0008298744874895592,-0.0008298744874895592
206.40300000000002,0.00128413392313606,-0.00128413392313606
206.404,0.0014224726534224161,-0.0014224726534224161
206.405,0.0011785336037406042,-0.0011785336037406042
206.406,0.0005873550346296194,-0.0005873550346296194
206.407,0.00021709004180119943,0.00021709004180119943
206.40800000000002,0.0010321501382395148,0.0010321501382395148
206.40900000000002,0.0016367527716822264,0.0016367527716822264
206.41,0.001848210434216474,0.001848210434216474
206.411,0.0015701940746853016,0.0015701940746853016
206.412,0.0008187882512077253,0.0008187882512077253
206.413,0.0002805701697336283,-0.0002805701697336283
206.41400000000002,0.001524569595370888,-0.001524569595370888
206.41500000000002,0.0026834383314718767,-0.0026834383314718767
206.416,0.0035582908038992,-0.0035582908038992
206.417,0.00402870108490338,-0.00402870108490338
206.418,0.0040774968062556515,-0.0040774968062556515
206.419,0.003786216242121621,-0.003786216242121621
206.42000000000002,0.003303127714950865,-0.003303127714950865
206.42100000000002,0.0027937590918626905,-0.0027937590918626905
206.422,0.002389109783266869,-0.002389109783266869
206.423,0.0021474292415755874,-0.0021474292415755874
206.424,0.0020412557337940967,-0.0020412557337940967
206.425,0.0019734463407037684,-0.0019734463407037684
206.42600000000002,0.0018165914411818797,-0.0018165914411818797
206.42700000000002,0.0014624737807371366,-0.0014624737807371366
206.428,0.0008647228508285421,-0.0008647228508285421
206.429,5.988493441878739e-05,-5.988493441878739e-05
206.43,0.0008406822449931252,0.0008406822449931252
206.431,0.001685620990829936,0.001685620990829936
206.43200000000002,0.0023330704772650895,0.0023330704772650895
206.43300000000002,0.002697192723740773,0.002697192723740773
206.434,0.002774577880922906,0.002774577880922906
206.435,0.002640188620483968,0.002640188620483968
206.436,0.002413501172852593,0.002413501172852593
206.437,0.00220689195597126,0.00220689195597126
206.43800000000002,0.0020758884790588648,0.0020758884790588648
206.43900000000002,0.0019915325585795492,0.0019915325585795492
206.44,0.0018480119002197365,0.0018480119002197365
206.441,0.001505943326744457,0.001505943326744457
206.442,0.0008575810331479747,0.0008575810331479747
206.443,0.00010999331886003625,-0.00010999331886003625
206.44400000000002,0.0012797167128925713,-0.0012797167128925713
206.44500000000002,0.0024157815201021654,-0.0024157815201021654
206.446,0.0032241053764820323,-0.0032241053764820323
206.447,0.0034465132230231915,-0.0034465132230231915
206.448,0.0029584371620519335,-0.0029584371620519335
206.449,0.0018347731544725114,-0.0018347731544725114
206.45000000000002,0.00035576065649135064,-0.00035576065649135064
206.45100000000002,0.0010569957529241955,0.0010569957529241955
206.452,0.0019604738007874415,0.0019604738007874415
206.453,0.002030993178409377,0.002030993178409377
206.454,0.0011797140060400193,0.0011797140060400193
206.455,0.0003989262345586031,-0.0003989262345586031
206.45600000000002,0.002268334895134961,-0.002268334895134961
206.45700000000002,0.003874120008841185,-0.003874120008841185
206.458,0.004716333130773772,-0.004716333130773772
206.459,0.004515155407106121,-0.004515155407106121
206.46,0.003313813374503853,-0.003313813374503853
206.461,0.0014799472691777304,-0.0014799472691777304
206.46200000000002,0.0004013950406316058,0.0004013950406316058
206.46300000000002,0.001713561873062648,0.001713561873062648
206.464,0.0020147272366601026,0.0020147272366601026
206.465,0.001196309187804195,0.001196309187804195
206.466,0.0004629194664111389,-0.0004629194664111389
206.467,0.0023711037792033592,-0.0023711037792033592
206.46800000000002,0.0038078695185809453,-0.0038078695185809453
206.46900000000002,0.004162844809826582,-0.004162844809826582
206.47,0.003150733786983405,-0.003150733786983405
206.471,0.0009296175812457789,-0.0009296175812457789
206.472,0.0019218403244351313,0.0019218403244351313
206.473,0.004567436488600373,0.004567436488600373
206.47400000000002,0.006169145104329198,0.006169145104329198
206.47500000000002,0.0061553633208247145,0.0061553633208247145
206.476,0.004414571439196134,0.004414571439196134
206.477,0.001349095156090762,0.001349095156090762
206.478,0.002232264526793392,-0.002232264526793392
206.479,0.005351807561840582,-0.005351807561840582
206.48000000000002,0.007156818021743554,-0.007156818021743554
206.48100000000002,0.007176600616969917,-0.007176600616969917
206.482,0.005460766575463357,-0.005460766575463357
206.483,0.002555203191109912,-0.002555203191109912
206.484,0.0006750222627715719,0.0006750222627715719
206.485,0.0033169013745152904,0.0033169013745152904
206.48600000000002,0.004686079134400581,0.004686079134400581
206.48700000000002,0.004519952015742472,0.004519952015742472
206.488,0.0030279999913430085,0.0030279999913430085
206.489,0.0007890298234267578,0.0007890298234267578
206.49,0.0014635702629398973,-0.0014635702629398973
206.491,0.0030912141796967806,-0.0030912141796967806
206.49200000000002,0.0037479821934655383,-0.0037479821934655383
206.493,0.0034620589317605676,-0.0034620589317605676
206.494,0.002579210385093719,-0.002579210385093719
206.495,0.0015965921602826363,-0.0015965921602826363
206.496,0.0009536348535146053,-0.0009536348535146053
206.497,0.0008601928815602602,-0.0008601928815602602
206.49800000000002,0.0012259962991011271,-0.0012259962991011271
206.499,0.0017158516609754768,-0.0017158516609754768
206.5,0.001906659040301785,-0.001906659040301785
206.501,0.0014830484386720451,-0.0014830484386720451
206.502,0.0003929358193001613,-0.0003929358193001613
206.50300000000001,0.0011014268574507894,0.0011014268574507894
206.50400000000002,0.002502193382770301,0.002502193382770301
206.505,0.003259926400669286,0.003259926400669286
206.506,0.0029962513929162786,0.0029962513929162786
206.507,0.001680166899498722,0.001680166899498722
206.508,0.0003140656970313751,-0.0003140656970313751
206.50900000000001,0.002299026458514427,-0.002299026458514427
206.51000000000002,0.0034936709004459083,-0.0034936709004459083
206.511,0.0032993086313678733,-0.0032993086313678733
206.512,0.0015361986479947957,-0.0015361986479947957
206.513,0.001446466437490422,0.001446466437490422
206.514,0.00483426045112642,0.00483426045112642
206.51500000000001,0.0075735225109062046,0.0075735225109062046
206.51600000000002,0.008691636918471116,0.008691636918471116
206.517,0.007608748451615919,0.007608748451615919
206.518,0.004337760993249153,0.004337760993249153
206.519,0.0004955021950980211,-0.0004955021950980211
206.52,0.005821294648063357,-0.005821294648063357
206.52100000000002,0.01043086851222341,-0.01043086851222341
206.52200000000002,0.01331932351249034,-0.01331932351249034
206.523,0.013956854541454872,-0.013956854541454872
206.524,0.012404482614325947,-0.012404482614325947
206.525,0.009244044036072594,-0.009244044036072594
206.526,0.005355116171286053,-0.005355116171286053
206.52700000000002,0.0016216833780706077,-0.0016216833780706077
206.52800000000002,0.0013286276948139238,0.0013286276948139238
206.529,0.00326649332404059,0.00326649332404059
206.53,0.00434435839061986,0.00434435839061986
206.531,0.004941084499968902,0.004941084499968902
206.532,0.005437791071298915,0.005437791071298915
206.53300000000002,0.006018005435895764,0.006018005435895764
206.53400000000002,0.006572898128050764,0.006572898128050764
206.535,0.006749452523729993,0.006749452523729993
206.536,0.006122071438718851,0.006122071438718851
206.537,0.004417944556870829,0.004417944556870829
206.538,0.0017025808670732164,0.0017025808670732164
206.53900000000002,0.001556229044253705,-0.001556229044253705
206.54000000000002,0.004583805809085135,-0.004583805809085135
206.541,0.006530818848208942,-0.006530818848208942
206.542,0.006765418077651115,-0.006765418077651115
206.543,0.0051203239740864265,-0.0051203239740864265
206.544,0.001999797039237477,-0.001999797039237477
206.54500000000002,0.0017031095890239964,0.0017031095890239964
206.54600000000002,0.00486283701482196,0.00486283701482196
206.547,0.006472093080212776,0.006472093080212776
206.548,0.005970895471816734,0.005970895471816734
206.549,0.0034404154835366778,0.0034404154835366778
206.55,0.00040894577567974946,-0.00040894577567974946
206.55100000000002,0.00445685202333698,-0.00445685202333698
206.55200000000002,0.0075299763041243185,-0.0075299763041243185
206.553,0.008778246482578715,-0.008778246482578715
206.554,0.00794363531634534,-0.00794363531634534
206.555,0.005430196962334429,-0.005430196962334429
206.556,0.0021516314761523105,-0.0021516314761523105
206.55700000000002,0.0007908479646055464,0.0007908479646055464
206.55800000000002,0.0024887981509267966,0.0024887981509267966
206.559,0.0025330964336032205,0.0025330964336032205
206.56,0.0011404153790045839,0.0011404153790045839
206.561,0.0009438927894592122,-0.0009438927894592122
206.562,0.002731632544687282,-0.002731632544687282
206.56300000000002,0.0033648714111559597,-0.0033648714111559597
206.56400000000002,0.0024435028738763348,-0.0024435028738763348
206.565,0.00018954247780410816,-0.00018954247780410816
206.566,0.0026129862117998067,0.0026129862117998067
206.567,0.004885163506422266,0.004885163506422266
206.568,0.00563665415193784,0.00563665415193784
206.56900000000002,0.0043326547661720945,0.0043326547661720945
206.57000000000002,0.0011150326995580755,0.0011150326995580755
206.571,0.0032030370481525403,-0.0032030370481525403
206.572,0.007372646752447711,-0.007372646752447711
206.573,0.01009971255435375,-0.01009971255435375
206.574,0.010461563447357079,-0.010461563447357079
206.57500000000002,0.008210624380125977,-0.008210624380125977
206.57600000000002,0.003863460074671051,-0.003863460074671051
206.577,0.0014548872995570428,0.0014548872995570428
206.578,0.006359685646938403,0.006359685646938403
206.579,0.009632972314903674,0.009632972314903674
206.58,0.010587631064814577,0.010587631064814577
206.58100000000002,0.009251638827154187,0.009251638827154187
206.58200000000002,0.00631665576006766,0.00631665576006766
206.583,0.0028744410960032237,0.0028744410960032237
206.584,3.456403330300818e-05,3.456403330300818e-05
206.585,0.0014458638824908765,-0.0014458638824908765
206.586,0.001397085994737845,-0.001397085994737845
206.58700000000002,0.0002614652918440975,-0.0002614652918440975
206.58800000000002,0.0010941276104173229,0.0010941276104173229
206.589,0.001709061045275391,0.001709061045275391
206.59,0.0008871285480570813,0.0008871285480570813
206.591,0.0015399994815867007,-0.0015399994815867007
206.592,0.0051316695090336375,-0.0051316695090336375
206.59300000000002,0.00896424671662128,-0.00896424671662128
206.59400000000002,0.011919705466281539,-0.011919705466281539
206.595,0.01303984697994898,-0.01303984697994898
206.596,0.01183039153089209,-0.01183039153089209
206.597,0.008418986632119879,-0.008418986632119879
206.598,0.003521432193708108,-0.003521432193708108
206.59900000000002,0.0017667387785303631,0.0017667387785303631
206.60000000000002,0.006281973446929022,0.006281973446929022
206.601,0.009108016185099882,0.009108016185099882
206.602,0.009800385168745176,0.009800385168745176
206.603,0.008460521861324417,0.008460521861324417
206.604,0.005651326266049052,0.005651326266049052
206.60500000000002,0.0021953064476137843,0.0021953064476137843
206.60600000000002,0.0010716336207469122,-0.0010716336207469122
206.607,0.00351251989920538,-0.00351251989920538
206.608,0.004810038196056246,-0.004810038196056246
206.609,0.004974815861332,-0.004974815861332
206.61,0.004259449019532916,-0.004259449019532916
206.61100000000002,0.0030241785513992554,-0.0030241785513992554
206.61200000000002,0.0016082510058463726,-0.0016082510058463726
206.613,0.0002490532722034439,-0.0002490532722034439
206.614,0.0009341872375189626,0.0009341872375189626
206.615,0.001903097311678413,0.001903097311678413
206.616,0.002639707315688524,0.002639707315688524
206.61700000000002,0.0030979959148183,0.0030979959148183
206.618,0.003192140273679413,0.003192140273679413
206.619,0.002826249436730581,0.002826249436730581
206.62,0.0019498578577939996,0.0019498578577939996
206.621,0.0006109551453089716,0.0006109551453089716
206.622,0.0010213114849208548,-0.0010213114849208548
206.62300000000002,0.0026794854856345297,-0.0026794854856345297
206.624,0.004062068102557329,-0.004062068102557329
206.625,0.004917159222879119,-0.004917159222879119
206.626,0.005114379865157828,-0.005114379865157828
206.627,0.004677549275188311,-0.004677549275188311
206.62800000000001,0.0037653995458441294,-0.0037653995458441294
206.62900000000002,0.0026077827376528822,-0.0026077827376528822
206.63,0.0014223187518117334,-0.0014223187518117334
206.631,0.0003442258151658106,-0.0003442258151658106
206.632,0.0006030703995795108,0.0006030703995795108
206.633,0.0014852124415918396,0.0014852124415918396
206.63400000000001,0.0023918919929352338,0.0023918919929352338
206.63500000000002,0.0033571732605334114,0.0033571732605334114
206.636,0.004300167783947958,0.004300167783947958
206.637,0.005014768025294638,0.005014768025294638
206.638,0.005219116553999273,0.005219116553999273
206.639,0.004652202598321877,0.004652202598321877
206.64000000000001,0.0031850963757232634,0.0031850963757232634
206.64100000000002,0.0009055099624046741,0.0009055099624046741
206.642,0.0018595873974071267,-0.0018595873974071267
206.643,0.004599198399658135,-0.004599198399658135
206.644,0.006740969340091889,-0.006740969340091889
206.645,0.007806749359679115,-0.007806749359679115
206.64600000000002,0.007553036347785947,-0.007553036347785947
206.64700000000002,0.006050590719779755,-0.006050590719779755
206.648,0.0036751967565747676,-0.0036751967565747676
206.649,0.001009079860730911,-0.001009079860730911
206.65,0.0013191349023456717,0.0013191349023456717
206.651,0.002808155893901361,0.002808155893901361
206.65200000000002,0.0032188649454742715,0.0032188649454742715
206.65300000000002,0.0026295479330793936,0.0026295479330793936
206.654,0.0013955347594933052,0.0013955347594933052
206.655,2.692492093279887e-05,2.692492093279887e-05
206.656,0.0009767762603485435,-0.0009767762603485435
206.657,0.0012834998552270149,-0.0012834998552270149
206.65800000000002,0.000828710260222486,-0.000828710260222486
206.65900000000002,0.00017124203519129863,0.00017124203519129863
206.66,0.0012953614138043702,0.0012953614138043702
206.661,0.002059127124619248,0.002059127124619248
206.662,0.0020761971433086784,0.0020761971433086784
206.663,0.001190538578704552,0.001190538578704552
206.66400000000002,0.00046187041204302564,-0.00046187041204302564
206.66500000000002,0.0024812542038294295,-0.0024812542038294295
206.666,0.004314763159490013,-0.004314763159490013
206.667,0.005417821211289939,-0.005417821211289939
206.668,0.005419145233858256,-0.005419145233858256
206.669,0.004240962862743851,-0.004240962862743851
206.67000000000002,0.002138218397117862,-0.002138218397117862
206.67100000000002,0.00035695762369133006,0.00035695762369133006
206.672,0.0025727891938033378,0.0025727891938033378
206.673,0.0038814738761827885,0.0038814738761827885
206.674,0.003879240831477862,0.003879240831477862
206.675,0.0025127182772603732,0.0025127182772603732
206.67600000000002,0.0001144868242309356,0.0001144868242309356
206.67700000000002,0.002666005369897287,-0.002666005369897287
206.678,0.005022287044392107,-0.005022287044392107
206.679,0.006202622989233076,-0.006202622989233076
206.68,0.005719244151314261,-0.005719244151314261
206.681,0.003498813848257483,-0.003498813848257483
206.68200000000002,6.905133807166689e-05,6.905133807166689e-05
206.68300000000002,0.004203283177835407,0.004203283177835407
206.684,0.007909911066473312,0.007909911066473312
206.685,0.010225681143863382,0.010225681143863382
206.686,0.010465683997488161,0.010465683997488161
206.687,0.008410371143436028,0.008410371143436028
206.68800000000002,0.004380969211504905,0.004380969211504905
206.68900000000002,0.0008198649527442417,-0.0008198649527442417
206.69,0.006090325173552802,-0.006090325173552802
206.691,0.010290085785805052,-0.010290085785805052
206.692,0.012513249341538045,-0.012513249341538045
206.693,0.012303669618156014,-0.012303669618156014
206.69400000000002,0.009757733453905272,-0.009757733453905272
206.69500000000002,0.0054896749796196735,-0.0054896749796196735
206.696,0.00047112042827308166,-0.00047112042827308166
206.697,0.004210489961980449,0.004210489961980449
206.698,0.0076099372820506266,0.0076099372820506266
206.699,0.009132382718418748,0.009132382718418748
206.70000000000002,0.008641964212071964,0.008641964212071964
206.70100000000002,0.006450678305727977,0.006450678305727977
206.702,0.0032007273043719114,0.0032007273043719114
206.703,0.0003192152984863065,-0.0003192152984863065
206.704,0.0033697136055197098,-0.0033697136055197098
206.705,0.005417093232287375,-0.005417093232287375
206.70600000000002,0.006216854103274307,-0.006216854103274307
206.70700000000002,0.0058149663913085676,-0.0058149663913085676
206.708,0.004482172617368484,-0.004482172617368484
206.709,0.0026123087864302354,-0.0026123087864302354
206.71,0.000619312306622701,-0.000619312306622701
206.711,0.0011404412462328848,0.0011404412462328848
206.71200000000002,0.0024089900895533194,0.0024089900895533194
206.71300000000002,0.0030350531792320222,0.0030350531792320222
206.714,0.0029641607793180185,0.0029641607793180185
206.715,0.0022265922151374178,0.0022265922151374178
206.716,0.0009324567717419525,0.0009324567717419525
206.717,0.0007274406505343572,-0.0007274406505343572
206.71800000000002,0.002485485892592822,-0.002485485892592822
206.71900000000002,0.004019309269630019,-0.004019309269630019
206.72,0.0050000869944223925,-0.0050000869944223925
206.721,0.00516345434481735,-0.00516345434481735
206.722,0.0043862128096578005,-0.0043862128096578005
206.723,0.002743400226576376,-0.002743400226576376
206.72400000000002,0.0005208924336645803,-0.0005208924336645803
206.72500000000002,0.0018302883013601946,0.0018302883013601946
206.726,0.003793388916183517,0.003793388916183517
206.727,0.004915055955031966,0.004915055955031966
206.728,0.004927069149008942,0.004927069149008942
206.729,0.0038223965353051726,0.0038223965353051726
206.73000000000002,0.0018595490340893423,0.0018595490340893423
206.73100000000002,0.0005085553196210342,-0.0005085553196210342
206.732,0.002760215213292576,-0.002760215213292576
206.733,0.004445508783412681,-0.004445508783412681
206.734,0.005296913494154087,-0.005296913494154087
206.735,0.005275419243275978,-0.005275419243275978
206.73600000000002,0.00454031964042783,-0.00454031964042783
206.73700000000002,0.003358118034540332,-0.003358118034540332
206.738,0.0019878512232653148,-0.0019878512232653148
206.739,0.0005883654548592631,-0.0005883654548592631
206.74,0.0008157968900472305,0.0008157968900472305
206.741,0.0022964351236210915,0.0022964351236210915
206.74200000000002,0.003927426824510901,0.003927426824510901
206.743,0.005674320962503266,0.005674320962503266
206.744,0.007317890068958124,0.007317890068958124
206.745,0.008452609015625551,0.008452609015625551
206.746,0.008575069326826853,0.008575069326826853
206.747,0.007243207790518606,0.007243207790518606
206.74800000000002,0.0042571082460423895,0.0042571082460423895
206.749,0.00020254036480346917,-0.00020254036480346917
206.75,0.005534980181259076,-0.005534980181259076
206.751,0.010807375153497844,-0.010807375153497844
206.752,0.01495812691110544,-0.01495812691110544
206.75300000000001,0.01706374202756554,-0.01706374202756554
206.75400000000002,0.016592455657197913,-0.016592455657197913
206.755,0.013566674227655296,-0.013566674227655296
206.756,0.008580517010861178,-0.008580517010861178
206.757,0.0026612732778459906,-0.0026612732778459906
206.758,0.0029889332181095582,0.0029889332181095582
206.75900000000001,0.007297894454484687,0.007297894454484687
206.76000000000002,0.009586552686042275,0.009586552686042275
206.761,0.009715631690897281,0.009715631690897281
206.762,0.008076728985452584,0.008076728985452584
206.763,0.005436711901937102,0.005436711901937102
206.764,0.002688289358978355,0.002688289358978355
206.76500000000001,0.0005859567619944018,0.0005859567619944018
206.76600000000002,0.00045281154393575956,-0.00045281154393575956
206.767,0.00042564811093607336,-0.00042564811093607336
206.768,0.00031204376844072497,0.00031204376844072497
206.769,0.0012111458907741806,0.0012111458907741806
206.77,0.0017389614316885417,0.0017389614316885417
206.77100000000002,0.00156409927844771,0.00156409927844771
206.77200000000002,0.0006577201035245385,0.0006577201035245385
206.773,0.0007161269621715746,-0.0007161269621715746
206.774,0.002110232381701998,-0.002110232381701998
206.775,0.003060943375482499,-0.003060943375482499
206.776,0.003252681667179378,-0.003252681667179378
206.77700000000002,0.002625398459258337,-0.002625398459258337
206.77800000000002,0.0013921720381487547,-0.0013921720381487547
206.779,3.4425292496720715e-05,3.4425292496720715e-05
206.78,0.0011787227925476665,0.0011787227925476665
206.781,0.0016540420805483673,0.0016540420805483673
206.782,0.001281322056755132,0.001281322056755132
206.78300000000002,0.0001389649045671954,0.0001389649045671954
206.78400000000002,0.0014673678174731794,-0.0014673678174731794
206.785,0.0031006376062543976,-0.0031006376062543976
206.786,0.004320714551035637,-0.004320714551035637
206.787,0.004804970970956888,-0.004804970970956888
206.788,0.004427239786433126,-0.004427239786433126
206.78900000000002,0.003276933097267864,-0.003276933097267864
206.79000000000002,0.0016193993496178864,-0.0016193993496178864
206.791,0.00018495465429001407,0.00018495465429001407
206.792,0.0017762095541241697,0.0017762095541241697
206.793,0.0028784756391651385,0.0028784756391651385
206.794,0.0033520733183662094,0.0033520733183662094
206.79500000000002,0.0032062006226195082,0.0032062006226195082
206.79600000000002,0.002575070067440376,0.002575070067440376
206.797,0.0016685607725520325,0.0016685607725520325
206.798,0.0007121565577683368,0.0007121565577683368
206.799,0.00010928529793892786,-0.00010928529793892786
206.8,0.0006922264821305922,-0.0006922264821305922
206.80100000000002,0.0010319458542406696,-0.0010319458542406696
206.80200000000002,0.0012136388966063308,-0.0012136388966063308
206.803,0.0013786091789269811,-0.0013786091789269811
206.804,0.0016720702474037428,-0.0016720702474037428
206.805,0.002184137439619985,-0.002184137439619985
206.806,0.002899584720298182,-0.002899584720298182
206.80700000000002,0.0036730961946063708,-0.0036730961946063708
206.80800000000002,0.004243313265552551,-0.004243313265552551
206.809,0.004290282483679415,-0.004290282483679415
206.81,0.003528169347446448,-0.003528169347446448
206.811,0.0018116285706004844,-0.0018116285706004844
206.812,0.0007753470957882996,0.0007753470957882996
206.81300000000002,0.0038805202238028106,0.0038805202238028106
206.81400000000002,0.006917421317624306,0.006917421317624306
206.815,0.009176210342987096,0.009176210342987096
206.816,0.009991466172381816,0.009991466172381816
206.817,0.00892571173447793,0.00892571173447793
206.818,0.0059164447481029475,0.0059164447481029475
206.81900000000002,0.0013388112902175996,0.0013388112902175996
206.82000000000002,0.00404367412483616,-0.00404367412483616
206.821,0.0092367197929236,-0.0092367197929236
206.822,0.013244506331266068,-0.013244506331266068
206.823,0.015309825903047608,-0.015309825903047608
206.824,0.015097673164405273,-0.015097673164405273
206.82500000000002,0.01276893191874011,-0.01276893191874011
206.82600000000002,0.00892218939448025,-0.00892218939448025
206.827,0.0044209782622631885,-0.0044209782622631885
206.828,0.00015840319054396705,-0.00015840319054396705
206.829,0.0031702638429997854,0.0031702638429997854
206.83,0.005220224556715076,0.005220224556715076
206.83100000000002,0.0060334404170009626,0.0060334404170009626
206.83200000000002,0.00595533766592814,0.00595533766592814
206.833,0.005467408316701415,0.005467408316701415
206.834,0.004997182483025017,0.004997182483025017
206.835,0.0047716075089590405,0.0047716075089590405
206.836,0.004761665651063562,0.004761665651063562
206.83700000000002,0.004731711290599867,0.004731711290599867
206.83800000000002,0.004368795866701195,0.004368795866701195
206.839,0.003438805548481874,0.003438805548481874
206.84,0.0019076858044499018,0.0019076858044499018
206.841,1.9670634612145562e-05,-1.9670634612145562e-05
206.842,0.0019584568828772157,-0.0019584568828772157
206.84300000000002,0.0034788459623538753,-0.0034788459623538753
206.84400000000002,0.004265170638311524,-0.004265170638311524
206.845,0.004237500980025759,-0.004237500980025759
206.846,0.0035867380607529442,-0.0035867380607529442
206.847,0.0027062148558375187,-0.0027062148558375187
206.848,0.0020420039465848124,-0.0020420039465848124
206.84900000000002,0.0019161783462806094,-0.0019161783462806094
206.85000000000002,0.0023899650715144636,-0.0023899650715144636
206.851,0.0032217210386481653,-0.0032217210386481653
206.852,0.0039415685046104865,-0.0039415685046104865
206.853,0.004021844617364094,-0.004021844617364094
206.854,0.0030856152124499004,-0.0030856152124499004
206.85500000000002,0.0010781242291697237,-0.0010781242291697237
206.85600000000002,0.0016647153698222258,0.0016647153698222258
206.857,0.004483155561927569,0.004483155561927569
206.858,0.006581463744255202,0.006581463744255202
206.859,0.007278863549582222,0.007278863549582222
206.86,0.0062406759048851,0.0062406759048851
206.86100000000002,0.0036098810465422524,0.0036098810465422524
206.86200000000002,9.731606416432957e-06,-9.731606416432957e-06
206.863,0.0037189005251551384,-0.0037189005251551384
206.864,0.006586694512902108,-0.006586694512902108
206.865,0.007928588943600733,-0.007928588943600733
206.866,0.007508415715167802,-0.007508415715167802
206.86700000000002,0.005598081381071117,-0.005598081381071117
206.868,0.0028758002959804697,-0.0028758002959804697
206.869,0.00019722111659902658,-0.00019722111659902658
206.87,0.0016839792620249778,0.0016839792620249778
206.871,0.0023530791204948724,0.0023530791204948724
206.872,0.0018509278005295682,0.0018509278005295682
206.87300000000002,0.0006334955034549853,0.0006334955034549853
206.874,0.0006089705656858749,-0.0006089705656858749
206.875,0.0012092194009686397,-0.0012092194009686397
206.876,0.0007675595019958715,-0.0007675595019958715
206.877,0.0007000970990389065,0.0007000970990389065
206.87800000000001,0.002760767095736952,0.002760767095736952
206.87900000000002,0.004709141234320996,0.004709141234320996
206.88,0.005808408039324963,0.005808408039324963
206.881,0.005544801127214,0.005544801127214
206.882,0.0038095689817435044,0.0038095689817435044
206.883,0.0009473586143504423,0.0009473586143504423
206.88400000000001,0.0023444469830887324,-0.0023444469830887324
206.88500000000002,0.005230812049507937,-0.005230812049507937
206.886,0.006996297886844492,-0.006996297886844492
206.887,0.007259522379321988,-0.007259522379321988
206.888,0.006075885584322027,-0.006075885584322027
206.889,0.003898344551129723,-0.003898344551129723
206.89000000000001,0.0014139055330268384,-0.0014139055330268384
206.89100000000002,0.0006858004454523206,0.0006858004454523206
206.892,0.0019215126174076925,0.0019215126174076925
206.893,0.0021594928981473077,0.0021594928981473077
206.894,0.0016202050713709773,0.0016202050713709773
206.895,0.0007654654206888807,0.0007654654206888807
206.89600000000002,0.00010827082967396768,0.00010827082967396768
206.89700000000002,1.4518914243977946e-05,1.4518914243977946e-05
206.898,0.0005665104713629255,0.0005665104713629255
206.899,0.0015348368770674145,0.0015348368770674145
206.9,0.0024664932939628837,0.0024664932939628837
206.901,0.0028563699238311497,0.0028563699238311497
206.90200000000002,0.002340572458739867,0.002340572458739867
206.90300000000002,0.0008428898412226155,0.0008428898412226155
206.904,0.0013777259947130326,-0.0013777259947130326
206.905,0.0037964963752216167,-0.0037964963752216167
206.906,0.005786543596719836,-0.005786543596719836
206.907,0.006822048522101582,-0.006822048522101582
206.90800000000002,0.006651979188284571,-0.006651979188284571
206.90900000000002,0.005384874719568728,-0.005384874719568728
206.91,0.0034545913607788204,-0.0034545913607788204
206.911,0.0014766281637276204,-0.0014766281637276204
206.912,4.150502927179842e-05,-4.150502927179842e-05
206.913,0.00048651361104523014,0.00048651361104523014
206.91400000000002,9.753755467946967e-05,9.753755467946967e-05
206.91500000000002,0.0008539815992015214,-0.0008539815992015214
206.916,0.0017644549608855586,-0.0017644549608855586
206.917,0.0019875189113049657,-0.0019875189113049657
206.918,0.0010666049363339716,-0.0010666049363339716
206.919,0.0010820001284703319,0.0010820001284703319
206.92000000000002,0.004098108560564211,0.004098108560564211
206.92100000000002,0.007247602021861353,0.007247602021861353
206.922,0.009618714683602713,0.009618714683602713
206.923,0.010389461987846819,0.010389461987846819
206.924,0.009086509397041012,0.009086509397041012
206.925,0.005755188647587172,0.005755188647587172
206.92600000000002,0.0009845646992800278,0.0009845646992800278
206.92700000000002,0.004226319367550401,-0.004226319367550401
206.928,0.008727081781146135,-0.008727081781146135
206.929,0.011526667615838558,-0.011526667615838558
206.93,0.012065310989907752,-0.012065310989907752
206.931,0.010366320952239204,-0.010366320952239204
206.93200000000002,0.007020568234380001,-0.007020568234380001
206.93300000000002,0.003006211796007017,-0.003006211796007017
206.934,0.0006036196037733252,0.0006036196037733252
206.935,0.0029572331296353845,0.0029572331296353845
206.936,0.0036679647302350024,0.0036679647302350024
206.937,0.002909027422390367,0.002909027422390367
206.93800000000002,0.0013289843276145796,0.0013289843276145796
206.93900000000002,0.00018656153770118581,-0.00018656153770118581
206.94,0.0008317012919545837,-0.0008317012919545837
206.941,0.00017275043217834964,-0.00017275043217834964
206.942,0.0016812511980110283,0.0016812511980110283
206.943,0.004091278118235846,0.004091278118235846
206.94400000000002,0.0060875354154137805,0.0060875354154137805
206.94500000000002,0.0066968900200341614,0.0066968900200341614
206.946,0.005295021103714722,0.005295021103714722
206.947,0.0018663065757897196,0.0018663065757897196
206.948,0.0029213566128287473,-0.0029213566128287473
206.949,0.007863797893722062,-0.007863797893722062
206.95000000000002,0.011556108604522062,-0.011556108604522062
206.95100000000002,0.012819297435426827,-0.012819297435426827
206.952,0.011085914745012897,-0.011085914745012897
206.953,0.006618690932052988,-0.006618690932052988
206.954,0.00048352136294199183,-0.00048352136294199183
206.955,0.005727001013485738,0.005727001013485738
206.95600000000002,0.010343964843811686,0.010343964843811686
206.95700000000002,0.012112625158011531,0.012112625158011531
206.958,0.010571685148975649,0.010571685148975649
206.959,0.0062004555159057085,0.0062004555159057085
206.96,0.0002829980266526279,0.0002829980266526279
206.961,0.005473450267759237,-0.005473450267759237
206.96200000000002,0.009450186248353434,-0.009450186248353434
206.96300000000002,0.010600517515138203,-0.010600517515138203
206.964,0.008754000527382098,-0.008754000527382098
206.965,0.00464645344196959,-0.00464645344196959
206.966,0.00033205972741207,0.00033205972741207
206.967,0.004588799799148072,0.004588799799148072
206.96800000000002,0.006833163328744098,0.006833163328744098
206.96900000000002,0.0064721963095716074,0.0064721963095716074
206.97,0.0037712901961876157,0.0037712901961876157
206.971,0.0002672552408954798,-0.0002672552408954798
206.972,0.004261638746044898,-0.004261638746044898
206.973,0.0069202321666662165,-0.0069202321666662165
206.97400000000002,0.007464248675421419,-0.007464248675421419
206.97500000000002,0.0058624879519882786,-0.0058624879519882786
206.976,0.002803232698699371,-0.002803232698699371
206.977,0.0005805676432037823,0.0005805676432037823
206.978,0.003131795966746958,0.003131795966746958
206.979,0.004084842619652494,0.004084842619652494
206.98000000000002,0.0033290537298864956,0.0033290537298864956
206.98100000000002,0.0014272725587708471,0.0014272725587708471
206.982,0.0006157830646660113,-0.0006157830646660113
206.983,0.001750913345320569,-0.001750913345320569
206.984,0.0013028593800872418,-0.0013028593800872418
206.985,0.0007444263659836113,0.0007444263659836113
206.98600000000002,0.0037043920718945853,0.0037043920718945853
206.98700000000002,0.006410005972472184,0.006410005972472184
206.988,0.007629663283656222,0.007629663283656222
206.989,0.0065330742088014785,0.0065330742088014785
206.99,0.003040422751057512,0.003040422751057512
206.991,0.002076470463506585,-0.002076470463506585
206.99200000000002,0.007389529945822889,-0.007389529945822889
206.993,0.011252695423006843,-0.011252695423006843
206.994,0.012342846742567685,-0.012342846742567685
206.995,0.010122572303149516,-0.010122572303149516
206.996,0.0050644297938586685,-0.0050644297938586685
206.997,0.001447872142160867,0.001447872142160867
206.99800000000002,0.007519639184917796,0.007519639184917796
206.999,0.01132374676115321,0.01132374676115321
207.0,0.01167282319728985,0.01167282319728985
207.001,0.008399251435995013,0.008399251435995013
207.002,0.0024178633899689826,0.0024178633899689826
207.00300000000001,0.004551231234130559,-0.004551231234130559
207.00400000000002,0.010511800826566504,-0.010511800826566504
207.005,0.013803141699970269,-0.013803141699970269
207.006,0.013598949406657387,-0.013598949406657387
207.007,0.010136420041433314,-0.010136420041433314
207.008,0.00460774067541429,-0.00460774067541429
207.00900000000001,0.0012438623996354021,0.0012438623996354021
207.01000000000002,0.005687054739633652,0.005687054739633652
207.011,0.007540044678508703,0.007540044678508703
207.012,0.0065121570966004,0.0065121570966004
207.013,0.003247340916934477,0.003247340916934477
207.014,0.0009323993367026995,-0.0009323993367026995
207.01500000000001,0.004488406886331313,-0.004488406886331313
207.01600000000002,0.006173847648593942,-0.006173847648593942
207.017,0.005423106488729762,-0.005423106488729762
207.018,0.002502380731465571,-0.002502380731465571
207.019,0.0016146694682986002,0.0016146694682986002
207.02,0.005590994577011317,0.005590994577011317
207.02100000000002,0.008166330457667967,0.008166330457667967
207.02200000000002,0.008546025868118439,0.008546025868118439
207.023,0.006617380228788764,0.006617380228788764
207.024,0.0029371068712625474,0.0029371068712625474
207.025,0.0014873652484809763,-0.0014873652484809763
207.026,0.005534254173974836,-0.005534254173974836
207.02700000000002,0.008301960248188245,-0.008301960248188245
207.02800000000002,0.009334252850837776,-0.009334252850837776
207.029,0.008676260408265638,-0.008676260408265638
207.03,0.006765487192678452,-0.006765487192678452
207.031,0.004218698386837173,-0.004218698386837173
207.032,0.001605032740239583,-0.001605032740239583
207.03300000000002,0.0007104880253401812,0.0007104880253401812
207.03400000000002,0.00260581801801583,0.00260581801801583
207.035,0.004127531173719049,0.004127531173719049
207.036,0.005353397856266764,0.005353397856266764
207.037,0.006264485843148251,0.006264485843148251
207.038,0.006690831242006034,0.006690831242006034
207.03900000000002,0.006359718439328364,0.006359718439328364
207.04000000000002,0.005028829147406687,0.005028829147406687
207.041,0.0026469739106694335,0.0026469739106694335
207.042,0.0005312170579822808,-0.0005312170579822808
207.043,0.0039365251245251035,-0.0039365251245251035
207.044,0.006803173762544117,-0.006803173762544117
207.04500000000002,0.008384920810828962,-0.008384920810828962
207.04600000000002,0.008199205328294327,-0.008199205328294327
207.047,0.0062125477374142726,-0.0062125477374142726
207.048,0.002895316129891241,-0.002895316129891241
207.049,0.0008838462422200138,0.0008838462422200138
207.05,0.0040987738982585014,0.0040987738982585014
207.05100000000002,0.005868490160100946,0.005868490160100946
207.05200000000002,0.00572471970539147,0.00572471970539147
207.053,0.0037561548626635056,0.0037561548626635056
207.054,0.0005808522761690763,0.0005808522761690763
207.055,0.0028455309187923952,-0.0028455309187923952
207.056,0.005524032854832643,-0.005524032854832643
207.05700000000002,0.006714485436729278,-0.006714485436729278
207.05800000000002,0.0061494615216047275,-0.0061494615216047275
207.059,0.00409471872037774,-0.00409471872037774
207.06,0.0012422675215026742,-0.0012422675215026742
207.061,0.0015232810271525257,0.0015232810271525257
207.062,0.0034052361544715045,0.0034052361544715045
207.06300000000002,0.003931068977181438,0.003931068977181438
207.06400000000002,0.0030724496617881947,0.0030724496617881947
207.065,0.0012190221385172749,0.0012190221385172749
207.066,0.0009748550941031407,-0.0009748550941031407
207.067,0.0028114618628737446,-0.0028114618628737446
207.068,0.0037628820331731135,-0.0037628820331731135
207.06900000000002,0.0036091012502677444,-0.0036091012502677444
207.07000000000002,0.002465173528261505,-0.002465173528261505
207.071,0.0007019467135433949,-0.0007019467135433949
207.072,0.0012001669890022958,0.0012001669890022958
207.073,0.0028070031697516196,0.0028070031697516196
207.074,0.0038427022797102445,0.0038427022797102445
207.07500000000002,0.004227217856559421,0.004227217856559421
207.07600000000002,0.004039675446252257,0.004039675446252257
207.077,0.003435539284196881,0.003435539284196881
207.078,0.00255944538587393,0.00255944538587393
207.079,0.0014916438379834647,0.0014916438379834647
207.08,0.00024717568515611975,0.00024717568515611975
207.08100000000002,0.0011783163250446921,-0.0011783163250446921
207.08200000000002,0.0027433461901094428,-0.0027433461901094428
207.083,0.0043116784640139585,-0.0043116784640139585
207.084,0.005648430372729193,-0.005648430372729193
207.085,0.006470320687697877,-0.006470320687697877
207.086,0.006535341012200358,-0.006535341012200358
207.08700000000002,0.005738664156522447,-0.005738664156522447
207.08800000000002,0.004176068395359497,-0.004176068395359497
207.089,0.0021459674795489304,-0.0021459674795489304
207.09,8.273209993802546e-05,-8.273209993802546e-05
207.091,0.001560754561399405,0.001560754561399405
207.092,0.002443990313577224,0.002443990313577224
207.09300000000002,0.002439716505807354,0.002439716505807354
207.09400000000002,0.0016706861515300502,0.0016706861515300502
207.095,0.0004698442568052519,0.0004698442568052519
207.096,0.0007227154542488554,-0.0007227154542488554
207.097,0.0014918245145448964,-0.0014918245145448964
207.098,0.0015656475757814701,-0.0015656475757814701
207.09900000000002,0.0008841839425111267,-0.0008841839425111267
207.10000000000002,0.00039982543930200816,0.00039982543930200816
207.101,0.001981764069815402,0.001981764069815402
207.102,0.003502118474545908,0.003502118474545908
207.103,0.004644610173016884,0.004644610173016884
207.104,0.005204395419876668,0.005204395419876668
207.10500000000002,0.005109886191581921,0.005109886191581921
207.10600000000002,0.004400840595661719,0.004400840595661719
207.107,0.003181286411420173,0.003181286411420173
207.108,0.001572614477482652,0.001572614477482652
207.109,0.00031223122300218367,-0.00031223122300218367
207.11,0.0023655930331934073,-0.0023655930331934073
207.11100000000002,0.0044608273232804,-0.0044608273232804
207.11200000000002,0.006426284388416549,-0.006426284388416549
207.113,0.008039148693867116,-0.008039148693867116
207.114,0.00905260783667398,-0.00905260783667398
207.115,0.009254549109200809,-0.009254549109200809
207.116,0.008539929735275552,-0.008539929735275552
207.11700000000002,0.006969037888041241,-0.006969037888041241
207.118,0.004784736614223815,-0.004784736614223815
207.119,0.002373962108556763,-0.002373962108556763
207.12,0.00017820724215987873,-0.00017820724215987873
207.121,0.0014226680312721379,0.0014226680312721379
207.122,0.002216767021337661,0.002216767021337661
207.12300000000002,0.002220436183773408,0.002220436183773408
207.124,0.0016697927933887473,0.0016697927933887473
207.125,0.0009431739809692104,0.0009431739809692104
207.126,0.00043774087926908006,0.00043774087926908006
207.127,0.00043982822235679006,0.00043982822235679006
207.12800000000001,0.0010317617908036317,0.0010317617908036317
207.12900000000002,0.002066351968706933,0.002066351968706933
207.13,0.0032178704481480597,0.0032178704481480597
207.131,0.004092677361808202,0.004092677361808202
207.132,0.004362626916985136,0.004362626916985136
207.133,0.003876841786866,0.003876841786866
207.13400000000001,0.002714944496326803,0.002714944496326803
207.13500000000002,0.001164676202297359,0.001164676202297359
207.136,0.00036789684918591206,-0.00036789684918591206
207.137,0.0014853535269867442,-0.0014853535269867442
207.138,0.0019213879761990976,-0.0019213879761990976
207.139,0.0016197927996110624,-0.0016197927996110624
207.14000000000001,0.0007463911312938812,-0.0007463911312938812
207.14100000000002,0.00036716835037692205,0.00036716835037692205
207.142,0.0013271318465491923,0.0013271318465491923
207.143,0.0017944918226997916,0.0017944918226997916
207.144,0.001578841448770653,0.001578841448770653
207.145,0.000683116623453935,0.000683116623453935
207.14600000000002,0.0007093671763997469,-0.0007093671763997469
207.14700000000002,0.0022956259158309904,-0.0022956259158309904
207.148,0.003738218899623617,-0.003738218899623617
207.149,0.0047475749490864015,-0.0047475749490864015
207.15,0.005139362930117028,-0.005139362930117028
207.151,0.004856536711660188,-0.004856536711660188
207.15200000000002,0.003958747744603866,-0.003958747744603866
207.15300000000002,0.002591324429076873,-0.002591324429076873
207.154,0.0009489976235947788,-0.0009489976235947788
207.155,0.000754049331088331,0.000754049331088331
207.156,0.0023037978547938405,0.0023037978547938405
207.157,0.003499219132010601,0.003499219132010601
207.15800000000002,0.004165772472597162,0.004165772472597162
207.15900000000002,0.0041756459112428194,0.0041756459112428194
207.16,0.0034749552315929246,0.0034749552315929246
207.161,0.002110799553998084,0.002110799553998084
207.162,0.00024606901588786927,0.00024606901588786927
207.163,0.001849884531608211,-0.001849884531608211
207.16400000000002,0.0038404568021994973,-0.0038404568021994973
207.16500000000002,0.0053864360520058455,-0.0053864360520058455
207.166,0.006221236212360467,-0.006221236212360467
207.167,0.0062155211278886935,-0.0062155211278886935
207.168,0.005410713174180814,-0.005410713174180814
207.169,0.004009035745012933,-0.004009035745012933
207.17000000000002,0.0023209223883944047,-0.0023209223883944047
207.17100000000002,0.0006843429526600313,-0.0006843429526600313
207.172,0.0006200616455868995,0.0006200616455868995
207.173,0.0014326630007620007,0.0014326630007620007
207.174,0.0017390612866517209,0.0017390612866517209
207.175,0.001649811715420964,0.001649811715420964
207.17600000000002,0.001345421686866043,0.001345421686866043
207.17700000000002,0.0010074498591037247,0.0010074498591037247
207.178,0.0007600177575743299,0.0007600177575743299
207.179,0.0006408318652172841,0.0006408318652172841
207.18,0.0006089870874503294,0.0006089870874503294
207.181,0.0005828533708145605,0.0005828533708145605
207.18200000000002,0.0004904305248404662,0.0004904305248404662
207.18300000000002,0.00031067438977991493,0.00031067438977991493
207.184,8.874948785009887e-05,8.874948785009887e-05
207.185,8.089478550778265e-05,-8.089478550778265e-05
207.186,9.656331893064333e-05,-9.656331893064333e-05
207.187,0.00010090847673910538,0.00010090847673910538
207.18800000000002,0.0004915324512828157,0.0004915324512828157
207.18900000000002,0.0009689379505999971,0.0009689379505999971
207.19,0.0013676923985027822,0.0013676923985027822
207.191,0.0015169961827636964,0.0015169961827636964
207.192,0.001302027882625344,0.001302027882625344
207.193,0.0007104697199699627,0.0007104697199699627
207.19400000000002,0.0001537074336100127,-0.0001537074336100127
207.19500000000002,0.0010958554577085052,-0.0010958554577085052
207.196,0.0018883955656020962,-0.0018883955656020962
207.197,0.0023419082015445846,-0.0023419082015445846
207.198,0.0023657920931026604,-0.0023657920931026604
207.199,0.001998057074822765,-0.001998057074822765
207.20000000000002,0.001394241633732804,-0.001394241633732804
207.20100000000002,0.0007792111849522006,-0.0007792111849522006
207.202,0.0003778316330830549,-0.0003778316330830549
207.203,0.0003470182493291866,-0.0003470182493291866
207.204,0.000730375865189905,-0.000730375865189905
207.205,0.0014483345566242462,-0.0014483345566242462
207.20600000000002,0.002324547841900219,-0.002324547841900219
207.20700000000002,0.00313774946261554,-0.00313774946261554
207.208,0.003681204781849519,-0.003681204781849519
207.209,0.003811439508222392,-0.003811439508222392
207.21,0.0034736709039450424,-0.0034736709039450424
207.211,0.0027006885585828338,-0.0027006885585828338
207.21200000000002,0.0015911190388818361,-0.0015911190388818361
207.21300000000002,0.00027871097517054847,-0.00027871097517054847
207.214,0.0010952460134633466,0.0010952460134633466
207.215,0.002398571387124013,0.002398571387124013
207.216,0.0035129284801668887,0.0035129284801668887
207.217,0.0043318343787283565,0.0043318343787283565
207.21800000000002,0.004760011698344279,0.004760011698344279
207.21900000000002,0.004720615155315149,0.004720615155315149
207.22,0.004171768017465673,0.004171768017465673
207.221,0.0031275874286384006,0.0031275874286384006
207.222,0.0016743934840646102,0.0016743934840646102
207.223,2.770292105069165e-05,-2.770292105069165e-05
207.22400000000002,0.0017636051061552876,-0.0017636051061552876
207.22500000000002,0.003301013126981544,-0.003301013126981544
207.226,0.004438211456810076,-0.004438211456810076
207.227,0.005048043477232277,-0.005048043477232277
207.228,0.00510424948003545,-0.00510424948003545
207.229,0.004681470428874722,-0.004681470428874722
207.23000000000002,0.003928754380521439,-0.003928754380521439
207.23100000000002,0.0030252413568706534,-0.0030252413568706534
207.232,0.0021325445518974614,-0.0021325445518974614
207.233,0.0013589791535213703,-0.0013589791535213703
207.234,0.0007459694124035203,-0.0007459694124035203
207.235,0.0002785296626494389,-0.0002785296626494389
207.23600000000002,8.710585723070194e-05,8.710585723070194e-05
207.23700000000002,0.00039146717746857846,0.00039146717746857846
207.238,0.0006488692436936181,0.0006488692436936181
207.239,0.0008422190083154752,0.0008422190083154752
207.24,0.0009363108664018846,0.0009363108664018846
207.241,0.0009021924658190358,0.0009021924658190358
207.24200000000002,0.0007403339722327463,0.0007403339722327463
207.243,0.000490793996236269,0.000490793996236269
207.244,0.00022423172012236297,0.00022423172012236297
207.245,1.6200936353644364e-05,1.6200936353644364e-05
207.246,8.487921254744287e-05,-8.487921254744287e-05
207.247,8.178921930022038e-05,-8.178921930022038e-05
207.24800000000002,3.24075926230196e-05,-3.24075926230196e-05
207.249,2.8837474914737167e-05,-2.8837474914737167e-05
207.25,0.0001574889253677061,-0.0001574889253677061
207.251,0.0004548206056730433,-0.0004548206056730433
207.252,0.0008772274194518498,-0.0008772274194518498
207.25300000000001,0.0013001197964961078,-0.0013001197964961078
207.25400000000002,0.0015512793245941047,-0.0015512793245941047
207.255,0.001470440793774477,-0.001470440793774477
207.256,0.0009756076999423913,-0.0009756076999423913
207.257,0.00011146347572859379,-0.00011146347572859379
207.258,0.000941042432067286,0.000941042432067286
207.25900000000001,0.001902870186480816,0.001902870186480816
207.26000000000002,0.0024752531111377255,0.0024752531111377255
207.261,0.00243534091024813,0.00243534091024813
207.262,0.0017177380118595434,0.0017177380118595434
207.263,0.0004525180077198692,0.0004525180077198692
207.264,0.0010572338573506474,-0.0010572338573506474
207.26500000000001,0.00241599557208799,-0.00241599557208799
207.26600000000002,0.0032523089525285428,-0.0032523089525285428
207.267,0.0033354661767760027,-0.0033354661767760027
207.268,0.0026543657549489203,-0.0026543657549489203
207.269,0.0014308492275358464,-0.0014308492275358464
207.27,5.985047767836709e-05,-5.985047767836709e-05
207.27100000000002,0.0010078967585959281,0.0010078967585959281
207.27200000000002,0.0014056832926358691,0.0014056832926358691
207.273,0.0009697919691926672,0.0009697919691926672
207.274,0.00020052966294567312,-0.00020052966294567312
207.275,0.0017626647518535743,-0.0017626647518535743
207.276,0.0032259429007723242,-0.0032259429007723242
207.27700000000002,0.004095278312347819,-0.004095278312347819
207.27800000000002,0.004020523007277915,-0.004020523007277915
207.279,0.002906842391168466,-0.002906842391168466
207.28,0.0009530312426811317,-0.0009530312426811317
207.281,0.0013937659547364788,0.0013937659547364788
207.282,0.0035537880481468073,0.0035537880481468073
207.28300000000002,0.00496748826523181,0.00496748826523181
207.28400000000002,0.005242320745678483,0.005242320745678483
207.285,0.004253488285166845,0.004253488285166845
207.286,0.0021731733351657715,0.0021731733351657715
207.287,0.0005762745206770569,-0.0005762745206770569
207.288,0.003428889003828956,-0.003428889003828956
207.28900000000002,0.005810382221926506,-0.005810382221926506
207.29000000000002,0.007266323632424156,-0.007266323632424156
207.291,0.007552694654048201,-0.007552694654048201
207.292,0.006671211058900292,-0.006671211058900292
207.293,0.004847675063948615,-0.004847675063948615
207.294,0.0024656236685512475,-0.0024656236685512475
207.29500000000002,2.3876932337235888e-05,2.3876932337235888e-05
207.29600000000002,0.002193640399930334,0.002193640399930334
207.297,0.0037144088099224357,0.0037144088099224357
207.298,0.004400500832093774,0.004400500832093774
207.299,0.004224092197478337,0.004224092197478337
207.3,0.0033015182883900825,0.0033015182883900825
207.30100000000002,0.0018586199386049337,0.0018586199386049337
207.30200000000002,0.0001833207348967315,0.0001833207348967315
207.303,0.0014266395552288195,-0.0014266395552288195
207.304,0.00271351132421621,-0.00271351132421621
207.305,0.0035000425140751332,-0.0035000425140751332
207.306,0.0037144151402945854,-0.0037144151402945854
207.30700000000002,0.003394771958145043,-0.003394771958145043
207.30800000000002,0.0026714889759547667,-0.0026714889759547667
207.309,0.0017299373852933382,-0.0017299373852933382
207.31,0.0007617259962063629,-0.0007617259962063629
207.311,8.339655572977418e-05,8.339655572977418e-05
207.312,0.0007315461634177488,0.0007315461634177488
207.31300000000002,0.001194051009628701,0.001194051009628701
207.31400000000002,0.0015483955940317417,0.0015483955940317417
207.315,0.0018960193139564722,0.0018960193139564722
207.316,0.0023105200417310474,0.0023105200417310474
207.317,0.0027943098810036264,0.0027943098810036264
207.318,0.0032603816995901962,0.0032603816995901962
207.31900000000002,0.003548400742865856,0.003548400742865856
207.32000000000002,0.0034728743543568116,0.0034728743543568116
207.321,0.0028893974841498566,0.0028893974841498566
207.322,0.0017571156187634947,0.0017571156187634947
207.323,0.00017475268823569044,0.00017475268823569044
207.324,0.0016252951703071502,-0.0016252951703071502
207.32500000000002,0.0033270966562378807,-0.0033270966562378807
207.32600000000002,0.004612804802013814,-0.004612804802013814
207.327,0.005251288147675986,-0.005251288147675986
207.328,0.005165239901399846,-0.005165239901399846
207.329,0.004453736144722808,-0.004453736144722808
207.33,0.003360942053859231,-0.003360942053859231
207.33100000000002,0.0021993110538137046,-0.0021993110538137046
207.33200000000002,0.0012512810763728734,-0.0012512810763728734
207.333,0.0006816364636005428,-0.0006816364636005428
207.334,0.0004902121177697994,-0.0004902121177697994
207.335,0.0005218643947084996,-0.0005218643947084996
207.336,0.0005315876832993927,-0.0005315876832993927
207.33700000000002,0.00028361783444897173,-0.00028361783444897173
207.33800000000002,0.00034912757404093693,0.00034912757404093693
207.339,0.0013203436940309981,0.0013203436940309981
207.34,0.002404912231414238,0.002404912231414238
207.341,0.003258007060886384,0.003258007060886384
207.342,0.0035221996813574207,0.0035221996813574207
207.34300000000002,0.0029490579212106374,0.0029490579212106374
207.34400000000002,0.0014954320627328498,0.0014954320627328498
207.345,0.0006386000656478753,-0.0006386000656478753
207.346,0.0030452526075153844,-0.0030452526075153844
207.347,0.005209826154375274,-0.005209826154375274
207.348,0.006647484501092256,-0.006647484501092256
207.34900000000002,0.007034807153128767,-0.007034807153128767
207.35000000000002,0.006296176666658005,-0.006296176666658005
207.351,0.004619148875623156,-0.004619148875623156
207.352,0.0023952659439921255,-0.0023952659439921255
207.353,0.0001059957932738796,-0.0001059957932738796
207.354,0.0018099571533615798,0.0018099571533615798
207.35500000000002,0.003067130702434003,0.003067130702434003
207.35600000000002,0.00358938626030532,0.00358938626030532
207.357,0.003498171626067823,0.003498171626067823
207.358,0.0030419821651696526,0.0030419821651696526
207.359,0.0024946125145695465,0.0024946125145695465
207.36,0.002058429932924065,0.002058429932924065
207.36100000000002,0.0018050193104029455,0.0018050193104029455
207.36200000000002,0.001670865451950113,0.001670865451950113
207.363,0.0015056002832880507,0.0015056002832880507
207.364,0.001151834763683431,0.001151834763683431
207.365,0.0005250724942974606,0.0005250724942974606
207.366,0.00033688140362037267,-0.00033688140362037267
207.36700000000002,0.001273830374400793,-0.001273830374400793
207.368,0.0020529489283962242,-0.0020529489283962242
207.369,0.002450679898863494,-0.002450679898863494
207.37,0.0023372502968742994,-0.0023372502968742994
207.371,0.0017330200036672317,-0.0017330200036672317
207.372,0.0008154835622625191,-0.0008154835622625191
207.37300000000002,0.00012722212289252997,0.00012722212289252997
207.374,0.0007819826674701203,0.0007819826674701203
207.375,0.000907729213296973,0.000907729213296973
207.376,0.00041208736337710895,0.00041208736337710895
207.377,0.0006172036295110655,-0.0006172036295110655
207.37800000000001,0.0019358128259379262,-0.0019358128259379262
207.37900000000002,0.0032129061089645854,-0.0032129061089645854
207.38,0.004124619353657783,-0.004124619353657783
207.381,0.004441140023154387,-0.004441140023154387
207.382,0.0040812008309336414,-0.0040812008309336414
207.383,0.0031199231392701394,-0.0031199231392701394
207.38400000000001,0.0017520990435543255,-0.0017520990435543255
207.38500000000002,0.00022739491732442623,-0.00022739491732442623
207.386,0.0012183376731020293,0.0012183376731020293
207.387,0.0024128052621847406,0.0024128052621847406
207.388,0.003264645003744223,0.003264645003744223
207.389,0.00374860188075776,0.00374860188075776
207.39000000000001,0.0038711912003889567,0.0038711912003889567
207.39100000000002,0.003636228142135366,0.003636228142135366
207.392,0.0030281063886488696,0.0030281063886488696
207.393,0.0020217873729199403,0.0020217873729199403
207.394,0.0006157579707823277,0.0006157579707823277
207.395,0.001127161477726109,-0.001127161477726109
207.39600000000002,0.0030516785567513663,-0.0030516785567513663
207.39700000000002,0.004912101300195722,-0.004912101300195722
207.398,0.0064115982613614135,-0.0064115982613614135
207.399,0.007271232505740105,-0.007271232505740105
207.4,0.007308530832823702,-0.007308530832823702
207.401,0.006499125508751646,-0.006499125508751646
207.40200000000002,0.004998166518653385,-0.004998166518653385
207.40300000000002,0.0031101630370049364,-0.0031101630370049364
207.404,0.001212813937566453,-0.001212813937566453
207.405,0.00034360823429028506,0.00034360823429028506
207.406,0.0013304053962008514,0.0013304053962008514
207.407,0.0016981174065893877,0.0016981174065893877
207.40800000000002,0.001578896618104848,0.001578896618104848
207.40900000000002,0.0012327304275910342,0.0012327304275910342
207.41,0.00095525935825178,0.00095525935825178
207.411,0.0009777784840873953,0.0009777784840873953
207.412,0.0013925341874390224,0.0013925341874390224
207.413,0.002127631160043906,0.002127631160043906
207.41400000000002,0.002978700156647413,0.002978700156647413
207.41500000000002,0.0036848770188439447,0.0036848770188439447
207.416,0.004021461606532312,0.004021461606532312
207.417,0.0038762213553691464,0.0038762213553691464
207.418,0.003282623216674785,0.003282623216674785
207.419,0.0023991158689252307,0.0023991158689252307
207.42000000000002,0.0014433215054357887,0.0014433215054357887
207.42100000000002,0.0006065585534947759,0.0006065585534947759
207.422,1.8517078124239316e-05,-1.8517078124239316e-05
207.423,0.00046898961913114805,-0.00046898961913114805
207.424,0.0008884507450454753,-0.0008884507450454753
207.425,0.0014567659620096677,-0.0014567659620096677
207.42600000000002,0.002298399531118527,-0.002298399531118527
207.42700000000002,0.0034043082566833378,-0.0034043082566833378
207.428,0.004599351421192958,-0.004599351421192958
207.429,0.005572260835910755,-0.005572260835910755
207.43,0.005963393326993366,-0.005963393326993366
207.431,0.005484269768450006,-0.005484269768450006
207.43200000000002,0.004029812982299868,-0.004029812982299868
207.43300000000002,0.0017441089873544942,-0.0017441089873544942
207.434,0.000986098937484207,0.000986098937484207
207.435,0.0036133036280781568,0.0036133036280781568
207.436,0.005565149369812318,0.005565149369812318
207.437,0.006394921131094048,0.006394921131094048
207.43800000000002,0.005901627959886837,0.005901627959886837
207.43900000000002,0.004183672085689455,0.004183672085689455
207.44,0.001610639580724955,0.001610639580724955
207.441,0.0012769494219784863,-0.0012769494219784863
207.442,0.003908397337134999,-0.003908397337134999
207.443,0.005821520418172875,-0.005821520418172875
207.44400000000002,0.006759665361577826,-0.006759665361577826
207.44500000000002,0.006702952953556083,-0.006702952953556083
207.446,0.0058320434732477815,-0.0058320434732477815
207.447,0.004444155209177559,-0.004444155209177559
207.448,0.002854308530870491,-0.002854308530870491
207.449,0.0013156910278833002,-0.0013156910278833002
207.45000000000002,1.7983968945663102e-05,1.7983968945663102e-05
207.45100000000002,0.001083597236123319,0.001083597236123319
207.452,0.0018672375205646382,0.0018672375205646382
207.453,0.0023560859330695096,0.0023560859330695096
207.454,0.00251003762741472,0.00251003762741472
207.455,0.0022691123418986706,0.0022691123418986706
207.45600000000002,0.0015953987715920603,0.0015953987715920603
207.45700000000002,0.0005309769012469961,0.0005309769012469961
207.458,0.0007570158047896766,-0.0007570158047896766
207.459,0.001971762963727324,-0.001971762963727324
207.46,0.0027371756098591928,-0.0027371756098591928
207.461,0.0026973884669442205,-0.0026973884669442205
207.46200000000002,0.001638680761357109,-0.001638680761357109
207.46300000000002,0.0004059729833714613,0.0004059729833714613
207.464,0.0031095621731977168,0.0031095621731977168
207.465,0.005886610466493468,0.005886610466493468
207.466,0.00801288640449105,0.00801288640449105
207.467,0.00880332561033652,0.00880332561033652
207.46800000000002,0.007801329037832328,0.007801329037832328
207.46900000000002,0.004925169704361286,0.004925169704361286
207.47,0.0005263176992259924,0.0005263176992259924
207.471,0.004662170569693774,-0.004662170569693774
207.472,0.009678333028946029,-0.009678333028946029
207.473,0.01354738631322531,-0.01354738631322531
207.47400000000002,0.015505407800934462,-0.015505407800934462
207.47500000000002,0.015172724970499443,-0.015172724970499443
207.476,0.012633484311161113,-0.012633484311161113
207.477,0.008404058825242009,-0.008404058825242009
207.478,0.0033029260912837023,-0.0033029260912837023
207.479,0.0017404133927077304,0.0017404133927077304
207.48000000000002,0.005886842492765572,0.005886842492765572
207.48100000000002,0.008550388912120234,0.008550388912120234
207.482,0.009488037651095087,0.009488037651095087
207.483,0.008804523396248732,0.008804523396248732
207.484,0.0068827031422101625,0.0068827031422101625
207.485,0.004266767972227204,0.004266767972227204
207.48600000000002,0.0015323635917545912,0.0015323635917545912
207.48700000000002,0.0008256770063600135,-0.0008256770063600135
207.488,0.0024680098094961886,-0.0024680098094961886
207.489,0.0032413662965231488,-0.0032413662965231488
207.49,0.0031701968048523967,-0.0031701968048523967
207.491,0.0024213005218917927,-0.0024213005218917927
207.49200000000002,0.001254610568635737,-0.001254610568635737
207.493,2.952819792899435e-05,2.952819792899435e-05
207.494,0.0011404973939913193,0.0011404973939913193
207.495,0.0018420040408542726,0.0018420040408542726
207.496,0.0019888993963225357,0.0019888993963225357
207.497,0.0015526181436198614,0.0015526181436198614
207.49800000000002,0.0006298805383471929,0.0006298805383471929
207.499,0.0005707823028344188,-0.0005707823028344188
207.5,0.0017671462260474165,-0.0017671462260474165
207.501,0.0026625895853622386,-0.0026625895853622386
207.502,0.0030159194629563613,-0.0030159194629563613
207.50300000000001,0.002705377659759367,-0.002705377659759367
207.50400000000002,0.0017689131684725718,-0.0017689131684725718
207.505,0.0004068434678750687,-0.0004068434678750687
207.506,0.0010578254502817221,0.0010578254502817221
207.507,0.0022543332670557064,0.0022543332670557064
207.508,0.0028564337949615924,0.0028564337949615924
207.50900000000001,0.002667848530256984,0.002667848530256984
207.51000000000002,0.0016774235657732565,0.0016774235657732565
207.511,6.818096882496642e-05,6.818096882496642e-05
207.512,0.0018230427575883395,-0.0018230427575883395
207.513,0.0035851102319522385,-0.0035851102319522385
207.514,0.004830448225053601,-0.004830448225053601
207.51500000000001,0.005286027327425364,-0.005286027327425364
207.51600000000002,0.004854963539817673,-0.004854963539817673
207.517,0.0036349862617326483,-0.0036349862617326483
207.518,0.001891806500524191,-0.001891806500524191
207.519,3.360686209632897e-06,3.360686209632897e-06
207.52,0.0016552897001343425,0.0016552897001343425
207.52100000000002,0.002726085595904354,0.002726085595904354
207.52200000000002,0.0029998802083336176,0.0029998802083336176
207.523,0.0024203776651167005,0.0024203776651167005
207.524,0.0010976835038798767,0.0010976835038798767
207.525,0.0007133232098308055,-0.0007133232098308055
207.526,0.0026571850103755835,-0.0026571850103755835
207.52700000000002,0.00433720714715373,-0.00433720714715373
207.52800000000002,0.005382163160590999,-0.005382163160590999
207.529,0.005512316175303778,-0.005512316175303778
207.53,0.0045959889937485085,-0.0045959889937485085
207.531,0.0026871012361977206,-0.0026871012361977206
207.532,3.429944228010086e-05,-3.429944228010086e-05
207.53300000000002,0.002945163225369017,0.002945163225369017
207.53400000000002,0.005728083927336062,0.005728083927336062
207.535,0.007777716115124102,0.007777716115124102
207.536,0.008650411208074587,0.008650411208074587
207.537,0.008094367553287279,0.008094367553287279
207.538,0.006116576201730165,0.006116576201730165
207.53900000000002,0.0029987047012033944,0.0029987047012033944
207.54000000000002,0.0007465778088566386,-0.0007465778088566386
207.541,0.004472878811804911,-0.004472878811804911
207.542,0.007530798631091702,-0.007530798631091702
207.543,0.009402205392387012,-0.009402205392387012
207.544,0.009806144540386594,-0.009806144540386594
207.54500000000002,0.008751055059012967,-0.008751055059012967
207.54600000000002,0.006521549748501655,-0.006521549748501655
207.547,0.003604763001314495,-0.003604763001314495
207.548,0.0005763624039891752,-0.0005763624039891752
207.549,0.0020245099030639256,0.0020245099030639256
207.55,0.003801234158635277,0.003801234158635277
207.55100000000002,0.004563743507776763,0.004563743507776763
207.55200000000002,0.004340376458041856,0.004340376458041856
207.553,0.0033414186458579904,0.0033414186458579904
207.554,0.0018895298587065538,0.0018895298587065538
207.555,0.0003379615818981498,0.0003379615818981498
207.556,0.0010032434831165227,-0.0010032434831165227
207.55700000000002,0.0019187295504566823,-0.0019187295504566823
207.55800000000002,0.002310953994258612,-0.002310953994258612
207.559,0.0021967428895902866,-0.0021967428895902866
207.56,0.0016841997724059037,-0.0016841997724059037
207.561,0.0009386280952716905,-0.0009386280952716905
207.562,0.0001451461415004453,-0.0001451461415004453
207.56300000000002,0.0005264925891334718,0.0005264925891334718
207.56400000000002,0.0009511896994602622,0.0009511896994602622
207.565,0.0010689481859069787,0.0010689481859069787
207.566,0.0008934413566698526,0.0008934413566698526
207.567,0.0005058665370872827,0.0005058665370872827
207.568,3.2891618875288385e-05,3.2891618875288385e-05
207.56900000000002,0.00038891795784329694,-0.00038891795784329694
207.57000000000002,0.0006549909555479399,-0.0006549909555479399
207.571,0.0007295172753095318,-0.0007295172753095318
207.572,0.000664209166631263,-0.000664209166631263
207.573,0.0005891875715650734,-0.0005891875715650734
207.574,0.0006736997417078267,-0.0006736997417078267
207.57500000000002,0.001064684469004297,-0.001064684469004297
207.57600000000002,0.001820847934275689,-0.001820847934275689
207.577,0.002865040773025204,-0.002865040773025204
207.578,0.003975509829658676,-0.003975509829658676
207.579,0.004826537921882021,-0.004826537921882021
207.58,0.005073468956088568,-0.005073468956088568
207.58100000000002,0.004460922466537571,-0.004460922466537571
207.58200000000002,0.0029218253573697573,-0.0029218253573697573
207.583,0.0006333429703655663,-0.0006333429703655663
207.584,0.001994402279770059,0.001994402279770059
207.585,0.004401879600227668,0.004401879600227668
207.586,0.006018259499546322,0.006018259499546322
207.58700000000002,0.006417250597656599,0.006417250597656599
207.58800000000002,0.005445039468402149,0.005445039468402149
207.589,0.0032799478065292367,0.0032799478065292367
207.59,0.0004018938649865998,0.0004018938649865998
207.591,0.0025238202797625664,-0.0025238202797625664
207.592,0.0048176634793855476,-0.0048176634793855476
207.59300000000002,0.005963710199754113,-0.005963710199754113
207.59400000000002,0.005742930875462485,-0.005742930875462485
207.595,0.004283582823003405,-0.004283582823003405
207.596,0.0020151568732685774,-0.0020151568732685774
207.597,0.0004587439416111417,0.0004587439416111417
207.598,0.002529384480456205,0.002529384480456205
207.59900000000002,0.0037432924440200547,0.0037432924440200547
207.60000000000002,0.003908312916337792,0.003908312916337792
207.601,0.003118251522301525,0.003118251522301525
207.602,0.001695258538741382,0.001695258538741382
207.603,7.41389552213899e-05,7.41389552213899e-05
207.604,0.00133139697991023,-0.00133139697991023
207.60500000000002,0.0022385208642305364,-0.0022385208642305364
207.60600000000002,0.0025506928910486153,-0.0025506928910486153
207.607,0.0023487202347463607,-0.0023487202347463607
207.608,0.0018293226119863479,-0.0018293226119863479
207.609,0.001218796274985721,-0.001218796274985721
207.61,0.0006941633601171428,-0.0006941633601171428
207.61100000000002,0.00033736028248131545,-0.00033736028248131545
207.61200000000002,0.0001330225500494505,-0.0001330225500494505
207.613,3.378195225240253e-06,-3.378195225240253e-06
207.614,0.00013896136119693006,0.00013896136119693006
207.615,0.0003436577675137376,0.0003436577675137376
207.616,0.000598922825374937,0.000598922825374937
207.61700000000002,0.0008379858728157461,0.0008379858728157461
207.618,0.000969412040449685,0.000969412040449685
207.619,0.0009159613582314511,0.0009159613582314511
207.62,0.0006449279909256304,0.0006449279909256304
207.621,0.0001784779797287325,0.0001784779797287325
207.622,0.0004175340681300031,-0.0004175340681300031
207.62300000000002,0.001058089706976955,-0.001058089706976955
207.624,0.0016635775151097813,-0.0016635775151097813
207.625,0.0021727272721308068,-0.0021727272721308068
207.626,0.0025396218994195967,-0.0025396218994195967
207.627,0.00272006337313959,-0.00272006337313959
207.62800000000001,0.002659573438627295,-0.002659573438627295
207.62900000000002,0.002296032142496796,-0.002296032142496796
207.63,0.0015834119090839499,-0.0015834119090839499
207.631,0.0005316404952601335,-0.0005316404952601335
207.632,0.000753717760740483,0.000753717760740483
207.633,0.0020539862590423096,0.0020539862590423096
207.63400000000001,0.003060471521088672,0.003060471521088672
207.63500000000002,0.003443375131240987,0.003443375131240987
207.636,0.0029532207725210197,0.0029532207725210197
207.637,0.001524478301082988,0.001524478301082988
207.638,0.0006570682945146795,-0.0006570682945146795
207.639,0.0031561199938323257,-0.0031561199938323257
207.64000000000001,0.005372507892728265,-0.005372507892728265
207.64100000000002,0.0066947768255787915,-0.0066947768255787915
207.642,0.006682077847950538,-0.006682077847950538
207.643,0.005217887527558168,-0.005217887527558168
207.644,0.0025811962694295876,-0.0025811962694295876
207.645,0.00059780581021763,0.00059780581021763
207.64600000000002,0.0034954158974907106,0.0034954158974907106
207.64700000000002,0.005325494469319168,0.005325494469319168
207.648,0.005576217613894888,0.005576217613894888
207.649,0.004177547247228167,0.004177547247228167
207.65,0.0015416986223547474,0.0015416986223547474
207.651,0.0015435681882024215,-0.0015435681882024215
207.65200000000002,0.004142539898185583,-0.004142539898185583
207.65300000000002,0.0054534148743296,-0.0054534148743296
207.654,0.0050574157637361975,-0.0050574157637361975
207.655,0.0030552814291568563,-0.0030552814291568563
207.656,4.4727508678418534e-05,-4.4727508678418534e-05
207.657,0.0030578921730982983,0.0030578921730982983
207.65800000000002,0.005298497459392799,0.005298497459392799
207.65900000000002,0.0059815883575877775,0.0059815883575877775
207.66,0.0048883243511887095,0.0048883243511887095
207.661,0.0023464325892895324,0.0023464325892895324
207.662,0.0008714661418442407,-0.0008714661418442407
207.663,0.0037899993955921294,-0.0037899993955921294
207.66400000000002,0.005537631716306957,-0.005537631716306957
207.66500000000002,0.005620951340456384,-0.005620951340456384
207.666,0.0040800689663059,-0.0040800689663059
207.667,0.001476261431247405,-0.001476261431247405
207.668,0.0012839690721619568,0.0012839690721619568
207.669,0.0032329621619770063,0.0032329621619770063
207.67000000000002,0.0036453840064510556,0.0036453840064510556
207.67100000000002,0.002267439430949798,0.002267439430949798
207.672,0.0005975970543188485,-0.0005975970543188485
207.673,0.00417173101383173,-0.00417173101383173
207.674,0.007425256955773764,-0.007425256955773764
207.675,0.009371733564137376,-0.009371733564137376
207.67600000000002,0.009347107102523202,-0.009347107102523202
207.67700000000002,0.007193234735134744,-0.007193234735134744
207.678,0.003297465818099331,-0.003297465818099331
207.679,0.0015161813235306857,0.0015161813235306857
207.68,0.006206365779942333,0.006206365779942333
207.681,0.009778137331642093,0.009778137331642093
207.68200000000002,0.01151789136547499,0.01151789136547499
207.68300000000002,0.011140891887432246,0.011140891887432246
207.684,0.008822167165251076,0.008822167165251076
207.685,0.005115829961438654,0.005115829961438654
207.686,0.0007963949432204296,0.0007963949432204296
207.687,0.003328967976560948,-0.003328967976560948
207.68800000000002,0.006588526335739042,-0.006588526335739042
207.68900000000002,0.008558892121356921,-0.008558892121356921
207.69,0.009107290831861813,-0.009107290831861813
207.691,0.008367693193218043,-0.008367693193218043
207.692,0.006669587574462837,-0.006669587574462837
207.693,0.004444198043052955,-0.004444198043052955
207.69400000000002,0.0021313238369017025,-0.0021313238369017025
207.69500000000002,0.00010349084982200763,-0.00010349084982200763
207.696,0.0013837911104433247,0.0013837911104433247
207.697,0.0022135369859421954,0.0022135369859421954
207.698,0.0024027937808257633,0.0024027937808257633
207.699,0.0020768259293524934,0.0020768259293524934
207.70000000000002,0.0014282686653841864,0.0014282686653841864
207.70100000000002,0.0006691199251456719,0.0006691199251456719
207.702,1.5100596625981719e-05,-1.5100596625981719e-05
207.703,0.0004993318291255414,-0.0004993318291255414
207.704,0.0007333367080244549,-0.0007333367080244549
207.705,0.0007334839241640118,-0.0007334839241640118
207.70600000000002,0.0005558110088725185,-0.0005558110088725185
207.70700000000002,0.0002609424754658565,-0.0002609424754658565
207.708,0.00011479759556760403,0.00011479759556760403
207.709,0.0005691469939566349,0.0005691469939566349
207.71,0.0011186282144628305,0.0011186282144628305
207.711,0.0017630053517705053,0.0017630053517705053
207.71200000000002,0.0024446743235475477,0.0024446743235475477
207.71300000000002,0.003023811569281063,0.003023811569281063
207.714,0.0032876333028515957,0.0032876333028515957
207.715,0.0030011077482434588,0.0030011077482434588
207.716,0.0019899846340793773,0.0019899846340793773
207.717,0.0002309044600552332,0.0002309044600552332
207.71800000000002,0.0020857306136085863,-0.0020857306136085863
207.71900000000002,0.0045516269720861785,-0.0045516269720861785
207.72,0.0066110895316555925,-0.0066110895316555925
207.721,0.007697522955662528,-0.007697522955662528
207.722,0.007401888282915117,-0.007401888282915117
207.723,0.005621977140154333,-0.005621977140154333
207.72400000000002,0.0026400385134971167,-0.0026400385134971167
207.72500000000002,0.000906800769239868,0.000906800769239868
207.726,0.004167603268536949,0.004167603268536949
207.727,0.006298223031283133,0.006298223031283133
207.728,0.006700368507051817,0.006700368507051817
207.729,0.00520666986367834,0.00520666986367834
207.73000000000002,0.0021509448693487923,0.0021509448693487923
207.73100000000002,0.0017047425001957344,-0.0017047425001957344
207.732,0.0053710374142981725,-0.0053710374142981725
207.733,0.007904184907235325,-0.007904184907235325
207.734,0.00867028716271479,-0.00867028716271479
207.735,0.007520983157238609,-0.007520983157238609
207.73600000000002,0.004826912417608813,-0.004826912417608813
207.73700000000002,0.0013592599402871342,-0.0013592599402871342
207.738,0.001942908850124999,0.001942908850124999
207.739,0.00424647674730552,0.00424647674730552
207.74,0.00505461739005973,0.00505461739005973
207.741,0.004324872404800723,0.004324872404800723
207.74200000000002,0.0024440130452843163,0.0024440130452843163
207.743,7.562691919277021e-05,7.562691919277021e-05
207.744,0.00206351315074993,-0.00206351315074993
207.745,0.003422194955192361,-0.003422194955192361
207.746,0.0037587276019774175,-0.0037587276019774175
207.747,0.003169672992972411,-0.003169672992972411
207.74800000000002,0.002004625707793131,-0.002004625707793131
207.749,0.0007073324697638404,-0.0007073324697638404
207.75,0.00035384093201758763,0.00035384093201758763
207.751,0.0010040593209467473,0.0010040593209467473
207.752,0.0012900823392772633,0.0012900823392772633
207.75300000000001,0.0014158533103297436,0.0014158533103297436
207.75400000000002,0.0016186515053727558,0.0016186515053727558
207.755,0.0020402184630576993,0.0020402184630576993
207.756,0.0026469503035726513,0.0026469503035726513
207.757,0.003231895544468937,0.003231895544468937
207.758,0.0034975076422619016,0.0034975076422619016
207.75900000000001,0.0031850978903689574,0.0031850978903689574
207.76000000000002,0.0021975429404175705,0.0021975429404175705
207.761,0.0006635836651848351,0.0006635836651848351
207.762,0.0010855739634913581,-0.0010855739634913581
207.763,0.0026222144687220355,-0.0026222144687220355
207.764,0.0035722772231240683,-0.0035722772231240683
207.76500000000001,0.0037523967546143036,-0.0037523967546143036
207.76600000000002,0.0032394564817720835,-0.0032394564817720835
207.767,0.0023426471545071,-0.0023426471545071
207.768,0.0014849424270284553,-0.0014849424270284553
207.769,0.0010365210080410924,-0.0010365210080410924
207.77,0.0011632151453791408,-0.0011632151453791408
207.77100000000002,0.0017501254458655103,-0.0017501254458655103
207.77200000000002,0.0024343602746058003,-0.0024343602746058003
207.773,0.0027405007387875536,-0.0027405007387875536
207.774,0.0022725858697471356,-0.0022725858697471356
207.775,0.0008921881266694616,-0.0008921881266694616
207.776,0.0011867624793208218,0.0011867624793208218
207.77700000000002,0.0034286951009842525,0.0034286951009842525
207.77800000000002,0.005130870589540314,0.005130870589540314
207.779,0.005654250829418107,0.005654250829418107
207.78,0.0046529299306857855,0.0046529299306857855
207.781,0.002220554073770057,0.002220554073770057
207.782,0.0011025275193801366,-0.0011025275193801366
207.78300000000002,0.004471350647793002,-0.004471350647793002
207.78400000000002,0.0069861898445268515,-0.0069861898445268515
207.785,0.007970148717775589,-0.007970148717775589
207.786,0.007182660678079072,-0.007182660678079072
207.787,0.004896722973487493,-0.004896722973487493
207.788,0.0018124864903765565,-0.0018124864903765565
207.78900000000002,0.0011654209348380185,0.0011654209348380185
207.79000000000002,0.0032135791554635178,0.0032135791554635178
207.791,0.003844079955267978,0.003844079955267978
207.792,0.003044025025726065,0.003044025025726065
207.793,0.0012560622018916701,0.0012560622018916701
207.794,0.0007902056358937927,-0.0007902056358937927
207.79500000000002,0.002336023046858579,-0.002336023046858579
207.79600000000002,0.0028515575378360632,-0.0028515575378360632
207.797,0.0022070578854757866,-0.0022070578854757866
207.798,0.0007013853557180032,-0.0007013853557180032
207.799,0.0010578829911226922,0.0010578829911226922
207.8,0.0023777387520646735,0.0023777387520646735
207.80100000000002,0.0027271097862889768,0.0027271097862889768
207.80200000000002,0.001922748726219047,0.001922748726219047
207.803,0.0001913245884021169,0.0001913245884021169
207.804,0.0019106004397728168,-0.0019106004397728168
207.805,0.003687977607846484,-0.003687977607846484
207.806,0.004542254934757643,-0.004542254934757643
207.80700000000002,0.00416940924842695,-0.00416940924842695
207.80800000000002,0.0026556933614227526,-0.0026556933614227526
207.809,0.0004426559840293972,-0.0004426559840293972
207.81,0.001821923122651745,0.001821923122651745
207.811,0.0034930765895199397,0.0034930765895199397
207.812,0.004126238955746574,0.004126238955746574
207.81300000000002,0.003599735611260994,0.003599735611260994
207.81400000000002,0.002127438831872163,0.002127438831872163
207.815,0.000165765038545704,0.000165765038545704
207.816,0.0017459405384012707,-0.0017459405384012707
207.817,0.003153567358191157,-0.003153567358191157
207.818,0.003809262281556253,-0.003809262281556253
207.81900000000002,0.003711024379817369,-0.003711024379817369
207.82000000000002,0.0030580336570041554,-0.0030580336570041554
207.821,0.002148397571939053,-0.002148397571939053
207.822,0.001263141742720157,-0.001263141742720157
207.823,0.0005798245841793412,-0.0005798245841793412
207.824,0.0001427508651794039,-0.0001427508651794039
207.82500000000002,0.00010815023510642513,0.00010815023510642513
207.82600000000002,0.00027098926599012773,0.00027098926599012773
207.827,0.0004121175309831351,0.0004121175309831351
207.828,0.0005249080029171414,0.0005249080029171414
207.829,0.0005341983467331271,0.0005341983467331271
207.83,0.00034226423203877513,0.00034226423203877513
207.83100000000002,0.00010635268676969886,-0.00010635268676969886
207.83200000000002,0.0007722086842186839,-0.0007722086842186839
207.833,0.0015065873594123172,-0.0015065873594123172
207.834,0.0020854383930295024,-0.0020854383930295024
207.835,0.0022812829440152583,-0.0022812829440152583
207.836,0.0019463558713980712,-0.0019463558713980712
207.83700000000002,0.0010745280010530627,-0.0010745280010530627
207.83800000000002,0.00018317569965701182,0.00018317569965701182
207.839,0.0015572377651208852,0.0015572377651208852
207.84,0.0027396070120768758,0.0027396070120768758
207.841,0.0034763155711756387,0.0034763155711756387
207.842,0.0036394487864614567,0.0036394487864614567
207.84300000000002,0.003253375193015651,0.003253375193015651
207.84400000000002,0.002467941301615329,0.002467941301615329
207.845,0.0014916626982184405,0.0014916626982184405
207.846,0.0005127828886011573,0.0005127828886011573
207.847,0.000360378568476813,-0.000360378568476813
207.848,0.001117400812885762,-0.001117400812885762
207.84900000000002,0.0018175615462122097,-0.0018175615462122097
207.85000000000002,0.002530438236547738,-0.002530438236547738
207.851,0.0032734180542771034,-0.0032734180542771034
207.852,0.0039756010820092644,-0.0039756010820092644
207.853,0.004486506476032446,-0.004486506476032446
207.854,0.0046288242067219956,-0.0046288242067219956
207.85500000000002,0.004274945013445195,-0.004274945013445195
207.85600000000002,0.003415235502606843,-0.003415235502606843
207.857,0.0021871786595015967,-0.0021871786595015967
207.858,0.0008486678033901521,-0.0008486678033901521
207.859,0.0002992618438929002,0.0002992618438929002
207.86,0.0010137308187279405,0.0010137308187279405
207.86100000000002,0.001196974988059489,0.001196974988059489
207.86200000000002,0.0009334925107991581,0.0009334925107991581
207.863,0.0004592290888470875,0.0004592290888470875
207.864,7.037459303433305e-05,7.037459303433305e-05
207.865,3.791483449251527e-06,3.791483449251527e-06
207.866,0.0003345693264509299,0.0003345693264509299
207.86700000000002,0.0009327458839945518,0.0009327458839945518
207.868,0.0015011318540215492,0.0015011318540215492
207.869,0.0016861366414283104,0.0016861366414283104
207.87,0.001224418106091444,0.001224418106091444
207.871,7.12234016884261e-05,7.12234016884261e-05
207.872,0.0015413470069392532,-0.0015413470069392532
207.87300000000002,0.003145882317064662,-0.003145882317064662
207.874,0.004175992029709021,-0.004175992029709021
207.875,0.004156983746938412,-0.004156983746938412
207.876,0.0028872752075833905,-0.0028872752075833905
207.877,0.0005451207999525597,-0.0005451207999525597
207.87800000000001,0.002323365708843267,0.002323365708843267
207.87900000000002,0.004940687115482127,0.004940687115482127
207.88,0.006522324565291158,0.006522324565291158
207.881,0.006520391800288231,0.006520391800288231
207.882,0.0048079220959102685,0.0048079220959102685
207.883,0.0017412191842972522,0.0017412191842972522
207.88400000000001,0.0019247068878276224,-0.0019247068878276224
207.88500000000002,0.005245642182572842,-0.005245642182572842
207.886,0.007359861493569057,-0.007359861493569057
207.887,0.007738356742009183,-0.007738356742009183
207.888,0.006336029593136268,-0.006336029593136268
207.889,0.0035974652347443158,-0.0035974652347443158
207.89000000000001,0.0003169402119841869,-0.0003169402119841869
207.89100000000002,0.0026019410640328506,0.0026019410640328506
207.892,0.004411035574869798,0.004411035574869798
207.893,0.004725233919334605,0.004725233919334605
207.894,0.003611617900690313,0.003611617900690313
207.895,0.0015382580917707189,0.0015382580917707189
207.89600000000002,0.0007945286915964574,-0.0007945286915964574
207.89700000000002,0.002682015754031419,-0.002682015754031419
207.898,0.0036281608489818753,-0.0036281608489818753
207.899,0.00347897113104599,-0.00347897113104599
207.9,0.0024401279423198223,-0.0024401279423198223
207.901,0.0009814988597368927,-0.0009814988597368927
207.90200000000002,0.0003335526050404368,0.0003335526050404368
207.90300000000002,0.001035329011462536,0.001035329011462536
207.904,0.0008919838968509489,0.0008919838968509489
207.905,3.065712887834689e-05,-3.065712887834689e-05
207.906,0.001405510511673641,-0.001405510511673641
207.907,0.002758205096156836,-0.002758205096156836
207.90800000000002,0.0036181243029774503,-0.0036181243029774503
207.90900000000002,0.0036589257316103243,-0.0036589257316103243
207.91,0.0027890599947172703,-0.0027890599947172703
207.911,0.0011716931193965514,-0.0011716931193965514
207.912,0.0008242581700421613,0.0008242581700421613
207.913,0.002721901424114068,0.002721901424114068
207.91400000000002,0.004053308238275093,0.004053308238275093
207.91500000000002,0.004466287784626377,0.004466287784626377
207.916,0.003799457098484065,0.003799457098484065
207.917,0.0021150130896207464,0.0021150130896207464
207.918,0.0003114993939651859,-0.0003114993939651859
207.919,0.0030387012072365573,-0.0030387012072365573
207.92000000000002,0.005535496647317918,-0.005535496647317918
207.92100000000002,0.0072758533762281264,-0.0072758533762281264
207.922,0.007840587222499772,-0.007840587222499772
207.923,0.0070113443494302175,-0.0070113443494302175
207.924,0.004838405141618862,-0.004838405141618862
207.925,0.0016626817058880805,-0.0016626817058880805
207.92600000000002,0.0019235449260663541,0.0019235449260663541
207.92700000000002,0.005181332005339399,0.005181332005339399
207.928,0.0073822707948457975,0.0073822707948457975
207.929,0.007986651018085999,0.007986651018085999
207.93,0.006797623890743334,0.006797623890743334
207.931,0.004044376859970149,0.004044376859970149
207.93200000000002,0.0003601855302115726,0.0003601855302115726
207.93300000000002,0.0033524747100999244,-0.0033524747100999244
207.934,0.006144379318758683,-0.006144379318758683
207.935,0.007274259154473787,-0.007274259154473787
207.936,0.00642428377560934,-0.00642428377560934
207.937,0.0038095564321209505,-0.0038095564321209505
207.93800000000002,0.00014122994700866204,-0.00014122994700866204
207.93900000000002,0.00355558527131923,0.00355558527131923
207.94,0.0062234120388099225,0.0062234120388099225
207.941,0.007074506860392387,0.007074506860392387
207.942,0.005824012092306578,0.005824012092306578
207.943,0.002781811459766516,0.002781811459766516
207.94400000000002,0.001228620397240302,-0.001228620397240302
207.94500000000002,0.0051039047811736495,-0.0051039047811736495
207.946,0.0077790964836108615,-0.0077790964836108615
207.947,0.008535493887237598,-0.008535493887237598
207.948,0.007204850839011545,-0.007204850839011545
207.949,0.004208351224599983,-0.004208351224599983
207.95000000000002,0.0004198213806505825,-0.0004198213806505825
207.95100000000002,0.003102762632086884,0.003102762632086884
207.952,0.005432894217809764,0.005432894217809764
207.953,0.006040296952237872,0.006040296952237872
207.954,0.00492477392870589,0.00492477392870589
207.955,0.0025823151797214564,0.0025823151797214564
207.95600000000002,0.0001791776630612537,-0.0001791776630612537
207.95700000000002,0.00250985293833563,-0.00250985293833563
207.958,0.0037837400291014355,-0.0037837400291014355
207.959,0.003775529324457863,-0.003775529324457863
207.96,0.002695989231104609,-0.002695989231104609
207.961,0.0010825140624536368,-0.0010825140624536368
207.96200000000002,0.0004104290861045809,0.0004104290861045809
207.96300000000002,0.0012446563399776142,0.0012446563399776142
207.964,0.001174549497624556,0.001174549497624556
207.965,0.0003085854702805702,0.0003085854702805702
207.966,0.0009592852036466284,-0.0009592852036466284
207.967,0.0021175161560762967,-0.0021175161560762967
207.96800000000002,0.002739072865520453,-0.002739072865520453
207.96900000000002,0.0026424436097306323,-0.0026424436097306323
207.97,0.001952947873094531,-0.001952947873094531
207.971,0.0010431802525155778,-0.0010431802525155778
207.972,0.00037609937115804046,-0.00037609937115804046
207.973,0.00031024214685159156,-0.00031024214685159156
207.97400000000002,0.0009410262116690644,-0.0009410262116690644
207.97500000000002,0.002039899040709181,-0.002039899040709181
207.976,0.003118387182689902,-0.003118387182689902
207.977,0.0035989985149925347,-0.0035989985149925347
207.978,0.0030352585999750166,-0.0030352585999750166
207.979,0.0013029811587624727,-0.0013029811587624727
207.98000000000002,0.0013083876980069526,0.0013083876980069526
207.98100000000002,0.004143647421440438,0.004143647421440438
207.982,0.006361709122517757,0.006361709122517757
207.983,0.007194626499732876,0.007194626499732876
207.984,0.0062038068517505955,0.0062038068517505955
207.985,0.00344882432510085,0.00344882432510085
207.98600000000002,0.0004904013283687047,-0.0004904013283687047
207.98700000000002,0.004651917836360575,-0.004651917836360575
207.988,0.007953545501057866,-0.007953545501057866
207.989,0.009501269780280123,-0.009501269780280123
207.99,0.00885128132857939,-0.00885128132857939
207.991,0.00614577009817595,-0.00614577009817595
207.99200000000002,0.002080582823371181,-0.002080582823371181
207.993,0.0022862350976240544,0.0022862350976240544
207.994,0.005828181393301897,0.005828181393301897
207.995,0.007659586284340034,0.007659586284340034
207.996,0.007370640670806642,0.007370640670806642
207.997,0.005122465100402246,0.005122465100402246
207.99800000000002,0.0015797025364849048,0.0015797025364849048
207.999,0.002293414806970188,-0.002293414806970188
208.0,0.005508773110649766,-0.005508773110649766
208.001,0.007319374733070564,-0.007319374733070564
208.002,0.007398907135104527,-0.007398907135104527
208.00300000000001,0.005890797904497604,-0.005890797904497604
208.00400000000002,0.00332298249477026,-0.00332298249477026
208.005,0.00042434530036185764,-0.00042434530036185764
208.006,0.0020950738345543573,0.0020950738345543573
208.007,0.003732589358207409,0.003732589358207409
208.008,0.004298091564761237,0.004298091564761237
208.00900000000001,0.003914125963169095,0.003914125963169095
208.01000000000002,0.0029233018132170264,0.0029233018132170264
208.011,0.0017429435522541155,0.0017429435522541155
208.012,0.0007193460830321605,0.0007193460830321605
208.013,2.8671633412383217e-05,2.8671633412383217e-05
208.014,0.00034846658230573284,-0.00034846658230573284
208.01500000000001,0.0005787506198169613,-0.0005787506198169613
208.01600000000002,0.0008790262005937437,-0.0008790262005937437
208.017,0.0014096058937116311,-0.0014096058937116311
208.018,0.00219750915919849,-0.00219750915919849
208.019,0.003115908361759476,-0.003115908361759476
208.02,0.003924690439098018,-0.003924690439098018
208.02100000000002,0.004355242512286806,-0.004355242512286806
208.02200000000002,0.004207726493426932,-0.004207726493426932
208.023,0.00342590042609564,-0.00342590042609564
208.024,0.002123511380741315,-0.002123511380741315
208.025,0.0005538442789967914,-0.0005538442789967914
208.026,0.0009661587015224154,0.0009661587015224154
208.02700000000002,0.0021505267524224913,0.0021505267524224913
208.02800000000002,0.0028252942937285687,0.0028252942937285687
208.029,0.002969169374169577,0.002969169374169577
208.03,0.0027016560011765747,0.0027016560011765747
208.031,0.002224858040549624,0.002224858040549624
208.032,0.001741057393088883,0.001741057393088883
208.03300000000002,0.0013761147919055567,0.0013761147919055567
208.03400000000002,0.0011361892041059246,0.0011361892041059246
208.035,0.0009131976644124875,0.0009131976644124875
208.036,0.0005370290929221735,0.0005370290929221735
208.037,0.00014426028692590394,-0.00014426028692590394
208.038,0.0011854754452864762,-0.0011854754452864762
208.03900000000002,0.0024962145981501692,-0.0024962145981501692
208.04000000000002,0.0038436045812952515,-0.0038436045812952515
208.041,0.004908821612542005,-0.004908821612542005
208.042,0.005381842586255114,-0.005381842586255114
208.043,0.005064851990604389,-0.005064851990604389
208.044,0.003949994207835281,-0.003949994207835281
208.04500000000002,0.002243556579966808,-0.002243556579966808
208.04600000000002,0.0003244899719383456,-0.0003244899719383456
208.047,0.0013543446941594775,0.0013543446941594775
208.048,0.002395040124238397,0.002395040124238397
208.049,0.0025753797510444524,0.0025753797510444524
208.05,0.0019235901086477214,0.0019235901086477214
208.05100000000002,0.0007213822720611188,0.0007213822720611188
208.05200000000002,0.0005698615434239636,-0.0005698615434239636
208.053,0.0014418359710642252,-0.0014418359710642252
208.054,0.0014944082822565979,-0.0014944082822565979
208.055,0.0005679497261806912,-0.0005679497261806912
208.056,0.0011877171277131552,0.0011877171277131552
208.05700000000002,0.003331753689240815,0.003331753689240815
208.05800000000002,0.005237833956641993,0.005237833956641993
208.059,0.006261316232626084,0.006261316232626084
208.06,0.005923777347820573,0.005923777347820573
208.061,0.0040636838264778395,0.0040636838264778395
208.062,0.0009092173353173227,0.0009092173353173227
208.06300000000002,0.0029509431802098762,-0.0029509431802098762
208.06400000000002,0.006695937966699413,-0.006695937966699413
208.065,0.00947002207581495,-0.00947002207581495
208.066,0.010598976880256822,-0.010598976880256822
208.067,0.009769012507876028,-0.009769012507876028
208.068,0.007119856329518502,-0.007119856329518502
208.06900000000002,0.003225166018618551,-0.003225166018618551
208.07000000000002,0.0010375552974196355,0.0010375552974196355
208.071,0.004696370992527752,0.004696370992527752
208.072,0.006921254250396,0.006921254250396
208.073,0.007227246711632071,0.007227246711632071
208.074,0.005592299734044618,0.005592299734044618
208.07500000000002,0.0024593944670327967,0.0024593944670327967
208.07600000000002,0.0013776193972339565,-0.0013776193972339565
208.077,0.004974904303009524,-0.004974904303009524
208.078,0.007474243684283315,-0.007474243684283315
208.079,0.00831262738392901,-0.00831262738392901
208.08,0.007352332503751482,-0.007352332503751482
208.08100000000002,0.004899398706015571,-0.004899398706015571
208.08200000000002,0.0016081613651722807,-0.0016081613651722807
208.083,0.0017003585664009072,0.0017003585664009072
208.084,0.004256041790681843,0.004256041790681843
208.085,0.005534507599604268,0.005534507599604268
208.086,0.005377974576781697,0.005377974576781697
208.08700000000002,0.004012303791227562,0.004012303791227562
208.08800000000002,0.001959612099582286,0.001959612099582286
208.089,0.0001253104363278638,-0.0001253104363278638
208.09,0.0016461800887386554,-0.0016461800887386554
208.091,0.002229175359261013,-0.002229175359261013
