Czas,AbsSum,Sum
40.491,0.0150663246170237,-0.0150663246170237
40.492,0.01487956648219685,-0.01487956648219685
40.492999999999995,0.01385994290393616,-0.01385994290393616
40.494,0.011933648493805953,-0.011933648493805953
40.495,0.009211506694545868,-0.009211506694545868
40.495999999999995,0.006033443622621092,-0.006033443622621092
40.497,0.0029235681119552485,-0.0029235681119552485
40.498,0.0004633941803752314,-0.0004633941803752314
40.498999999999995,0.0008779325559661991,0.0008779325559661991
40.5,0.0008997101963762853,0.0008997101963762853
40.501,0.00024284080676248041,-0.00024284080676248041
40.501999999999995,0.002053888653888753,-0.002053888653888753
40.503,0.0038167661930668204,-0.0038167661930668204
40.504,0.004786436755857865,-0.004786436755857865
40.504999999999995,0.00439940980281163,-0.00439940980281163
40.506,0.002439758186151734,-0.002439758186151734
40.507,0.0008872906977753708,0.0008872906977753708
40.507999999999996,0.004995445243421937,0.004995445243421937
40.509,0.009059459051603528,0.009059459051603528
40.51,0.01221916229651871,0.01221916229651871
40.510999999999996,0.013789577278831656,0.013789577278831656
40.512,0.01342211436727418,0.01342211436727418
40.513,0.011177927058345248,0.011177927058345248
40.513999999999996,0.007500119968563621,0.007500119968563621
40.515,0.0030986495841026232,0.0030986495841026232
40.516,0.0012172447357539761,-0.0012172447357539761
40.516999999999996,0.004714508886698298,-0.004714508886698298
40.518,0.006877945316903661,-0.006877945316903661
40.519,0.007489524017467726,-0.007489524017467726
40.519999999999996,0.006635300065538608,-0.006635300065538608
40.521,0.004648230309841264,-0.004648230309841264
40.522,0.0020086721241004586,-0.0020086721241004586
40.522999999999996,0.0007695244808650313,0.0007695244808650313
40.524,0.0032407807195307193,0.0032407807195307193
40.525,0.005097913118183441,0.005097913118183441
40.525999999999996,0.006201094287915322,0.006201094287915322
40.527,0.006566249490729839,0.006566249490729839
40.528,0.006321708676669011,0.006321708676669011
40.528999999999996,0.005647170811295308,0.005647170811295308
40.53,0.004711040133719613,0.004711040133719613
40.531,0.003621202803676942,0.003621202803676942
40.532,0.002400755370256207,0.002400755370256207
40.533,0.0009945784583904973,0.0009945784583904973
40.534,0.0006943548026995375,-0.0006943548026995375
40.535,0.0027474152033558695,-0.0027474152033558695
40.536,0.005166276470056165,-0.005166276470056165
40.537,0.007820730476359915,-0.007820730476359915
40.538,0.010426050878284068,-0.010426050878284068
40.539,0.012562109183632547,-0.012562109183632547
40.54,0.013736751819082505,-0.013736751819082505
40.541,0.013484100388421969,-0.013484100388421969
40.542,0.01147753872820392,-0.01147753872820392
40.543,0.007630506161382054,-0.007630506161382054
40.544,0.0021582833170534534,-0.0021582833170534534
40.545,0.004418578138378388,0.004418578138378388
40.546,0.011335178290281118,0.011335178290281118
40.547,0.01769773449461914,0.01769773449461914
40.548,0.02262992588800448,0.02262992588800448
40.549,0.02541858340685575,0.02541858340685575
40.55,0.025627658874795022,0.025627658874795022
40.551,0.02315807438025713,0.02315807438025713
40.552,0.01824528485188371,0.01824528485188371
40.553,0.011401865737306647,0.011401865737306647
40.554,0.0033245623390464932,0.0033245623390464932
40.555,0.005209376105190012,-0.005209376105190012
40.556,0.01343417804766919,-0.01343417804766919
40.556999999999995,0.020662139165198337,-0.020662139165198337
40.558,0.02632251592935125,-0.02632251592935125
40.559,0.02998025867834926,-0.02998025867834926
40.559999999999995,0.031346928524990096,-0.031346928524990096
40.561,0.030294491508258303,-0.030294491508258303
40.562,0.026875661765217374,-0.026875661765217374
40.562999999999995,0.02134524497985101,-0.02134524497985101
40.564,0.014169570696245746,-0.014169570696245746
40.565,0.006009010219228036,-0.006009010219228036
40.565999999999995,0.0023367811449796793,0.0023367811449796793
40.567,0.010020976077299276,0.010020976077299276
40.568,0.01626652540278721,0.01626652540278721
40.568999999999996,0.02048494496182963,0.02048494496182963
40.57,0.02236951246368828,0.02236951246368828
40.571,0.02193913618539674,0.02193913618539674
40.571999999999996,0.019520335826882316,0.019520335826882316
40.573,0.015670289251663645,0.015670289251663645
40.574,0.011059087872646511,0.011059087872646511
40.574999999999996,0.006339590583317096,0.006339590583317096
40.576,0.0020355211144322894,0.0020355211144322894
40.577,0.0015277899410127912,-0.0015277899410127912
40.577999999999996,0.004238221021417062,-0.004238221021417062
40.579,0.006160403500155409,-0.006160403500155409
40.58,0.007464014711008065,-0.007464014711008065
40.580999999999996,0.008340076380554595,-0.008340076380554595
40.582,0.008928659304740525,-0.008928659304740525
40.583,0.009275283539295272,-0.009275283539295272
40.583999999999996,0.009323555943227762,-0.009323555943227762
40.585,0.008941525023959333,-0.008941525023959333
40.586,0.007971672707545636,-0.007971672707545636
40.586999999999996,0.0062908434653077055,-0.0062908434653077055
40.588,0.0038665600225620445,-0.0038665600225620445
40.589,0.0007987352544098073,-0.0007987352544098073
40.589999999999996,0.002660922836493544,0.002660922836493544
40.591,0.006116640008530596,0.006116640008530596
40.592,0.009065896286528811,0.009065896286528811
40.592999999999996,0.010966094522162923,0.010966094522162923
40.594,0.01132618607627162,0.01132618607627162
40.595,0.009812783765253043,0.009812783765253043
40.596,0.006353127446520175,0.006353127446520175
40.597,0.0012113057606289983,0.0012113057606289983
40.598,0.0049875288147707645,-0.0049875288147707645
40.599,0.011304916949181777,-0.011304916949181777
40.6,0.01661564951716294,-0.01661564951716294
40.601,0.01980082327988064,-0.01980082327988064
40.602,0.019974557976732976,-0.019974557976732976
40.603,0.016695843930254278,-0.016695843930254278
40.604,0.010112120810462328,-0.010112120810462328
40.605,0.0009906885919001782,-0.0009906885919001782
40.606,0.009382616649001392,0.009382616649001392
40.607,0.01942593929809816,0.01942593929809816
40.608,0.027561168326658236,0.027561168326658236
40.609,0.032523845845737115,0.032523845845737115
40.61,0.033609796798911754,0.033609796798911754
40.611,0.03079861003126353,0.03079861003126353
40.612,0.024724685561863493,0.024724685561863493
40.613,0.016505981143975786,0.016505981143975786
40.614,0.0074776010478281064,0.0074776010478281064
40.615,0.0010988916279220788,-0.0010988916279220788
40.616,0.008276127453371553,-0.008276127453371553
40.617,0.013555001708993,-0.013555001708993
40.617999999999995,0.01688893449064692,-0.01688893449064692
40.619,0.01857352180032895,-0.01857352180032895
40.62,0.01906842826288202,-0.01906842826288202
40.620999999999995,0.018813719471400907,-0.018813719471400907
40.622,0.018097804763704237,-0.018097804763704237
40.623,0.01701138836357354,-0.01701138836357354
40.623999999999995,0.015489652574937337,-0.015489652574937337
40.625,0.013414481732284095,-0.013414481732284095
40.626,0.010730036051742138,-0.010730036051742138
40.626999999999995,0.007524122574824696,-0.007524122574824696
40.628,0.0040440167368067746,-0.0040440167368067746
40.629,0.000642150906419218,-0.000642150906419218
40.629999999999995,0.002325630701092985,0.002325630701092985
40.631,0.004608685822043206,0.004608685822043206
40.632,0.006134343714110511,0.006134343714110511
40.632999999999996,0.0070161495733498565,0.0070161495733498565
40.634,0.007493657154781684,0.007493657154781684
40.635,0.007825993453165031,0.007825993453165031
40.635999999999996,0.008179209903123982,0.008179209903123982
40.637,0.008550254733779173,0.008550254733779173
40.638,0.00875719975402832,0.00875719975402832
40.638999999999996,0.008501013000834787,0.008501013000834787
40.64,0.007477693499273308,0.007477693499273308
40.641,0.0055007823711787545,0.0055007823711787545
40.641999999999996,0.0025901127303777876,0.0025901127303777876
40.643,0.0010052875120762689,-0.0010052875120762689
40.644,0.004858436042551522,-0.004858436042551522
40.644999999999996,0.008471393129248866,-0.008471393129248866
40.646,0.011399995064681295,-0.011399995064681295
40.647,0.013353038569659165,-0.013353038569659165
40.647999999999996,0.014233655223094192,-0.014233655223094192
40.649,0.014113676803062088,-0.014113676803062088
40.65,0.013158005680941734,-0.013158005680941734
40.650999999999996,0.011535170583166192,-0.011535170583166192
40.652,0.009354739719615784,-0.009354739719615784
40.653,0.006660018321174834,-0.006660018321174834
40.653999999999996,0.0034799301684054758,-0.0034799301684054758
40.655,8.336516230833994e-05,8.336516230833994e-05
40.656,0.003773738294385219,0.003773738294385219
40.657,0.0071525086663925975,0.0071525086663925975
40.658,0.009651078484258132,0.009651078484258132
40.659,0.010703669493807105,0.010703669493807105
40.66,0.00992556180229584,0.00992556180229584
40.661,0.00727815180824158,0.00727815180824158
40.662,0.0031575859342681716,0.0031575859342681716
40.663,0.0016377419350779646,-0.0016377419350779646
40.664,0.006068625623924061,-0.006068625623924061
40.665,0.009109678342400958,-0.009109678342400958
40.666,0.010026254346688886,-0.010026254346688886
40.667,0.00858893173906102,-0.00858893173906102
40.668,0.005154609966826349,-0.005154609966826349
40.669,0.000581636507682397,-0.000581636507682397
40.67,0.0040023671944812485,0.0040023671944812485
40.671,0.007513804616558255,0.007513804616558255
40.672,0.00921363260991449,0.00921363260991449
40.673,0.008903180169013479,0.008903180169013479
40.674,0.00695511718071054,0.00695511718071054
40.675,0.004171211140555974,0.004171211140555974
40.676,0.0015135079414061129,0.0015135079414061129
40.677,0.000204303454951046,-0.000204303454951046
40.678,0.0005666556932191339,-0.0005666556932191339
40.679,0.0003314223430837057,0.0003314223430837057
40.68,0.0019418201181767372,0.0019418201181767372
40.681,0.0034676193719163743,0.0034676193719163743
40.681999999999995,0.004143366212543925,0.004143366212543925
40.683,0.0034971280682276366,0.0034971280682276366
40.684,0.0015082263972816061,0.0015082263972816061
40.684999999999995,0.001388992128758164,-0.001388992128758164
40.686,0.004452810496361783,-0.004452810496361783
40.687,0.00688055177240107,-0.00688055177240107
40.687999999999995,0.008069704510466845,-0.008069704510466845
40.689,0.0078071797042548125,-0.0078071797042548125
40.69,0.006326510927251979,-0.006326510927251979
40.690999999999995,0.0042184770703993235,-0.0042184770703993235
40.692,0.002229644596636041,-0.002229644596636041
40.693,0.0010190981143275582,-0.0010190981143275582
40.693999999999996,0.0009545683475233048,-0.0009545683475233048
40.695,0.0020125107664588993,-0.0020125107664588993
40.696,0.003809161220267403,-0.003809161220267403
40.696999999999996,0.005744784949458661,-0.005744784949458661
40.698,0.007206776116636006,-0.007206776116636006
40.699,0.007761006575353819,-0.007761006575353819
40.699999999999996,0.00726940059803237,-0.00726940059803237
40.701,0.005900881007990041,-0.005900881007990041
40.702,0.004041414123326528,-0.004041414123326528
40.702999999999996,0.002142974532877212,-0.002142974532877212
40.704,0.000569227848020489,-0.000569227848020489
40.705,0.0005077741930392129,0.0005077741930392129
40.705999999999996,0.0011280725628461615,0.0011280725628461615
40.707,0.0014819860231691782,0.0014819860231691782
40.708,0.0017965909099266414,0.0017965909099266414
40.708999999999996,0.0022181501800135925,0.0022181501800135925
40.71,0.0027367549628338167,0.0027367549628338167
40.711,0.0031810824369624437,0.0031810824369624437
40.711999999999996,0.003283421967881513,0.003283421967881513
40.713,0.0027885981135591146,0.0027885981135591146
40.714,0.001564777285403568,0.001564777285403568
40.714999999999996,0.00032540889963784253,-0.00032540889963784253
40.716,0.0026193869175746114,-0.0026193869175746114
40.717,0.0049164399306538655,-0.0049164399306538655
40.717999999999996,0.006784630645757261,-0.006784630645757261
40.719,0.007876052870746634,-0.007876052870746634
40.72,0.008012852469900543,-0.008012852469900543
40.721,0.007218943668727289,-0.007218943668727289
40.722,0.005692619528278351,-0.005692619528278351
40.723,0.003735359556925776,-0.003735359556925776
40.724,0.0016647726983120114,-0.0016647726983120114
40.725,0.00025913810300995393,0.00025913810300995393
40.726,0.0018746085243700856,0.0018746085243700856
40.727,0.003121141121688505,0.003121141121688505
40.728,0.0040149253060247836,0.0040149253060247836
40.729,0.004614622912832197,0.004614622912832197
40.73,0.0049944173628999125,0.0049944173628999125
40.731,0.005232631746582627,0.005232631746582627
40.732,0.005412856575244845,0.005412856575244845
40.733,0.005626151342711247,0.005626151342711247
40.734,0.005961686079343528,0.005961686079343528
40.735,0.006479908834510257,0.006479908834510257
40.736,0.007173870136236084,0.007173870136236084
40.737,0.00793508301523948,0.00793508301523948
40.738,0.008544551718943964,0.008544551718943964
40.739,0.00870419120966718,0.00870419120966718
40.74,0.008109759907862451,0.008109759907862451
40.741,0.006548686673294406,0.006548686673294406
40.742,0.00399206600234901,0.00399206600234901
40.742999999999995,0.0006462038338126532,0.0006462038338126532
40.744,0.0030615458759585524,-0.0030615458759585524
40.745,0.0065674112747481,-0.0065674112747481
40.745999999999995,0.00930624982835054,-0.00930624982835054
40.747,0.010857063392345942,-0.010857063392345942
40.748,0.011052131360294573,-0.011052131360294573
40.748999999999995,0.010012689526510271,-0.010012689526510271
40.75,0.008098037407070935,-0.008098037407070935
40.751,0.005784963291254266,-0.005784963291254266
40.751999999999995,0.0035194758892131365,-0.0035194758892131365
40.753,0.0015933033543797622,-0.0015933033543797622
40.754,8.880980859601173e-05,-8.880980859601173e-05
40.754999999999995,0.001089620352965089,0.001089620352965089
40.756,0.002112995794231576,0.002112995794231576
40.757,0.0030977154707727736,0.0030977154707727736
40.757999999999996,0.004004354742713073,0.004004354742713073
40.759,0.004612086874442639,0.004612086874442639
40.76,0.004586908671568974,0.004586908671568974
40.760999999999996,0.0036239424703360594,0.0036239424703360594
40.762,0.0016112621153243566,0.0016112621153243566
40.763,0.0012518322691791254,-0.0012518322691791254
40.763999999999996,0.004438359809458749,-0.004438359809458749
40.765,0.007201403053513889,-0.007201403053513889
40.766,0.008782689422712776,-0.008782689422712776
40.766999999999996,0.00865758504743339,-0.00865758504743339
40.768,0.006731593171276571,-0.006731593171276571
40.769,0.003412817302326639,-0.003412817302326639
40.769999999999996,0.0004771661583625755,0.0004771661583625755
40.771,0.003936892116127237,0.003936892116127237
40.772,0.006093335139944087,0.006093335139944087
40.772999999999996,0.006483995270839441,0.006483995270839441
40.774,0.005214365944315116,0.005214365944315116
40.775,0.0029299507338523437,0.0029299507338523437
40.775999999999996,0.0006030260877262637,0.0006030260877262637
40.777,0.0008015294455027947,-0.0008015294455027947
40.778,0.0006722313687440547,-0.0006722313687440547
40.778999999999996,0.0010092184306784591,0.0010092184306784591
40.78,0.0036209056787518575,0.0036209056787518575
40.781,0.006070667614365301,0.006070667614365301
40.782,0.007134691147251895,0.007134691147251895
40.783,0.0058583500099410185,0.0058583500099410185
40.784,0.001889681108883292,0.001889681108883292
40.785,0.004363905525134272,-0.004363905525134272
40.786,0.011807900259013532,-0.011807900259013532
40.787,0.018939337642870282,-0.018939337642870282
40.788,0.024242369452845563,-0.024242369452845563
40.789,0.026575444098186872,-0.026575444098186872
40.79,0.02543193378471083,-0.02543193378471083
40.791,0.02100316326815024,-0.02100316326815024
40.792,0.014042611304706966,-0.014042611304706966
40.793,0.0055973435172349244,-0.0055973435172349244
40.794,0.003286635679420896,0.003286635679420896
40.795,0.011778699369913971,0.011778699369913971
40.796,0.019331448422200116,0.019331448422200116
40.797,0.025600425685895836,0.025600425685895836
40.798,0.0302776610678027,0.0302776610678027
40.799,0.032938833978896444,0.032938833978896444
40.8,0.03300026693171955,0.03300026693171955
40.801,0.029836956020793205,0.029836956020793205
40.802,0.023042394829329824,0.023042394829329824
40.803,0.012741647049957412,0.012741647049957412
40.804,0.00017140949472526208,-0.00017140949472526208
40.805,0.013995160572287547,-0.013995160572287547
40.806,0.026446672253506814,-0.026446672253506814
40.806999999999995,0.03513242846019183,-0.03513242846019183
40.808,0.038151224180437926,-0.038151224180437926
40.809,0.034655407149237955,-0.034655407149237955
40.809999999999995,0.025188799698079554,-0.025188799698079554
40.811,0.011672465262856035,-0.011672465262856035
40.812,0.002990697048811186,0.002990697048811186
40.812999999999995,0.015605236564709465,0.015605236564709465
40.814,0.023483714071063387,0.023483714071063387
40.815,0.025133637791781818,0.025133637791781818
40.815999999999995,0.020632111439117886,0.020632111439117886
40.817,0.01157782873455098,0.01157782873455098
40.818,0.0006335821854064564,0.0006335821854064564
40.818999999999996,0.009207310188009254,-0.009207310188009254
40.82,0.015417996607134138,-0.015417996607134138
40.821,0.016572037149849325,-0.016572037149849325
40.821999999999996,0.01264284701032111,-0.01264284701032111
40.823,0.004902339153133806,-0.004902339153133806
40.824,0.004526472758492099,0.004526472758492099
40.824999999999996,0.013309544467480557,0.013309544467480557
40.826,0.01953487627952441,0.01953487627952441
40.827,0.022156798439099606,0.022156798439099606
40.827999999999996,0.021142378888710806,0.021142378888710806
40.829,0.01731179959817618,0.01731179959817618
40.83,0.01195940886049538,0.01195940886049538
40.830999999999996,0.006400725680886384,0.006400725680886384
40.832,0.0015966971913941935,0.0015966971913941935
40.833,0.0020375996241316454,-0.0020375996241316454
40.833999999999996,0.004607703685611257,-0.004607703685611257
40.835,0.006543577566668528,-0.006543577566668528
40.836,0.008331319749943646,-0.008331319749943646
40.836999999999996,0.010283837823113148,-0.010283837823113148
40.838,0.012432019577005723,-0.012432019577005723
40.839,0.01456106728325166,-0.01456106728325166
40.839999999999996,0.01635583721899617,-0.01635583721899617
40.841,0.017577621261090293,-0.017577621261090293
40.842,0.01818753349312625,-0.01818753349312625
40.842999999999996,0.018359505475948452,-0.018359505475948452
40.844,0.0183763099153585,-0.0183763099153585
40.845,0.018454198888741932,-0.018454198888741932
40.846,0.01857472253979922,-0.01857472253979922
40.847,0.018403031103069015,-0.018403031103069015
40.848,0.017340118873665048,-0.017340118873665048
40.849,0.01470436377939948,-0.01470436377939948
40.85,0.009985489202166823,-0.009985489202166823
40.851,0.003081951041267977,-0.003081951041267977
40.852,0.005566638602995637,0.005566638602995637
40.853,0.015006822549326084,0.015006822549326084
40.854,0.02395863889316426,0.02395863889316426
40.855,0.03110792829867409,0.03110792829867409
40.856,0.03541261246301752,0.03541261246301752
40.857,0.03632847173409373,0.03632847173409373
40.858,0.03388986113293229,0.03388986113293229
40.859,0.028632648646228696,0.028632648646228696
40.86,0.021400958772661467,0.021400958772661467
40.861,0.013115908227170708,0.013115908227170708
40.862,0.00459019463007356,0.00459019463007356
40.863,0.0035542053211759825,-0.0035542053211759825
40.864,0.010855828309427782,-0.010855828309427782
40.865,0.016911509045538408,-0.016911509045538408
40.866,0.021274535791536157,-0.021274535791536157
40.867,0.023426192932226964,-0.023426192932226964
40.867999999999995,0.022861955641277982,-0.022861955641277982
40.869,0.019281097651492832,-0.019281097651492832
40.87,0.012815522774876425,-0.012815522774876425
40.870999999999995,0.004201719989296299,-0.004201719989296299
40.872,0.005196606466484166,0.005196606466484166
40.873,0.013566690103276286,0.013566690103276286
40.873999999999995,0.01901097227638006,0.01901097227638006
40.875,0.020013877962720215,0.020013877962720215
40.876,0.01588044793621039,0.01588044793621039
40.876999999999995,0.0070093822644494135,0.0070093822644494135
40.878,0.005098349566676894,-0.005098349566676894
40.879,0.018120504744413415,-0.018120504744413415
40.879999999999995,0.029423316237451286,-0.029423316237451286
40.881,0.0366684024308389,-0.0366684024308389
40.882,0.03835306082276822,-0.03835306082276822
40.882999999999996,0.03413752577175446,-0.03413752577175446
40.884,0.024874582574145713,-0.024874582574145713
40.885,0.012343690500190081,-0.012343690500190081
40.885999999999996,0.0012239515526681537,0.0012239515526681537
40.887,0.013687394891340814,0.013687394891340814
40.888,0.02345256879036246,0.02345256879036246
40.888999999999996,0.02972733338694165,0.02972733338694165
40.89,0.03252799881205887,0.03252799881205887
40.891,0.03246899761811846,0.03246899761811846
40.891999999999996,0.03042986167454229,0.03042986167454229
40.893,0.027220973468864585,0.027220973468864585
40.894,0.023355367842496404,0.023355367842496404
40.894999999999996,0.018985885793540082,0.018985885793540082
40.896,0.014003738086406108,0.014003738086406108
40.897,0.008238492771819044,0.008238492771819044
40.897999999999996,0.0016692437156153738,0.0016692437156153738
40.899,0.005439182166108137,-0.005439182166108137
40.9,0.01252649765723439,-0.01252649765723439
40.900999999999996,0.018854314537196264,-0.018854314537196264
40.902,0.02370312402616583,-0.02370312402616583
40.903,0.026573288966599225,-0.026573288966599225
40.903999999999996,0.02731537986222852,-0.02731537986222852
40.905,0.02614359885101653,-0.02614359885101653
40.906,0.023530583986828855,-0.023530583986828855
40.907,0.020025922553804625,-0.020025922553804625
40.908,0.016068333420805627,-0.016068333420805627
40.909,0.01186311493098807,-0.01186311493098807
40.91,0.0073719367423700066,-0.0073719367423700066
40.911,0.0024203875369014512,-0.0024203875369014512
40.912,0.0031153567418415497,0.0031153567418415497
40.913,0.009112506137112569,0.009112506137112569
40.914,0.015073586908954531,0.015073586908954531
40.915,0.02012501238346474,0.02012501238346474
40.916,0.02316215833542905,0.02316215833542905
40.917,0.023114137483677476,0.023114137483677476
40.918,0.01926145260239522,0.01926145260239522
40.919,0.01151842342472859,0.01151842342472859
40.92,0.0005958639122762457,0.0005958639122762457
40.921,0.012013304683015116,-0.012013304683015116
40.922,0.02423971571903029,-0.02423971571903029
40.923,0.03380127494296641,-0.03380127494296641
40.924,0.0386519458034186,-0.0386519458034186
40.925,0.03741982684818504,-0.03741982684818504
40.926,0.029737653322534783,-0.029737653322534783
40.927,0.016389053102889056,-0.016389053102889056
40.928,0.0007694135383384769,0.0007694135383384769
40.929,0.019104904642380835,0.019104904642380835
40.93,0.03567277258155635,0.03567277258155635
40.931,0.047761521305578564,0.047761521305578564
40.931999999999995,0.05341051426972421,0.05341051426972421
40.933,0.05179315117993761,0.05179315117993761
40.934,0.04338087403122278,0.04338087403122278
40.934999999999995,0.029845467724079557,0.029845467724079557
40.936,0.01371162391380344,0.01371162391380344
40.937,0.0021721549251290215,-0.0021721549251290215
40.937999999999995,0.015231315313492798,-0.015231315313492798
40.939,0.023696950359318278,-0.023696950359318278
40.94,0.026946040806091715,-0.026946040806091715
40.940999999999995,0.025566063313272776,-0.025566063313272776
40.942,0.021125240038475764,-0.021125240038475764
40.943,0.015704141870358724,-0.015704141870358724
40.943999999999996,0.011308335459905991,-0.011308335459905991
40.945,0.009316843296281971,-0.009316843296281971
40.946,0.01011555613563996,-0.01011555613563996
40.946999999999996,0.013017449184610156,-0.013017449184610156
40.948,0.016493708718517252,-0.016493708718517252
40.949,0.018652617681073187,-0.018652617681073187
40.949999999999996,0.01783127420072279,-0.01783127420072279
40.951,0.013130567569454998,-0.013130567569454998
40.952,0.004737744319654154,-0.004737744319654154
40.952999999999996,0.006059447035970292,0.006059447035970292
40.954,0.01717441843787071,0.01717441843787071
40.955,0.026255027336891758,0.026255027336891758
40.955999999999996,0.03129721358503684,0.03129721358503684
40.957,0.03116541086544029,0.03116541086544029
40.958,0.025875314125681777,0.025875314125681777
40.958999999999996,0.016566035393976684,0.016566035393976684
40.96,0.005180198598950067,0.005180198598950067
40.961,0.006046136881888518,-0.006046136881888518
40.961999999999996,0.01513194201125918,-0.01513194201125918
40.963,0.020784106835174763,-0.020784106835174763
40.964,0.022605155728152602,-0.022605155728152602
40.964999999999996,0.02104121756250601,-0.02104121756250601
40.966,0.017116213437205034,-0.017116213437205034
40.967,0.012058338129655883,-0.012058338129655883
40.967999999999996,0.0069464489674234,-0.0069464489674234
40.969,0.0024823317640623945,-0.0024823317640623945
40.97,0.001059989092589575,0.001059989092589575
40.971,0.003723944812840577,0.003723944812840577
40.972,0.005670796254340418,0.005670796254340418
40.973,0.006987538581503983,0.006987538581503983
40.974,0.007586582774242253,0.007586582774242253
40.975,0.007237500956968382,0.007237500956968382
40.976,0.0057133201228149,0.0057133201228149
40.977,0.0029842751545345004,0.0029842751545345004
40.978,0.00063080391249573,-0.00063080391249573
40.979,0.004432704619164923,-0.004432704619164923
40.98,0.007463538475587121,-0.007463538475587121
40.981,0.00875761971048958,-0.00875761971048958
40.982,0.007645478887882227,-0.007645478887882227
40.983,0.0040089026808837564,-0.0040089026808837564
40.984,0.0016054932696398818,0.0016054932696398818
40.985,0.008063996555511458,0.008063996555511458
40.986,0.01390336023389864,0.01390336023389864
40.987,0.017697745611929327,0.017697745611929327
40.988,0.01842815142986594,0.01842815142986594
40.989,0.01574583753158933,0.01574583753158933
40.99,0.010054731352256695,0.010054731352256695
40.991,0.002394607615089664,0.002394607615089664
40.992,0.0058324775670703915,-0.0058324775670703915
40.992999999999995,0.013205624083876787,-0.013205624083876787
40.994,0.018597337137614467,-0.018597337137614467
40.995,0.021372547040677755,-0.021372547040677755
40.995999999999995,0.021436020190518174,-0.021436020190518174
40.997,0.019141458639549438,-0.019141458639549438
40.998,0.01511683687569102,-0.01511683687569102
40.998999999999995,0.01007779866358043,-0.01007779866358043
41.0,0.004690264506797747,-0.004690264506797747
41.001,0.0004885869212625657,0.0004885869212625657
41.001999999999995,0.005000813058144842,0.005000813058144842
41.003,0.008449347863440695,0.008449347863440695
41.004,0.010479259092785383,0.010479259092785383
41.004999999999995,0.010811955211032882,0.010811955211032882
41.006,0.009333617512552352,0.009333617512552352
41.007,0.006204272600358561,0.006204272600358561
41.007999999999996,0.001931850316107711,0.001931850316107711
41.009,0.002642894383596081,-0.002642894383596081
41.01,0.006478046422536108,-0.006478046422536108
41.010999999999996,0.008563153716358959,-0.008563153716358959
41.012,0.008193698121638338,-0.008193698121638338
41.013,0.00520179648655782,-0.00520179648655782
41.013999999999996,6.0056094998689324e-05,-6.0056094998689324e-05
41.015,0.006191053414303314,0.006191053414303314
41.016,0.012187274133138692,0.012187274133138692
41.016999999999996,0.01659331269701004,0.01659331269701004
41.018,0.018461156083544455,0.018461156083544455
41.019,0.017483191899891507,0.017483191899891507
41.019999999999996,0.01405886194811557,0.01405886194811557
41.021,0.009151667615530917,0.009151667615530917
41.022,0.003981104238152604,0.003981104238152604
41.022999999999996,0.0003514502616829098,-0.0003514502616829098
41.024,0.003181758556279301,-0.003181758556279301
41.025,0.004444022368170783,-0.004444022368170783
41.025999999999996,0.004625255875564814,-0.004625255875564814
41.027,0.004533988547603384,-0.004533988547603384
41.028,0.004967889048502619,-0.004967889048502619
41.028999999999996,0.00639911116446942,-0.00639911116446942
41.03,0.008789101379451303,-0.008789101379451303
41.031,0.011598400356079064,-0.011598400356079064
41.032,0.013987465279876717,-0.013987465279876717
41.033,0.01513593899505511,-0.01513593899505511
41.034,0.014564276375932198,-0.014564276375932198
41.035,0.012338889168933208,-0.012338889168933208
41.036,0.009081556838584673,-0.009081556838584673
41.037,0.0057724895297654065,-0.0057724895297654065
41.038,0.0034104303400700467,-0.0034104303400700467
41.039,0.00264658928273552,-0.00264658928273552
41.04,0.0035228137673533563,-0.0035228137673533563
41.041,0.005412569934954317,-0.005412569934954317
41.042,0.007196089312805493,-0.007196089312805493
41.043,0.007620919297290305,-0.007620919297290305
41.044,0.005733434370873603,-0.005733434370873603
41.045,0.0012384370127453733,-0.0012384370127453733
41.046,0.00533677105672221,0.00533677105672221
41.047,0.012736196968427545,0.012736196968427545
41.048,0.019305871374619994,0.019305871374619994
41.049,0.02346271768460951,0.02346271768460951
41.05,0.02415651989681404,0.02415651989681404
41.051,0.021180623335411354,0.021180623335411354
41.052,0.015234566191429082,0.015234566191429082
41.053,0.007720580681444707,0.007720580681444707
41.054,0.0003398650510765448,0.0003398650510765448
41.055,0.0053837663216252515,-0.0053837663216252515
41.056,0.008505617176292725,-0.008505617176292725
41.056999999999995,0.008868079624233286,-0.008868079624233286
41.058,0.007061288454419637,-0.007061288454419637
41.059,0.004163607760270917,-0.004163607760270917
41.059999999999995,0.001358007877149841,-0.001358007877149841
41.061,0.00044480078770801895,0.00044480078770801895
41.062,0.0008552682427572884,0.0008552682427572884
41.062999999999995,5.40834629457126e-05,5.40834629457126e-05
41.064,0.0013593074039312373,-0.0013593074039312373
41.065,0.0026513087387160174,-0.0026513087387160174
41.065999999999995,0.003262215240184764,-0.003262215240184764
41.067,0.0030251391738407053,-0.0030251391738407053
41.068,0.0022195279349339027,-0.0022195279349339027
41.068999999999996,0.0014446687956571548,-0.0014446687956571548
41.07,0.0013637180332498123,-0.0013637180332498123
41.071,0.0024147471599266315,-0.0024147471599266315
41.071999999999996,0.004596556558567114,-0.004596556558567114
41.073,0.007410308728743911,-0.007410308728743911
41.074,0.00998321259004402,-0.00998321259004402
41.074999999999996,0.011336821343861183,-0.011336821343861183
41.076,0.010711923573084387,-0.010711923573084387
41.077,0.007841579190802207,-0.007841579190802207
41.077999999999996,0.003080094486568397,-0.003080094486568397
41.079,0.0026573524955281723,0.0026573524955281723
41.08,0.008128307168148712,0.008128307168148712
41.080999999999996,0.012098439749901383,0.012098439749901383
41.082,0.013676219216520919,0.013676219216520919
41.083,0.012546844043226132,0.012546844043226132
41.083999999999996,0.009039597012775989,0.009039597012775989
41.085,0.004016306700373854,0.004016306700373854
41.086,0.0013767158997234756,-0.0013767158997234756
41.086999999999996,0.006012713665555894,-0.006012713665555894
41.088,0.009053560611570284,-0.009053560611570284
41.089,0.010111840262390521,-0.010111840262390521
41.089999999999996,0.00927372723075362,-0.00927372723075362
41.091,0.00699652881137367,-0.00699652881137367
41.092,0.003931256568386336,-0.003931256568386336
41.092999999999996,0.0007362582446472541,-0.0007362582446472541
41.094,0.0020604975933567874,0.0020604975933567874
41.095,0.004120001688933719,0.004120001688933719
41.096,0.005275333567806844,0.005275333567806844
41.097,0.005470997297058832,0.005470997297058832
41.098,0.004701916661563598,0.004701916661563598
41.099,0.002987938977268469,0.002987938977268469
41.1,0.00039709105242814665,0.00039709105242814665
41.101,0.0028967340791988807,-0.0028967340791988807
41.102,0.006556824792965345,-0.006556824792965345
41.103,0.0100679118612779,-0.0100679118612779
41.104,0.012789309080914829,-0.012789309080914829
41.105,0.014078238686880738,-0.014078238686880738
41.106,0.013454754165302441,-0.013454754165302441
41.107,0.010757939871611194,-0.010757939871611194
41.108,0.006238463223033261,-0.006238463223033261
41.109,0.000547923664349453,-0.000547923664349453
41.11,0.005383677662700995,0.005383677662700995
41.111,0.010554911799154628,0.010554911799154628
41.112,0.014128046954250486,0.014128046954250486
41.113,0.015624687892112942,0.015624687892112942
41.114,0.015024814182671776,0.015024814182671776
41.115,0.012741338715733647,0.012741338715733647
41.116,0.009480654105314332,0.009480654105314332
41.117,0.006034343267789351,0.006034343267789351
41.117999999999995,0.0030668253947674497,0.0030668253947674497
41.119,0.0009619344655821131,0.0009619344655821131
41.12,0.00023064322512347885,-0.00023064322512347885
41.120999999999995,0.0007425722544427339,-0.0007425722544427339
41.122,0.0009560234251668137,-0.0009560234251668137
41.123,0.0012464925255065964,-0.0012464925255065964
41.123999999999995,0.0018554352968927809,-0.0018554352968927809
41.125,0.0028335916228810296,-0.0028335916228810296
41.126,0.004067012762154869,-0.004067012762154869
41.126999999999995,0.00536611835130769,-0.00536611835130769
41.128,0.006575082766464609,-0.006575082766464609
41.129,0.0076526376087873915,-0.0076526376087873915
41.129999999999995,0.008687963048526018,-0.008687963048526018
41.131,0.009841915070758649,-0.009841915070758649
41.132,0.01123456865627822,-0.01123456865627822
41.132999999999996,0.01282362306271724,-0.01282362306271724
41.134,0.014325809497224435,-0.014325809497224435
41.135,0.015221879618933285,-0.015221879618933285
41.135999999999996,0.0148585892515245,-0.0148585892515245
41.137,0.012627386486121439,-0.012627386486121439
41.138,0.0081707140993685,-0.0081707140993685
41.138999999999996,0.0015528651257564242,-0.0015528651257564242
41.14,0.006661763980514394,0.006661763980514394
41.141,0.015455878036085662,0.015455878036085662
41.141999999999996,0.023529559907274483,0.023529559907274483
41.143,0.029555945001483157,0.029555945001483157
41.144,0.03246002090902449,0.03246002090902449
41.144999999999996,0.03165152880883838,0.03165152880883838
41.146,0.027155492324682222,0.027155492324682222
41.147,0.019611317301710167,0.019611317301710167
41.147999999999996,0.010145099110372893,0.010145099110372893
41.149,0.00014992839464692917,0.00014992839464692917
41.15,0.008972323614431054,-0.008972323614431054
41.150999999999996,0.01605082992988314,-0.01605082992988314
41.152,0.02032113150122588,-0.02032113150122588
41.153,0.021509939030688943,-0.021509939030688943
41.153999999999996,0.01982600831617685,-0.01982600831617685
41.155,0.01587261886433914,-0.01587261886433914
41.156,0.010508626473788352,-0.010508626473788352
41.157,0.004688302297583855,-0.004688302297583855
41.158,0.000692903887944605,0.000692903887944605
41.159,0.004925829888314821,0.004925829888314821
41.16,0.0075741997410313485,0.0075741997410313485
41.161,0.008512121447729544,0.008512121447729544
41.162,0.007909482760363231,0.007909482760363231
41.163,0.006167999862604475,0.006167999862604475
41.164,0.003817838081515068,0.003817838081515068
41.165,0.001392882053118261,0.001392882053118261
41.166,0.0006901663908077182,-0.0006901663908077182
41.167,0.00222073470197709,-0.00222073470197709
41.168,0.0032272399693815826,-0.0032272399693815826
41.169,0.003941642949081908,-0.003941642949081908
41.17,0.004701410846386636,-0.004701410846386636
41.171,0.005813861401164864,-0.005813861401164864
41.172,0.007422180872532919,-0.007422180872532919
41.173,0.009416108807540985,-0.009416108807540985
41.174,0.011420519752287072,-0.011420519752287072
41.175,0.012873403767166697,-0.012873403767166697
41.176,0.013176948738740521,-0.013176948738740521
41.177,0.011880269958064946,-0.011880269958064946
41.178,0.008838545161798602,-0.008838545161798602
41.179,0.004296543907410638,-0.004296543907410638
41.18,0.0011349255128427294,0.0011349255128427294
41.181,0.00660892395831601,0.00660892395831601
41.181999999999995,0.011244085215514244,0.011244085215514244
41.183,0.014339362686271083,0.014339362686271083
41.184,0.015537149860240228,0.015537149860240228
41.184999999999995,0.014885316223769034,0.014885316223769034
41.186,0.012780773645436479,0.012780773645436479
41.187,0.009815851547603385,0.009815851547603385
41.187999999999995,0.006581008571536662,0.006581008571536662
41.189,0.003491916799662918,0.003491916799662918
41.19,0.0007001103114946599,0.0007001103114946599
41.190999999999995,0.0018834768756941665,-0.0018834768756941665
41.192,0.004463835436482616,-0.004463835436482616
41.193,0.0071859249105217906,-0.0071859249105217906
41.193999999999996,0.009978667898797028,-0.009978667898797028
41.195,0.012486296979515404,-0.012486296979515404
41.196,0.014125484543454655,-0.014125484543454655
41.196999999999996,0.014261550053063413,-0.014261550053063413
41.198,0.012450940395182356,-0.012450940395182356
41.199,0.008666529317679299,-0.008666529317679299
41.199999999999996,0.003419038650264526,-0.003419038650264526
41.201,0.0022848435353991065,0.0022848435353991065
41.202,0.00715656876685409,0.00715656876685409
41.202999999999996,0.009962966957614889,0.009962966957614889
41.204,0.009891237924855955,0.009891237924855955
41.205,0.006828140218060435,0.006828140218060435
41.205999999999996,0.001457647821862104,0.001457647821862104
41.207,0.004868485447399791,-0.004868485447399791
41.208,0.01046480611307241,-0.01046480611307241
41.208999999999996,0.01376361108070911,-0.01376361108070911
41.21,0.01375574313223096,-0.01375574313223096
41.211,0.010289994532195245,-0.010289994532195245
41.211999999999996,0.004137982344843332,-0.004137982344843332
41.213,0.0032012009637028853,0.0032012009637028853
41.214,0.009905169085931184,0.009905169085931184
41.214999999999996,0.014326798521776117,0.014326798521776117
41.216,0.01544336294116321,0.01544336294116321
41.217,0.013126269249885008,0.013126269249885008
41.217999999999996,0.008154494986775273,0.008154494986775273
41.219,0.0019710416287669003,0.0019710416287669003
41.22,0.003742237716214036,-0.003742237716214036
41.221,0.007543417374433476,-0.007543417374433476
41.222,0.00862145519740014,-0.00862145519740014
41.223,0.0069873536340821,-0.0069873536340821
41.224,0.0034162389278744316,-0.0034162389278744316
41.225,0.0008327579928858074,0.0008327579928858074
41.226,0.004425839391841557,0.004425839391841557
41.227,0.006364091888169029,0.006364091888169029
41.228,0.006268585225042962,0.006268585225042962
41.229,0.004458670747314941,0.004458670747314941
41.23,0.0018073949836040863,0.0018073949836040863
41.231,0.0005728834725422073,-0.0005728834725422073
41.232,0.001710844296170226,-0.001710844296170226
41.233,0.0011014247793596267,-0.0011014247793596267
41.234,0.0011246979437943491,0.0011246979437943491
41.235,0.0042371615231154595,0.0042371615231154595
41.236,0.007132691650116566,0.007132691650116566
41.237,0.008679527818189238,0.008679527818189238
41.238,0.008072105911015898,0.008072105911015898
41.239,0.005087844234488752,0.005087844234488752
41.24,0.00016981676859672773,0.00016981676859672773
41.241,0.0056869928325204685,-0.0056869928325204685
41.242,0.011209202459982142,-0.011209202459982142
41.242999999999995,0.015195408220824231,-0.015195408220824231
41.244,0.016840247784112503,-0.016840247784112503
41.245,0.015939656183275166,-0.015939656183275166
41.245999999999995,0.012922120248647768,-0.012922120248647768
41.247,0.008702700520681811,-0.008702700520681811
41.248,0.004407539678806658,-0.004407539678806658
41.248999999999995,0.0010518713800051042,-0.0010518713800051042
41.25,0.0007352541443230343,0.0007352541443230343
41.251,0.0008630136018492272,0.0008630136018492272
41.251999999999995,0.00023118351858740982,-0.00023118351858740982
41.253,0.0017453281533401867,-0.0017453281533401867
41.254,0.002778557295930534,-0.002778557295930534
41.254999999999995,0.0026202039121636916,-0.0026202039121636916
41.256,0.0009787578999341275,-0.0009787578999341275
41.257,0.0019141753647046224,0.0019141753647046224
41.257999999999996,0.0053541195171594525,0.0053541195171594525
41.259,0.008354564960136436,0.008354564960136436
41.26,0.009926439340880002,0.009926439340880002
41.260999999999996,0.009370290475447417,0.009370290475447417
41.262,0.006501563521919618,0.006501563521919618
41.263,0.0017464536109761603,0.0017464536109761603
41.263999999999996,0.00392098697650798,-0.00392098697650798
41.265,0.009189094355614555,-0.009189094355614555
41.266,0.012716832028356523,-0.012716832028356523
41.266999999999996,0.013464881224130356,-0.013464881224130356
41.268,0.010967218385618567,-0.010967218385618567
41.269,0.005473995601268024,-0.005473995601268024
41.269999999999996,0.0020729831933896554,0.0020729831933896554
41.271,0.010230441444813589,0.010230441444813589
41.272,0.017367094622024647,0.017367094622024647
41.272999999999996,0.022027225978196518,0.022027225978196518
41.274,0.023257945841658335,0.023257945841658335
41.275,0.0208215496462983,0.0208215496462983
41.275999999999996,0.015241706681529067,0.015241706681529067
41.277,0.00767248212734326,0.00767248212734326
41.278,0.00037748751428115626,-0.00037748751428115626
41.278999999999996,0.007397843943414336,-0.007397843943414336
41.28,0.01221992813050733,-0.01221992813050733
41.281,0.014267413739269581,-0.014267413739269581
41.282,0.013654914793306832,-0.013654914793306832
41.283,0.011114304318955685,-0.011114304318955685
41.284,0.00777221407304882,-0.00777221407304882
41.285,0.004839304384179072,-0.004839304384179072
41.286,0.0032927834731732845,-0.0032927834731732845
41.287,0.0036330560749229393,-0.0036330560749229393
41.288,0.0057738026676957726,-0.0057738026676957726
41.289,0.009088348983192517,-0.009088348983192517
41.29,0.012593884025167264,-0.012593884025167264
41.291,0.015220028884636309,-0.015220028884636309
41.292,0.016088593863244523,-0.016088593863244523
41.293,0.014731805784094054,-0.014731805784094054
41.294,0.011195948899744587,-0.011195948899744587
41.295,0.006010154806164433,-0.006010154806164433
41.296,3.6575237941918475e-05,-3.6575237941918475e-05
41.297,0.005751653524219416,0.005751653524219416
41.298,0.010502230303521985,0.010502230303521985
41.299,0.013664581442242163,0.013664581442242163
41.3,0.015077074408996674,0.015077074408996674
41.301,0.01494614063196736,0.01494614063196736
41.302,0.01373322265210546,0.01373322265210546
41.303,0.011989322576696155,0.011989322576696155
41.304,0.010188157554078661,0.010188157554078661
41.305,0.008605214418476574,0.008605214418476574
41.306,0.007273300342928145,0.007273300342928145
41.306999999999995,0.006020946220055543,0.006020946220055543
41.308,0.004575446706564985,0.004575446706564985
41.309,0.0026943197042000205,0.0026943197042000205
41.309999999999995,0.00028226185577917556,0.00028226185577917556
41.311,0.002543363984554664,-0.002543363984554664
41.312,0.005459033683354534,-0.005459033683354534
41.312999999999995,0.008012146982133412,-0.008012146982133412
41.314,0.009746166700257403,-0.009746166700257403
41.315,0.010336902490152265,-0.010336902490152265
41.315999999999995,0.009699304213595678,-0.009699304213595678
41.317,0.00803200861699397,-0.00803200861699397
41.318,0.005784131849966495,-0.005784131849966495
41.318999999999996,0.003550636288253927,-0.003550636288253927
41.32,0.0019229779166515123,-0.0019229779166515123
41.321,0.0013349695423841084,-0.0013349695423841084
41.321999999999996,0.0019460772554180043,-0.0019460772554180043
41.323,0.00359486222449983,-0.00359486222449983
41.324,0.005836406158516738,-0.005836406158516738
41.324999999999996,0.008054425030547901,-0.008054425030547901
41.326,0.009617847304633166,-0.009617847304633166
41.327,0.010038957643721525,-0.010038957643721525
41.327999999999996,0.009089664222631346,-0.009089664222631346
41.329,0.006844519658127665,-0.006844519658127665
41.33,0.003640584973236501,-0.003640584973236501
41.330999999999996,3.109774322599904e-05,3.109774322599904e-05
41.332,0.003667177697619376,0.003667177697619376
41.333,0.006881738888488194,0.006881738888488194
41.333999999999996,0.00948331173733905,0.00948331173733905
41.335,0.011475888139225001,0.011475888139225001
41.336,0.01298636538470861,0.01298636538470861
41.336999999999996,0.014146642740463504,0.014146642740463504
41.338,0.0149759284810327,0.0149759284810327
41.339,0.015311337764608138,0.015311337764608138
41.339999999999996,0.014820694450307287,0.014820694450307287
41.341,0.013104139654255963,0.013104139654255963
41.342,0.009858919252027046,0.009858919252027046
41.342999999999996,0.005055120877921352,0.005055120877921352
41.344,0.0009412711379705687,-0.0009412711379705687
41.345,0.0073524929711690605,-0.0073524929711690605
41.346,0.013106093556231282,-0.013106093556231282
41.347,0.017070109462797592,-0.017070109462797592
41.348,0.018350871882062563,-0.018350871882062563
41.349,0.016570742002803524,-0.016570742002803524
41.35,0.01203912623762484,-0.01203912623762484
41.351,0.00575286234313502,-0.00575286234313502
41.352,0.0007933264941528523,0.0007933264941528523
41.353,0.005951192669284556,0.005951192669284556
41.354,0.00833474721062269,0.00833474721062269
41.355,0.007197034929944533,0.007197034929944533
41.356,0.002661150118245879,0.002661150118245879
41.357,0.004266240590211487,-0.004266240590211487
41.358,0.0119130821234736,-0.0119130821234736
41.359,0.01834200461822212,-0.01834200461822212
41.36,0.021830451162214364,-0.021830451162214364
41.361,0.021304525453098307,-0.021304525453098307
41.362,0.016610963817854284,-0.016610963817854284
41.363,0.008555047410304025,-0.008555047410304025
41.364,0.0013038782303533814,0.0013038782303533814
41.365,0.011041643904151775,0.011041643904151775
41.366,0.01883650386448128,0.01883650386448128
41.367,0.02338927329152453,0.02338927329152453
41.367999999999995,0.02418837917407172,0.02418837917407172
41.369,0.021558735934635736,0.021558735934635736
41.37,0.016495630651287434,0.016495630651287434
41.370999999999995,0.010343955811571201,0.010343955811571201
41.372,0.00442215636060683,0.00442215636060683
41.373,0.0003012840953329057,-0.0003012840953329057
41.373999999999995,0.0033940735560435116,-0.0033940735560435116
41.375,0.004970481585468035,-0.004970481585468035
41.376,0.005541589574721102,-0.005541589574721102
41.376999999999995,0.005767011632067672,-0.005767011632067672
41.378,0.006193882348102449,-0.006193882348102449
41.379,0.007065571957105068,-0.007065571957105068
41.379999999999995,0.008254507866899704,-0.008254507866899704
41.381,0.009330808345956702,-0.009330808345956702
41.382,0.009735145447434113,-0.009735145447434113
41.382999999999996,0.008993626854298623,-0.008993626854298623
41.384,0.006903057140239057,-0.006903057140239057
41.385,0.0036281802720531707,-0.0036281802720531707
41.385999999999996,0.0003171597898457762,0.0003171597898457762
41.387,0.004195997962930744,0.004195997962930744
41.388,0.007240462473862551,0.007240462473862551
41.388999999999996,0.008851711357471455,0.008851711357471455
41.39,0.008750049758195804,0.008750049758195804
41.391,0.007035508678181206,0.007035508678181206
41.391999999999996,0.004147180271210955,0.004147180271210955
41.393,0.0007387001642561484,0.0007387001642561484
41.394,0.0024911216873313145,-0.0024911216873313145
41.394999999999996,0.004964873976071244,-0.004964873976071244
41.396,0.006348064559876954,-0.006348064559876954
41.397,0.00659960777965909,-0.00659960777965909
41.397999999999996,0.005946542669175277,-0.005946542669175277
41.399,0.004797917489040632,-0.004797917489040632
41.4,0.003625746798511543,-0.003625746798511543
41.400999999999996,0.0028448197389417625,-0.0028448197389417625
41.402,0.002718507293684321,-0.002718507293684321
41.403,0.0033074521530069107,-0.0033074521530069107
41.403999999999996,0.004465961829346692,-0.004465961829346692
41.405,0.0058804906931837495,-0.0058804906931837495
41.406,0.007137850198045904,-0.007137850198045904
41.407,0.00780813307423131,-0.00780813307423131
41.408,0.0075278794538978415,-0.0075278794538978415
41.409,0.006071293992731037,-0.006071293992731037
41.41,0.0034000938557710203,-0.0034000938557710203
41.411,0.000314737201751289,0.000314737201751289
41.412,0.004703239882490635,0.004703239882490635
41.413,0.009239396261445546,0.009239396261445546
41.414,0.013312929366230514,0.013312929366230514
41.415,0.016321200293472792,0.016321200293472792
41.416,0.017767607203157756,0.017767607203157756
41.417,0.017349724635131597,0.017349724635131597
41.418,0.01502025627552617,0.01502025627552617
41.419,0.011007433505106995,0.011007433505106995
41.42,0.005788479549349879,0.005788479549349879
41.421,1.882139839785155e-05,1.882139839785155e-05
41.422,0.005571202212576002,-0.005571202212576002
41.423,0.010293510625263715,-0.010293510625263715
41.424,0.013611684766823983,-0.013611684766823983
41.425,0.015222487507056801,-0.015222487507056801
41.426,0.01509501079474309,-0.01509501079474309
41.427,0.013461306025428074,-0.013461306025428074
41.428,0.010761546346549352,-0.010761546346549352
41.429,0.007554950402954193,-0.007554950402954193
41.43,0.004413438579843392,-0.004413438579843392
41.431,0.0018175063329908105,-0.0018175063329908105
41.431999999999995,7.293311460442316e-05,-7.293311460442316e-05
41.433,0.0007369540091460247,0.0007369540091460247
41.434,0.0007549998948259883,0.0007549998948259883
41.434999999999995,0.0003091837555898314,0.0003091837555898314
41.436,0.00016580105055157343,-0.00016580105055157343
41.437,0.00022970829391194108,-0.00022970829391194108
41.437999999999995,0.00045908260165254054,0.00045908260165254054
41.439,0.0020577563628052463,0.0020577563628052463
41.44,0.004490437645157843,0.004490437645157843
41.440999999999995,0.007448751017616262,0.007448751017616262
41.442,0.010443503826679825,0.010443503826679825
41.443,0.012898151983283982,0.012898151983283982
41.443999999999996,0.014264869247411898,0.014264869247411898
41.445,0.014138261029946331,0.014138261029946331
41.446,0.012341831721089607,0.012341831721089607
41.446999999999996,0.008968532988532712,0.008968532988532712
41.448,0.004367655718624226,0.004367655718624226
41.449,0.000916897510395027,-0.000916897510395027
41.449999999999996,0.006240832541680936,-0.006240832541680936
41.451,0.010963734547498643,-0.010963734547498643
41.452,0.014541061538604298,-0.014541061538604298
41.452999999999996,0.016587714618812636,-0.016587714618812636
41.454,0.016907000600088495,-0.016907000600088495
41.455,0.015489074586191847,-0.015489074586191847
41.455999999999996,0.012490071162540887,-0.012490071162540887
41.457,0.008204866944413261,-0.008204866944413261
41.458,0.003042568064526755,-0.003042568064526755
41.458999999999996,0.002493675385487777,0.002493675385487777
41.46,0.00782866680460397,0.00782866680460397
41.461,0.012349507515061848,0.012349507515061848
41.461999999999996,0.015461463886794645,0.015461463886794645
41.463,0.016667201944718237,0.016667201944718237
41.464,0.015660158941073775,0.015660158941073775
41.464999999999996,0.012412021880150347,0.012412021880150347
41.466,0.007228210866636529,0.007228210866636529
41.467,0.0007471831883092037,0.0007471831883092037
41.467999999999996,0.006129953244595953,-0.006129953244595953
41.469,0.01237584740681018,-0.01237584740681018
41.47,0.017016720358300964,-0.017016720358300964
41.471,0.01931810193886428,-0.01931810193886428
41.472,0.018933249267024617,-0.018933249267024617
41.473,0.015976925043254347,-0.015976925043254347
41.474,0.011003887789402336,-0.011003887789402336
41.475,0.004894619828425431,-0.004894619828425431
41.476,0.0013258981815461872,0.0013258981815461872
41.477,0.006693766444756501,0.006693766444756501
41.478,0.01048799077464294,0.01048799077464294
41.479,0.01234772605191322,0.01234772605191322
41.48,0.012301958081504697,0.012301958081504697
41.481,0.01071180995696316,0.01071180995696316
41.482,0.008147511944489004,0.008147511944489004
41.483,0.005236613217404952,0.005236613217404952
41.484,0.002523637942020694,0.002523637942020694
41.485,0.0003738580538952147,0.0003738580538952147
41.486,0.001061814183425561,-0.001061814183425561
41.487,0.001822447404313846,-0.001822447404313846
41.488,0.002070830768197812,-0.002070830768197812
41.489,0.002011877152492118,-0.002011877152492118
41.49,0.0018222702419999736,-0.0018222702419999736
41.491,0.001610047123479762,-0.001610047123479762
41.492,0.0014102901082913436,-0.0014102901082913436
41.492999999999995,0.0012103473326530822,-0.0012103473326530822
41.494,0.0009890472645530616,-0.0009890472645530616
41.495,0.000751675349993561,-0.000751675349993561
41.495999999999995,0.0005462939807992481,-0.0005462939807992481
41.497,0.00045546704592718256,-0.00045546704592718256
41.498,0.0005674085873755198,-0.0005674085873755198
41.498999999999995,0.0009385765325957527,-0.0009385765325957527
41.5,0.0015631813804336027,-0.0015631813804336027
41.501,0.002362965405376737,-0.002362965405376737
41.501999999999995,0.0032037215753854278,-0.0032037215753854278
41.503,0.003935628640020024,-0.003935628640020024
41.504,0.004445589586871938,-0.004445589586871938
41.504999999999995,0.004704231196302191,-0.004704231196302191
41.506,0.004789943375309078,-0.004789943375309078
41.507,0.0048777092185466435,-0.0048777092185466435
41.507999999999996,0.005190287231797655,-0.005190287231797655
41.509,0.005921015203385502,-0.005921015203385502
41.51,0.0071478631587175425,-0.0071478631587175425
41.510999999999996,0.008764231235090942,-0.008764231235090942
41.512,0.010451170010872611,-0.010451170010872611
41.513,0.01170760720353275,-0.01170760720353275
41.513999999999996,0.011941143842906147,-0.011941143842906147
41.515,0.01060518899277131,-0.01060518899277131
41.516,0.007352969852779133,-0.007352969852779133
41.516999999999996,0.002169764364842634,-0.002169764364842634
41.518,0.004555051123257531,0.004555051123257531
41.519,0.012043679664385873,0.012043679664385873
41.519999999999996,0.019241034486782726,0.019241034486782726
41.521,0.025004743922234587,0.025004743922234587
41.522,0.028334957354256177,0.028334957354256177
41.522999999999996,0.028590735774954898,0.028590735774954898
41.524,0.02563887475952315,0.02563887475952315
41.525,0.019894798039417756,0.019894798039417756
41.525999999999996,0.012241024696292947,0.012241024696292947
41.527,0.0038401951144243066,0.0038401951144243066
41.528,0.004111927896684963,-0.004111927896684963
41.528999999999996,0.010631110022806223,-0.010631110022806223
41.53,0.015124657641956987,-0.015124657641956987
41.531,0.017462377526795195,-0.017462377526795195
41.532,0.017925112881306292,-0.017925112881306292
41.533,0.017052776824365914,-0.017052776824365914
41.534,0.015442701916974555,-0.015442701916974555
41.535,0.013562544059282746,-0.013562544059282746
41.536,0.011635390816037237,-0.011635390816037237
41.537,0.00962983280281062,-0.00962983280281062
41.538,0.007352232696828923,-0.007352232696828923
41.539,0.004603655361723713,-0.004603655361723713
41.54,0.0013414108296410413,-0.0013414108296410413
41.541,0.002217271241176543,0.002217271241176543
41.542,0.005592892025362325,0.005592892025362325
41.543,0.008151409918591054,0.008151409918591054
41.544,0.009291684724936106,0.009291684724936106
41.545,0.00865196073894613,0.00865196073894613
41.546,0.00626390450042013,0.00626390450042013
41.547,0.0025959590963913746,0.0025959590963913746
41.548,0.0015383598316780506,-0.0015383598316780506
41.549,0.005187674052043558,-0.005187674052043558
41.55,0.007526292921378723,-0.007526292921378723
41.551,0.008093129141762896,-0.008093129141762896
41.552,0.0069290260748094135,-0.0069290260748094135
41.553,0.004565062566543573,-0.004565062566543573
41.554,0.0018605703710420395,-0.0018605703710420395
41.555,0.000262253698692113,0.000262253698692113
41.556,0.0011058929410754374,0.0011058929410754374
41.556999999999995,0.00041700393586965997,0.00041700393586965997
41.558,0.0015323861454530632,-0.0015323861454530632
41.559,0.004029250758434867,-0.004029250758434867
41.559999999999995,0.006144379820047482,-0.006144379820047482
41.561,0.007027566161014291,-0.007027566161014291
41.562,0.006180222751849098,-0.006180222751849098
41.562999999999995,0.0036192656967064113,-0.0036192656967064113
41.564,0.00011955035350404759,0.00011955035350404759
41.565,0.0041397772624431,0.0041397772624431
41.565999999999995,0.0074538397360778205,0.0074538397360778205
41.567,0.009279252302278964,0.009279252302278964
41.568,0.009269281209716854,0.009269281209716854
41.568999999999996,0.007607727999601656,0.007607727999601656
41.57,0.004941231823779374,0.004941231823779374
41.571,0.0021736320225712695,0.0021736320225712695
41.571999999999996,0.00018899473338038667,0.00018899473338038667
41.573,0.0004102650212089716,-0.0004102650212089716
41.574,0.0005282812202802919,0.0005282812202802919
41.574999999999996,0.002678537815376831,0.002678537815376831
41.576,0.005348305852169848,0.005348305852169848
41.577,0.007690829073195758,0.007690829073195758
41.577999999999996,0.008946350376853198,0.008946350376853198
41.579,0.008640776113042243,0.008640776113042243
41.58,0.006687898281932263,0.006687898281932263
41.580999999999996,0.003376173946373166,0.003376173946373166
41.582,0.0007416455072401688,-0.0007416455072401688
41.583,0.00501019396414543,-0.00501019396414543
41.583999999999996,0.0088291031603233,-0.0088291031603233
41.585,0.011761126887453312,-0.011761126887453312
41.586,0.013569408598119857,-0.013569408598119857
41.586999999999996,0.014190764188646475,-0.014190764188646475
41.588,0.013673666022871157,-0.013673666022871157
41.589,0.012117558417991689,-0.012117558417991689
41.589999999999996,0.00964245946483101,-0.00964245946483101
41.591,0.006398783027012247,-0.006398783027012247
41.592,0.0026053435852101195,-0.0026053435852101195
41.592999999999996,0.0014122486095769333,0.0014122486095769333
41.594,0.005213714165483987,0.005213714165483987
41.595,0.00828685366484438,0.00828685366484438
41.596,0.01014049646809637,0.01014049646809637
41.597,0.0104250315432258,0.0104250315432258
41.598,0.009042801829982343,0.009042801829982343
41.599,0.006208804987448717,0.006208804987448717
41.6,0.0024348285444662074,0.0024348285444662074
41.601,0.0015667476466372297,-0.0015667476466372297
41.602,0.005037666879309714,-0.005037666879309714
41.603,0.007346022121457932,-0.007346022121457932
41.604,0.008128771252942564,-0.008128771252942564
41.605,0.007366073243910595,-0.007366073243910595
41.606,0.005369503775271128,-0.005369503775271128
41.607,0.002691404779569682,-0.002691404779569682
41.608,1.5870782333121593e-05,1.5870782333121593e-05
41.609,0.0021508647447417216,0.0021508647447417216
41.61,0.003285902672152095,0.003285902672152095
41.611,0.0032365986861347534,0.0032365986861347534
41.612,0.0020708852754908547,0.0020708852754908547
41.613,6.743212431514416e-05,6.743212431514416e-05
41.614,0.002356479816423079,-0.002356479816423079
41.615,0.004726262418301266,-0.004726262418301266
41.616,0.006585109586570985,-0.006585109586570985
41.617,0.007556378328385372,-0.007556378328385372
41.617999999999995,0.007393644332104862,-0.007393644332104862
41.619,0.0060203832801161905,-0.0060203832801161905
41.62,0.003557335610417829,-0.003557335610417829
41.620999999999995,0.00032926571909170277,-0.00032926571909170277
41.622,0.0031612221500957748,0.0031612221500957748
41.623,0.006302700477210974,0.006302700477210974
41.623999999999995,0.00848626057945232,0.00848626057945232
41.625,0.009242759763038145,0.009242759763038145
41.626,0.008373923510649145,0.008373923510649145
41.626999999999995,0.0060370102762832565,0.0060370102762832565
41.628,0.0027473935845913856,0.0027473935845913856
41.629,0.0007177522353267485,-0.0007177522353267485
41.629999999999995,0.0035025878713613253,-0.0035025878713613253
41.631,0.004900288706288413,-0.004900288706288413
41.632,0.0045621132437128585,-0.0045621132437128585
41.632999999999996,0.0026219280104626355,-0.0026219280104626355
41.634,0.00031098418301124916,0.00031098418301124916
41.635,0.0033014681627365457,0.0033014681627365457
41.635999999999996,0.005347075474900978,0.005347075474900978
41.637,0.005674947584124346,0.005674947584124346
41.638,0.003988400161905306,0.003988400161905306
41.638999999999996,0.000583774848196048,0.000583774848196048
41.64,0.003706632264383451,-0.003706632264383451
41.641,0.007738115868813388,-0.007738115868813388
41.641999999999996,0.010383762602218252,-0.010383762602218252
41.643,0.010875171760583455,-0.010875171760583455
41.644,0.009049687706592991,-0.009049687706592991
41.644999999999996,0.005424470758871501,-0.005424470758871501
41.646,0.001067841849958696,-0.001067841849958696
41.647,0.002700652714833596,0.002700652714833596
41.647999999999996,0.004696846832451838,0.004696846832451838
41.649,0.0042320150886240695,0.0042320150886240695
41.65,0.0013384355126982268,0.0013384355126982268
41.650999999999996,0.0032094928646367767,-0.0032094928646367767
41.652,0.00808906037332658,-0.00808906037332658
41.653,0.011785468563973348,-0.011785468563973348
41.653999999999996,0.013010376408072333,-0.013010376408072333
41.655,0.011064660240295485,-0.011064660240295485
41.656,0.006043796419433181,-0.006043796419433181
41.657,0.0011701384260721015,0.0011701384260721015
41.658,0.009125216462219667,0.009125216462219667
41.659,0.016162873101863512,0.016162873101863512
41.66,0.020827123939287304,0.020827123939287304
41.661,0.022210679332164862,0.022210679332164862
41.662,0.020150724464772864,0.020150724464772864
41.663,0.015231643667632086,0.015231643667632086
41.664,0.008605273243615468,0.008605273243615468
41.665,0.0016860267169728,0.0016860267169728
41.666,0.004193820536070207,-0.004193820536070207
41.667,0.00808021479048968,-0.00808021479048968
41.668,0.009576402254420273,-0.009576402254420273
41.669,0.0088723269364082,-0.0088723269364082
41.67,0.00663194217626323,-0.00663194217626323
41.671,0.0037799751934591446,-0.0037799751934591446
41.672,0.0012495031764486362,-0.0012495031764486362
41.673,0.0002456768818906018,0.0002456768818906018
41.674,0.0003627642292867526,0.0003627642292867526
41.675,0.0008222295090475049,-0.0008222295090475049
41.676,0.002871893152676907,-0.002871893152676907
41.677,0.0051275650361780716,-0.0051275650361780716
41.678,0.006893350784506662,-0.006893350784506662
41.679,0.007618526143551276,-0.007618526143551276
41.68,0.007036125347872204,-0.007036125347872204
41.681,0.005227174859964949,-0.005227174859964949
41.681999999999995,0.002597429436386978,-0.002597429436386978
41.683,0.00022672454511676643,0.00022672454511676643
41.684,0.0025580226124033855,0.0025580226124033855
41.684999999999995,0.00382508192112347,0.00382508192112347
41.686,0.0037222989424111233,0.0037222989424111233
41.687,0.002293989315267062,0.002293989315267062
41.687999999999995,7.112458361883795e-05,-7.112458361883795e-05
41.689,0.0027366921980972706,-0.0027366921980972706
41.69,0.004983995351012686,-0.004983995351012686
41.690999999999995,0.006202932645002439,-0.006202932645002439
41.692,0.006056583659429626,-0.006056583659429626
41.693,0.004572190325370127,-0.004572190325370127
41.693999999999996,0.002130561547257971,-0.002130561547257971
41.695,0.0006453613374152688,0.0006453613374152688
41.696,0.003071854842297208,0.003071854842297208
41.696999999999996,0.004602432994990244,0.004602432994990244
41.698,0.004982400542420089,0.004982400542420089
41.699,0.004311500801962249,0.004311500801962249
41.699999999999996,0.0029938201364681305,0.0029938201364681305
41.701,0.0015895493445660174,0.0015895493445660174
41.702,0.0006153508988842267,0.0006153508988842267
41.702999999999996,0.00035828402521420854,0.00035828402521420854
41.704,0.0007659108312371911,0.0007659108312371911
41.705,0.0014522518450815762,0.0014522518450815762
41.705999999999996,0.0018224177270194674,0.0018224177270194674
41.707,0.001279624245938924,0.001279624245938924
41.708,0.0005503213167594118,-0.0005503213167594118
41.708999999999996,0.0036503766840697005,-0.0036503766840697005
41.71,0.007557646009672502,-0.007557646009672502
41.711,0.011446645487772399,-0.011446645487772399
41.711999999999996,0.014331518605175621,-0.014331518605175621
41.713,0.01533064011433732,-0.01533064011433732
41.714,0.013916667311021598,-0.013916667311021598
41.714999999999996,0.010078491147924154,-0.010078491147924154
41.716,0.004347546066480684,-0.004347546066480684
41.717,0.0023188591230488393,0.0023188591230488393
41.717999999999996,0.00876293937651275,0.00876293937651275
41.719,0.013896268963026568,0.013896268963026568
41.72,0.01694008590948437,0.01694008590948437
41.721,0.017574754795512775,0.017574754795512775
41.722,0.01596684127501489,0.01596684127501489
41.723,0.01267877566039252,0.01267877566039252
41.724,0.008497613085758584,0.008497613085758584
41.725,0.004236757380225514,0.004236757380225514
41.726,0.0005639651903962599,0.0005639651903962599
41.727,0.002107026559956053,-0.002107026559956053
41.728,0.0036480314041268847,-0.0036480314041268847
41.729,0.004181124368920108,-0.004181124368920108
41.73,0.004001510531818054,-0.004001510531818054
41.731,0.0034869213921330383,-0.0034869213921330383
41.732,0.003015295220176374,-0.003015295220176374
41.733,0.0029010312107789434,-0.0029010312107789434
41.734,0.0033499826199038306,-0.0033499826199038306
41.735,0.004429022271367899,-0.004429022271367899
41.736,0.006048341671956225,-0.006048341671956225
41.737,0.007960758155512906,-0.007960758155512906
41.738,0.009787147323009022,-0.009787147323009022
41.739,0.011076036375289516,-0.011076036375289516
41.74,0.011396604416731737,-0.011396604416731737
41.741,0.010450168138438602,-0.010450168138438602
41.742,0.00817151912207133,-0.00817151912207133
41.742999999999995,0.004785244766196196,-0.004785244766196196
41.744,0.0007884868160398726,-0.0007884868160398726
41.745,0.003149046989460963,0.003149046989460963
41.745999999999995,0.006349686925895837,0.006349686925895837
41.747,0.008312981835234804,0.008312981835234804
41.748,0.00886329986999352,0.00886329986999352
41.748999999999995,0.008206686196817628,0.008206686196817628
41.75,0.006868836581892094,0.006868836581892094
41.751,0.005524438778120846,0.005524438778120846
41.751999999999995,0.004767332352890919,0.004767332352890919
41.753,0.004896610615326215,0.004896610615326215
41.754,0.005795079441676382,0.005795079441676382
41.754999999999995,0.006950448160007116,0.006950448160007116
41.756,0.0076230804797078385,0.0076230804797078385
41.757,0.007112048757604728,0.007112048757604728
41.757999999999996,0.0050319358863593735,0.0050319358863593735
41.759,0.0015015639745721582,0.0015015639745721582
41.76,0.0028310373323456772,-0.0028310373323456772
41.760999999999996,0.006951100233490413,-0.006951100233490413
41.762,0.009786127640411651,-0.009786127640411651
41.763,0.010565414995688195,-0.010565414995688195
41.763999999999996,0.009108603841314527,-0.009108603841314527
41.765,0.005937103996172861,-0.005937103996172861
41.766,0.0021557423191209935,-0.0021557423191209935
41.766999999999996,0.000872465849532645,0.000872465849532645
41.768,0.001962883659872395,0.001962883659872395
41.769,0.0005172564450815727,0.0005172564450815727
41.769999999999996,0.0032358431208928283,-0.0032358431208928283
41.771,0.008258732881348048,-0.008258732881348048
41.772,0.012989310921358408,-0.012989310921358408
41.772999999999996,0.015812602292830234,-0.015812602292830234
41.774,0.015572941093352579,-0.015572941093352579
41.775,0.011960721147222271,-0.011960721147222271
41.775999999999996,0.005642678499630179,-0.005642678499630179
41.777,0.00191517216455806,0.00191517216455806
41.778,0.008882971722501017,0.008882971722501017
41.778999999999996,0.013625263782147649,0.013625263782147649
41.78,0.01520267994211681,0.01520267994211681
41.781,0.013652515328304964,0.013652515328304964
41.782,0.009953612642723002,0.009953612642723002
41.783,0.005683886459487598,0.005683886459487598
41.784,0.002480887694234958,0.002480887694234958
41.785,0.0014828278808807966,0.0014828278808807966
41.786,0.0029363978752521996,0.0029363978752521996
41.787,0.006104603340141182,0.006104603340141182
41.788,0.009509543822842246,0.009509543822842246
41.789,0.01143381852758146,0.01143381852758146
41.79,0.010517023482291648,0.010517023482291648
41.791,0.006249946480210463,0.006249946480210463
41.792,0.0007996578295045197,-0.0007996578295045197
41.793,0.009109290855451278,-0.009109290855451278
41.794,0.016638046622485414,-0.016638046622485414
41.795,0.021440201970173028,-0.021440201970173028
41.796,0.02226071830772687,-0.02226071830772687
41.797,0.018922584386719205,-0.018922584386719205
41.798,0.01238307647829885,-0.01238307647829885
41.799,0.004442720984249989,-0.004442720984249989
41.8,0.0027981996278127193,0.0027981996278127193
41.801,0.007561673877228559,0.007561673877228559
41.802,0.008896853468506945,0.008896853468506945
41.803,0.006913875427679767,0.006913875427679767
41.804,0.002683049354141897,0.002683049354141897
41.805,0.002155687853779507,-0.002155687853779507
41.806,0.005937401926161901,-0.005937401926161901
41.806999999999995,0.007491312820946529,-0.007491312820946529
41.808,0.006470723909171135,-0.006470723909171135
41.809,0.003398371433743895,-0.003398371433743895
41.809999999999995,0.0005715040998490952,0.0005715040998490952
41.811,0.004080964315307297,0.004080964315307297
41.812,0.006035280860286111,0.006035280860286111
41.812999999999995,0.005953034272881315,0.005953034272881315
41.814,0.004090067406152894,0.004090067406152894
41.815,0.0013084966195569764,0.0013084966195569764
41.815999999999995,0.0012518528965968208,-0.0012518528965968208
41.817,0.0025794304098137356,-0.0025794304098137356
41.818,0.002134646781432572,-0.002134646781432572
41.818999999999996,1.9643892295597407e-05,-1.9643892295597407e-05
41.82,0.0030735681071357825,0.0030735681071357825
41.821,0.006107937953118655,0.006107937953118655
41.821999999999996,0.008048013007204017,0.008048013007204017
41.823,0.008188935451127932,0.008188935451127932
41.824,0.006361784125636884,0.006361784125636884
41.824999999999996,0.0029573648094089583,0.0029573648094089583
41.826,0.0012251932277184754,-0.0012251932277184754
41.827,0.005241244125552583,-0.005241244125552583
41.827999999999996,0.008279637681325266,-0.008279637681325266
41.829,0.009866324058979864,-0.009866324058979864
41.83,0.009935696313266861,-0.009935696313266861
41.830999999999996,0.008764217738989014,-0.008764217738989014
41.832,0.00680944970389533,-0.00680944970389533
41.833,0.004526138325628609,-0.004526138325628609
41.833999999999996,0.0022306773662483593,-0.0022306773662483593
41.835,5.827378166880977e-05,-5.827378166880977e-05
41.836,0.001984562934035857,0.001984562934035857
41.836999999999996,0.003909229768111204,0.003909229768111204
41.838,0.0056353536613666325,0.0056353536613666325
41.839,0.006938787327523759,0.006938787327523759
41.839999999999996,0.007487650359674488,0.007487650359674488
41.841,0.006958107236190281,0.006958107236190281
41.842,0.0051858291788187145,0.0051858291788187145
41.842999999999996,0.002290404603785318,0.002290404603785318
41.844,0.0012841401410401826,-0.0012841401410401826
41.845,0.004840918822355053,-0.004840918822355053
41.846,0.007601163839498552,-0.007601163839498552
41.847,0.008923855351315806,-0.008923855351315806
41.848,0.008502261004457293,-0.008502261004457293
41.849,0.00646978009915853,-0.00646978009915853
41.85,0.003375735803771263,-0.003375735803771263
41.851,3.443514396701804e-05,-3.443514396701804e-05
41.852,0.002706935107852201,0.002706935107852201
41.853,0.004208875416044671,0.004208875416044671
41.854,0.004213202839627469,0.004213202839627469
41.855,0.0028968099569223462,0.0028968099569223462
41.856,0.0007922807583730097,0.0007922807583730097
41.857,0.0013947885130426935,-0.0013947885130426935
41.858,0.0030099195481476018,-0.0030099195481476018
41.859,0.0036429797442351047,-0.0036429797442351047
41.86,0.0032318209643306677,-0.0032318209643306677
41.861,0.002049845748665162,-0.002049845748665162
41.862,0.0005900613793621446,-0.0005900613793621446
41.863,0.000609383984853266,0.000609383984853266
41.864,0.0011378403114929215,0.0011378403114929215
41.865,0.0008283876050761463,0.0008283876050761463
41.866,0.0002135231865701021,-0.0002135231865701021
41.867,0.0016684873089178036,-0.0016684873089178036
41.867999999999995,0.00311959411255658,-0.00311959411255658
41.869,0.004182157035641715,-0.004182157035641715
41.87,0.004603328796653692,-0.004603328796653692
41.870999999999995,0.004304500971963078,-0.004304500971963078
41.872,0.0033632877990849015,-0.0033632877990849015
41.873,0.0019538967138769785,-0.0019538967138769785
41.873999999999995,0.000276788697129068,-0.000276788697129068
41.875,0.0014928850633494424,0.0014928850633494424
41.876,0.0032216618955452324,0.0032216618955452324
41.876999999999995,0.004801014224939035,0.004801014224939035
41.878,0.006115341509662075,0.006115341509662075
41.879,0.0070192497596661746,0.0070192497596661746
41.879999999999995,0.007343659279730886,0.007343659279730886
41.881,0.00693599578883863,0.00693599578883863
41.882,0.005722349775202007,0.005722349775202007
41.882999999999996,0.0037664992822889955,0.0037664992822889955
41.884,0.0012978046108979993,0.0012978046108979993
41.885,0.0013111142995761139,-0.0013111142995761139
41.885999999999996,0.0036183622481469743,-0.0036183622481469743
41.887,0.005220094963967454,-0.005220094963967454
41.888,0.005858632573619227,-0.005858632573619227
41.888999999999996,0.005495820748586983,-0.005495820748586983
41.89,0.0043259283218201865,-0.0043259283218201865
41.891,0.0027217737776734485,-0.0027217737776734485
41.891999999999996,0.0011298893209994853,-0.0011298893209994853
41.893,5.257491921143716e-05,5.257491921143716e-05
41.894,0.0005808834653627427,0.0005808834653627427
41.894999999999996,0.0004149367637446054,0.0004149367637446054
41.896,0.0002921918668107834,-0.0002921918668107834
41.897,0.0012606972167551733,-0.0012606972167551733
41.897999999999996,0.002179275010573842,-0.002179275010573842
41.899,0.002795675274236873,-0.002795675274236873
41.9,0.002974160165663402,-0.002974160165663402
41.900999999999996,0.002706322855779925,-0.002706322855779925
41.902,0.0020802823112207303,-0.0020802823112207303
41.903,0.0012281953897802463,-0.0012281953897802463
41.903999999999996,0.0002776712688597874,-0.0002776712688597874
41.905,0.0006727696066835858,0.0006727696066835858
41.906,0.0015478653662648984,0.0015478653662648984
41.907,0.0022691486125879894,0.0022691486125879894
41.908,0.002728827761261917,0.002728827761261917
41.909,0.002786270677299491,0.002786270677299491
41.91,0.0022996072279513656,0.0022996072279513656
41.911,0.0011878304977231983,0.0011878304977231983
41.912,0.0004987306821043997,-0.0004987306821043997
41.913,0.00253182861884182,-0.00253182861884182
41.914,0.004512273010156127,-0.004512273010156127
41.915,0.005944204770041965,-0.005944204770041965
41.916,0.006365874228334696,-0.006365874228334696
41.917,0.005501677690305701,-0.005501677690305701
41.918,0.0033854117184394204,-0.0033854117184394204
41.919,0.00040645797872585615,-0.00040645797872585615
41.92,0.0027497162483995645,0.0027497162483995645
41.921,0.005262885261929152,0.005262885261929152
41.922,0.006402349283296396,0.006402349283296396
41.923,0.005749829102365774,0.005749829102365774
41.924,0.0033504041822347112,0.0033504041822347112
41.925,0.0002622790228694443,-0.0002622790228694443
41.926,0.004184403050525796,-0.004184403050525796
41.927,0.007377538562055565,-0.007377538562055565
41.928,0.008956373777601138,-0.008956373777601138
41.929,0.008443856877035099,-0.008443856877035099
41.93,0.00591541931894901,-0.00591541931894901
41.931,0.001985609756101076,-0.001985609756101076
41.931999999999995,0.0023619540723206576,0.0023619540723206576
41.933,0.0060517949236538245,0.0060517949236538245
41.934,0.008217456795600831,0.008217456795600831
41.934999999999995,0.008434550752353423,0.008434550752353423
41.936,0.006815493004702712,0.006815493004702712
41.937,0.003939214548938164,0.003939214548938164
41.937999999999995,0.0006417258132066436,0.0006417258132066436
41.939,0.002262108961082923,-0.002262108961082923
41.94,0.004233469631893293,-0.004233469631893293
41.940999999999995,0.00515731833910952,-0.00515731833910952
41.942,0.005335071966998522,-0.005335071966998522
41.943,0.005326363030124202,-0.005326363030124202
41.943999999999996,0.005695282806214924,-0.005695282806214924
41.945,0.006749997197753949,-0.006749997197753949
41.946,0.00836902590391825,-0.00836902590391825
41.946999999999996,0.00998077841329607,-0.00998077841329607
41.948,0.010713278351799896,-0.010713278351799896
41.949,0.009674141702590023,-0.009674141702590023
41.949999999999996,0.006275190914761952,-0.006275190914761952
41.951,0.0004966963763109705,-0.0004966963763109705
41.952,0.006999929990006971,0.006999929990006971
41.952999999999996,0.014958678841739015,0.014958678841739015
41.954,0.021802337349443816,0.021802337349443816
41.955,0.026022181945584637,0.026022181945584637
41.955999999999996,0.026575334535546,0.026575334535546
41.957,0.023175257054733323,0.023175257054733323
41.958,0.0163894135257518,0.0163894135257518
41.958999999999996,0.007512779170503883,0.007512779170503883
41.96,0.0017497464817372444,-0.0017497464817372444
41.961,0.009704190688391498,-0.009704190688391498
41.961999999999996,0.015074958938615513,-0.015074958938615513
41.963,0.01728770619064881,-0.01728770619064881
41.964,0.016554179463437124,-0.016554179463437124
41.964999999999996,0.013743829520627316,-0.013743829520627316
41.966,0.010088073908048438,-0.010088073908048438
41.967,0.006808882677542523,-0.006808882677542523
41.967999999999996,0.004780772283052822,-0.004780772283052822
41.969,0.004320146844301668,-0.004320146844301668
41.97,0.005153946784168875,-0.005153946784168875
41.971,0.0065643461169214296,-0.0065643461169214296
41.972,0.0076548401531865195,-0.0076548401531865195
41.973,0.007650683276660402,-0.007650683276660402
41.974,0.006142036069387125,-0.006142036069387125
41.975,0.0032012691216928026,-0.0032012691216928026
41.976,0.0006518937426359968,0.0006518937426359968
41.977,0.004616297788810909,0.004616297788810909
41.978,0.007847471926648728,0.007847471926648728
41.979,0.009691911125401093,0.009691911125401093
41.98,0.009848900384680179,0.009848900384680179
41.981,0.008419182054389398,0.008419182054389398
41.982,0.00583796549502108,0.00583796549502108
41.983,0.0027253642850587384,0.0027253642850587384
41.984,0.00029087631650941923,-0.00029087631650941923
41.985,0.002723489183154807,-0.002723489183154807
41.986,0.004304562295127355,-0.004304562295127355
41.987,0.004983544219608521,-0.004983544219608521
41.988,0.004862128119878689,-0.004862128119878689
41.989,0.0041037545487872555,-0.0041037545487872555
41.99,0.002859581831266627,-0.002859581831266627
41.991,0.0012404960186785023,-0.0012404960186785023
41.992,0.0006584802349538878,0.0006584802349538878
41.992999999999995,0.0026998717281507133,0.0026998717281507133
41.994,0.004646784912620527,0.004646784912620527
41.995,0.006144605970193177,0.006144605970193177
41.995999999999995,0.006764905467718566,0.006764905467718566
41.997,0.006110318472390855,0.006110318472390855
41.998,0.003952480445304967,0.003952480445304967
41.998999999999995,0.00035662807360879663,0.00035662807360879663
42.0,0.004256243424091878,-0.004256243424091878
42.001,0.009143587359895872,-0.009143587359895872
42.001999999999995,0.01337688501761715,-0.01337688501761715
42.003,0.0160502235908229,-0.0160502235908229
42.004,0.016506917842189047,-0.016506917842189047
42.004999999999995,0.014518883202242969,-0.014518883202242969
42.006,0.010363679497712353,-0.010363679497712353
42.007,0.004772446443822647,-0.004772446443822647
42.007999999999996,0.001240233611975204,0.001240233611975204
42.009,0.006618143788649672,0.006618143788649672
42.01,0.010509000878384892,0.010509000878384892
42.010999999999996,0.012445269400671274,0.012445269400671274
42.012,0.012412298113541134,0.012412298113541134
42.013,0.010791016124755696,0.010791016124755696
42.013999999999996,0.008200777536716166,0.008200777536716166
42.015,0.0052971185739741165,0.0052971185739741165
42.016,0.0025899383402432775,0.0025899383402432775
42.016999999999996,0.000336863415448216,0.000336863415448216
42.018,0.0014615994758973465,-0.0014615994758973465
42.019,0.002974256054070387,-0.002974256054070387
42.019999999999996,0.004399023173727518,-0.004399023173727518
42.021,0.005826698530252916,-0.005826698530252916
42.022,0.007161028437969385,-0.007161028437969385
42.022999999999996,0.008125084984379102,-0.008125084984379102
42.024,0.008351502867862846,-0.008351502867862846
42.025,0.007523057911228011,-0.007523057911228011
42.025999999999996,0.0055113159096841155,-0.0055113159096841155
42.027,0.0024611609789561826,-0.0024611609789561826
42.028,0.0012122023128385577,0.0012122023128385577
42.028999999999996,0.004916391706196593,0.004916391706196593
42.03,0.00803587466790684,0.00803587466790684
42.031,0.010095933285398652,0.010095933285398652
42.032,0.010881817180532747,0.010881817180532747
42.033,0.010473807678293416,0.010473807678293416
42.034,0.009188246378277524,0.009188246378277524
42.035,0.007447427692500564,0.007447427692500564
42.036,0.005625980180968158,0.005625980180968158
42.037,0.00392913562944219,0.00392913562944219
42.038,0.002346230718585948,0.002346230718585948
42.039,0.0006950536014421542,0.0006950536014421542
42.04,0.0012609799248446355,-0.0012609799248446355
42.041,0.003668337560191134,-0.003668337560191134
42.042,0.00646843077006082,-0.00646843077006082
42.043,0.009359821367155694,-0.009359821367155694
42.044,0.011858102536835648,-0.011858102536835648
42.045,0.013438329322887478,-0.013438329322887478
42.046,0.013713162311774194,-0.013713162311774194
42.047,0.012583621561053216,-0.012583621561053216
42.048,0.010304943629517765,-0.010304943629517765
42.049,0.007436445843532755,-0.007436445843532755
42.05,0.004683172126498337,-0.004683172126498337
42.051,0.002675441579798608,-0.002675441579798608
42.052,0.0017569729742232768,-0.0017569729742232768
42.053,0.0018539893937461907,-0.0018539893937461907
42.054,0.002475028402330774,-0.002475028402330774
42.055,0.0028506840896216504,-0.0028506840896216504
42.056,0.0021769588708919763,-0.0021769588708919763
42.056999999999995,0.00010985146203712395,0.00010985146203712395
42.058,0.004112732619959021,0.004112732619959021
42.059,0.009380839827125186,0.009380839827125186
42.059999999999995,0.01497979495618532,0.01497979495618532
42.061,0.01971223100726948,0.01971223100726948
42.062,0.022428965054891482,0.022428965054891482
42.062999999999995,0.022342136326450237,0.022342136326450237
42.064,0.01924926492825439,0.01924926492825439
42.065,0.013602401806231736,0.013602401806231736
42.065999999999995,0.006401674767663637,0.006401674767663637
42.067,0.0010562476989040418,-0.0010562476989040418
42.068,0.00750256497434421,-0.00750256497434421
42.068999999999996,0.012001746630777908,-0.012001746630777908
42.07,0.014153928975015188,-0.014153928975015188
42.071,0.014142715411785182,-0.014142715411785182
42.071999999999996,0.012623294991204318,-0.012623294991204318
42.073,0.010491966377396559,-0.010491966377396559
42.074,0.008610152716028125,-0.008610152716028125
42.074999999999996,0.007564813660003306,-0.007564813660003306
42.076,0.007531242713609356,-0.007531242713609356
42.077,0.008269645110420479,-0.008269645110420479
42.077999999999996,0.009245108967785598,-0.009245108967785598
42.079,0.009824710560969079,-0.009824710560969079
42.08,0.009486103762164674,-0.009486103762164674
42.080999999999996,0.007973914249987338,-0.007973914249987338
42.082,0.005361558522033987,-0.005361558522033987
42.083,0.0020088044836623865,-0.0020088044836623865
42.083999999999996,0.0015615225762760756,0.0015615225762760756
42.085,0.0048212395582409705,0.0048212395582409705
42.086,0.007376039428289505,0.007376039428289505
42.086999999999996,0.009044443974182205,0.009044443974182205
42.088,0.009858377077939405,0.009858377077939405
42.089,0.009995022028864034,0.009995022028864034
42.089999999999996,0.009672016371061297,0.009672016371061297
42.091,0.00904794560378668,0.00904794560378668
42.092,0.008164926073010706,0.008164926073010706
42.092999999999996,0.006952369566986282,0.006952369566986282
42.094,0.005287424949507352,0.005287424949507352
42.095,0.003086437861674349,0.003086437861674349
42.096,0.00039028496448025626,0.00039028496448025626
42.097,0.002591626210144909,-0.002591626210144909
42.098,0.005499418405180887,-0.005499418405180887
42.099,0.007901649622514252,-0.007901649622514252
42.1,0.009411965347489268,-0.009411965347489268
42.101,0.009806021439136831,-0.009806021439136831
42.102,0.009099218833510316,-0.009099218833510316
42.103,0.007556993100624168,-0.007556993100624168
42.104,0.0056302466316375125,-0.0056302466316375125
42.105,0.00383231359090402,-0.00383231359090402
42.106,0.002592956528431645,-0.002592956528431645
42.107,0.0021331505983268515,-0.0021331505983268515
42.108,0.002399105162305678,-0.002399105162305678
42.109,0.0030766752065478835,-0.0030766752065478835
42.11,0.0036833556279216866,-0.0036833556279216866
42.111,0.00371181381049882,-0.00371181381049882
42.112,0.002783513246968648,-0.002783513246968648
42.113,0.0007680473684307645,-0.0007680473684307645
42.114,0.0021659092797899795,0.0021659092797899795
42.115,0.005581916384603162,0.005581916384603162
42.116,0.008879365570031491,0.008879365570031491
42.117,0.011439082248901613,0.011439082248901613
42.117999999999995,0.012769887542831393,0.012769887542831393
42.119,0.012616713446912987,0.012616713446912987
42.12,0.011003903669458694,0.011003903669458694
42.120999999999995,0.00820733066894439,0.00820733066894439
42.122,0.004669529848579413,0.004669529848579413
42.123,0.0008869280880185788,0.0008869280880185788
42.123999999999995,0.0026967621573227548,-0.0026967621573227548
42.125,0.005762676426622441,-0.005762676426622441
42.126,0.008140107602271655,-0.008140107602271655
42.126999999999995,0.009783750134369348,-0.009783750134369348
42.128,0.010722144783394637,-0.010722144783394637
42.129,0.01100191647662915,-0.01100191647662915
42.129999999999995,0.010650606674168332,-0.010650606674168332
42.131,0.009671215523357339,-0.009671215523357339
42.132,0.008067825310540726,-0.008067825310540726
42.132999999999996,0.005888920724825906,-0.005888920724825906
42.134,0.003267741146664988,-0.003267741146664988
42.135,0.0004396088743034499,-0.0004396088743034499
42.135999999999996,0.00227574506744331,0.00227574506744331
42.137,0.004526303902631757,0.004526303902631757
42.138,0.006001280636505427,0.006001280636505427
42.138999999999996,0.006504849947179221,0.006504849947179221
42.14,0.006007901985227522,0.006007901985227522
42.141,0.004661905909615662,0.004661905909615662
42.141999999999996,0.0027702558728459094,0.0027702558728459094
42.143,0.000724861211185935,0.000724861211185935
42.144,0.001074840765391045,-0.001074840765391045
42.144999999999996,0.0022996584685921126,-0.0022996584685921126
42.146,0.002747281171456313,-0.002747281171456313
42.147,0.002367619634085281,-0.002367619634085281
42.147999999999996,0.0012562717249928463,-0.0012562717249928463
42.149,0.00037646174434635433,0.00037646174434635433
42.15,0.0022495382219684464,0.0022495382219684464
42.150999999999996,0.00405714367775018,0.00405714367775018
42.152,0.005509509214921221,0.005509509214921221
42.153,0.006366113828908625,0.006366113828908625
42.153999999999996,0.0064619923137368305,0.0064619923137368305
42.155,0.0057281773511020356,0.0057281773511020356
42.156,0.004205060661597398,0.004205060661597398
42.157,0.002044459833169933,0.002044459833169933
42.158,0.0005051655080919979,-0.0005051655080919979
42.159,0.00313378500080727,-0.00313378500080727
42.16,0.005522826996688882,-0.005522826996688882
42.161,0.007406216532236444,-0.007406216532236444
42.162,0.008623231488651044,-0.008623231488651044
42.163,0.009145520007278978,-0.009145520007278978
42.164,0.009065937851063344,-0.009065937851063344
42.165,0.008548411443761797,-0.008548411443761797
42.166,0.007752456512270422,-0.007752456512270422
42.167,0.006758037265065368,-0.006758037265065368
42.168,0.0055208426659129626,-0.0055208426659129626
42.169,0.0038815893220556894,-0.0038815893220556894
42.17,0.0016361609306371628,-0.0016361609306371628
42.171,0.0013491072340680922,0.0013491072340680922
42.172,0.005013324834360535,0.005013324834360535
42.173,0.009015168315370343,0.009015168315370343
42.174,0.012727509032362373,0.012727509032362373
42.175,0.015333909213324276,0.015333909213324276
42.176,0.016016372590779558,0.016016372590779558
42.177,0.014190447357894964,0.014190447357894964
42.178,0.009720607253600173,0.009720607253600173
42.179,0.003045032565267279,0.003045032565267279
42.18,0.004841939075450605,-0.004841939075450605
42.181,0.012563216970776064,-0.012563216970776064
42.181999999999995,0.01865520396590884,-0.01865520396590884
42.183,0.021913473509284118,-0.021913473509284118
42.184,0.02169379874882155,-0.02169379874882155
42.184999999999995,0.018081581065498616,-0.018081581065498616
42.186,0.01187709309166034,-0.01187709309166034
42.187,0.004396069240432537,-0.004396069240432537
42.187999999999995,0.002860700563747525,0.002860700563747525
42.189,0.008576050309779823,0.008576050309779823
42.19,0.01191941829146755,0.01191941829146755
42.190999999999995,0.012700811841362406,0.012700811841362406
42.192,0.011338790868523201,0.011338790868523201
42.193,0.008662859143565712,0.008662859143565712
42.193999999999996,0.005620558169675009,0.005620558169675009
42.195,0.002985908239419326,0.002985908239419326
42.196,0.001160299914902856,0.001160299914902856
42.196999999999996,0.0001218176430826506,0.0001218176430826506
42.198,0.0004734882847067355,-0.0004734882847067355
42.199,0.0010866430131529787,-0.0010866430131529787
42.199999999999996,0.002068790121235977,-0.002068790121235977
42.201,0.003497794578118702,-0.003497794578118702
42.202,0.0051374198081123364,-0.0051374198081123364
42.202999999999996,0.006530938365656905,-0.006530938365656905
42.204,0.007190311883128451,-0.007190311883128451
42.205,0.006806068632414921,-0.006806068632414921
42.205999999999996,0.005394764847357199,-0.005394764847357199
42.207,0.003323567303800134,-0.003323567303800134
42.208,0.001197044331446702,-0.001197044331446702
42.208999999999996,0.00035667135874509334,0.00035667135874509334
42.21,0.000923558496309221,0.000923558496309221
42.211,0.00047605567221865365,0.00047605567221865365
42.211999999999996,0.0005889763466616213,-0.0005889763466616213
42.213,0.0015695294645351385,-0.0015695294645351385
42.214,0.0017014384398257713,-0.0017014384398257713
42.214999999999996,0.0004450011383002861,-0.0004450011383002861
42.216,0.002284643624718758,0.002284643624718758
42.217,0.0060284036826521075,0.0060284036826521075
42.217999999999996,0.009875136675344776,0.009875136675344776
42.219,0.012713646531800895,0.012713646531800895
42.22,0.01356851020859588,0.01356851020859588
42.221,0.011912712158136132,0.011912712158136132
42.222,0.007854898192082722,0.007854898192082722
42.223,0.0021383268840349666,0.0021383268840349666
42.224,0.004050742525267917,-0.004050742525267917
42.225,0.009405889426677258,-0.009405889426677258
42.226,0.012853534124727896,-0.012853534124727896
42.227,0.013827124608644839,-0.013827124608644839
42.228,0.012381699245605246,-0.012381699245605246
42.229,0.009122147903950288,-0.009122147903950288
42.23,0.0049796906075469625,-0.0049796906075469625
42.231,0.0009183603416053211,-0.0009183603416053211
42.232,0.002329121461998604,0.002329121461998604
42.233,0.004413796763840584,0.004413796763840584
42.234,0.005373546842727886,0.005373546842727886
42.235,0.00550438784986039,0.00550438784986039
42.236,0.005163487622225199,0.005163487622225199
42.237,0.004587701870180673,0.004587701870180673
42.238,0.003799575149652145,0.003799575149652145
42.239,0.0026341091257072974,0.0026341091257072974
42.24,0.0008693079425737634,0.0008693079425737634
42.241,0.001599174637009743,-0.001599174637009743
42.242,0.004617802228959199,-0.004617802228959199
42.242999999999995,0.007735635521970422,-0.007735635521970422
42.244,0.01029303486220959,-0.01029303486220959
42.245,0.011615290278085996,-0.011615290278085996
42.245999999999995,0.011244324868362209,-0.011244324868362209
42.247,0.009122149426282457,-0.009122149426282457
42.248,0.005652490514116267,-0.005652490514116267
42.248999999999995,0.001608217826969372,-0.001608217826969372
42.25,0.0020925888598687277,0.0020925888598687277
42.251,0.004669884675177015,0.004669884675177015
42.251999999999995,0.005727305005857126,0.005727305005857126
42.253,0.005372690848300208,0.005372690848300208
42.254,0.0041673048220093566,0.0041673048220093566
42.254999999999995,0.0029168610723787017,0.0029168610723787017
42.256,0.0023739867081387423,0.0023739867081387423
42.257,0.0029551172986297214,0.0029551172986297214
42.257999999999996,0.004572607858836717,0.004572607858836717
42.259,0.006644922330090289,0.006644922330090289
42.26,0.008286715947761952,0.008286715947761952
42.260999999999996,0.00861742894654485,0.00861742894654485
42.262,0.007083787273057495,0.007083787273057495
42.263,0.003683850079263385,0.003683850079263385
42.263999999999996,0.0009886919517237678,-0.0009886919517237678
42.265,0.005901473580841997,-0.005901473580841997
42.266,0.009894820797873117,-0.009894820797873117
42.266999999999996,0.012047091199922281,-0.012047091199922281
42.268,0.01197319699518149,-0.01197319699518149
42.269,0.009955630137948273,-0.009955630137948273
42.269999999999996,0.006861405709851579,-0.006861405709851579
42.271,0.0038684299159766583,-0.0038684299159766583
42.272,0.0020875225848910658,-0.0020875225848910658
42.272999999999996,0.002200873537662504,-0.002200873537662504
42.274,0.00423280938748056,-0.00423280938748056
42.275,0.007526306809483548,-0.007526306809483548
42.275999999999996,0.010932977543279371,-0.010932977543279371
42.277,0.01315691889845776,-0.01315691889845776
42.278,0.01314557614964571,-0.01314557614964571
42.278999999999996,0.010408210363708937,-0.010408210363708937
42.28,0.005167651208264817,-0.005167651208264817
42.281,0.001695527503761066,0.001695527503761066
42.282,0.008883405019410194,0.008883405019410194
42.283,0.015028836165173252,0.015028836165173252
42.284,0.01904679715284217,0.01904679715284217
42.285,0.020389912461328128,0.020389912461328128
42.286,0.019143738729610126,0.019143738729610126
42.287,0.015948350403180704,0.015948350403180704
42.288,0.0117832181041027,0.0117832181041027
42.289,0.007687101690148789,0.007687101690148789
42.29,0.004494892406120021,0.004494892406120021
42.291,0.002658794923692282,0.002658794923692282
42.292,0.002189405345832459,0.002189405345832459
42.293,0.0027149626738765696,0.0027149626738765696
42.294,0.003626164993063674,0.003626164993063674
42.295,0.004257433523916604,0.004257433523916604
42.296,0.00405549649727528,0.00405549649727528
42.297,0.002699192435679432,0.002699192435679432
42.298,0.00015361592505016381,0.00015361592505016381
42.299,0.003340044796295706,-0.003340044796295706
42.3,0.007325318539206902,-0.007325318539206902
42.301,0.01122323113379825,-0.01122323113379825
42.302,0.014438871666546617,-0.014438871666546617
42.303,0.01646628938143993,-0.01646628938143993
42.304,0.016978446988276902,-0.016978446988276902
42.305,0.01588974529347249,-0.01588974529347249
42.306,0.013379333993421429,-0.013379333993421429
42.306999999999995,0.009866468400366863,-0.009866468400366863
42.308,0.005936425668887904,-0.005936425668887904
42.309,0.0022267357069321566,-0.0022267357069321566
42.309999999999995,0.0007041266370765824,0.0007041266370765824
42.311,0.0024945481446302753,0.0024945481446302753
42.312,0.003052215345487677,0.003052215345487677
42.312999999999995,0.002558853885938358,0.002558853885938358
42.314,0.0014033621542749659,0.0014033621542749659
42.315,6.14340196015558e-05,6.14340196015558e-05
42.315999999999995,0.0010421964090493792,-0.0010421964090493792
42.317,0.0016457085517923398,-0.0016457085517923398
42.318,0.0017007558271580063,-0.0017007558271580063
42.318999999999996,0.0013467044079471329,-0.0013467044079471329
42.32,0.000820683225148269,-0.000820683225148269
42.321,0.00033936035524045893,-0.00033936035524045893
42.321999999999996,3.229916453182034e-07,3.229916453182034e-07
42.323,0.0002604848260212641,0.0002604848260212641
42.324,0.0006232842582923001,0.0006232842582923001
42.324999999999996,0.0012863630739927939,0.0012863630739927939
42.326,0.002333910047360316,0.002333910047360316
42.327,0.0036386896971475464,0.0036386896971475464
42.327999999999996,0.004843676505620884,0.004843676505620884
42.329,0.005445152562431734,0.005445152562431734
42.33,0.004960817906568993,0.004960817906568993
42.330999999999996,0.0031302826298837886,0.0031302826298837886
42.332,7.524397210950482e-05,7.524397210950482e-05
42.333,0.0036481952863229713,-0.0036481952863229713
42.333999999999996,0.007141759162778031,-0.007141759162778031
42.335,0.00939086595865448,-0.00939086595865448
42.336,0.009564603184870507,-0.009564603184870507
42.336999999999996,0.007297968207745143,-0.007297968207745143
42.338,0.0028612425198913365,-0.0028612425198913365
42.339,0.002849574865222061,0.002849574865222061
42.339999999999996,0.00851373984162673,0.00851373984162673
42.341,0.012729217201977465,0.012729217201977465
42.342,0.014400861544687919,0.014400861544687919
42.342999999999996,0.013056312882182963,0.013056312882182963
42.344,0.008990602020875009,0.008990602020875009
42.345,0.003191131677433348,0.003191131677433348
42.346,0.0029376778306218973,-0.0029376778306218973
42.347,0.007968000749452288,-0.007968000749452288
42.348,0.010841071351021612,-0.010841071351021612
42.349,0.011139726375454108,-0.011139726375454108
42.35,0.009160878517736785,-0.009160878517736785
42.351,0.005771873585477916,-0.005771873585477916
42.352,0.0021032654284755775,-0.0021032654284755775
42.353,0.0008188213330116755,0.0008188213330116755
42.354,0.0023812486810780944,0.0023812486810780944
42.355,0.0025367095506218062,0.0025367095506218062
42.356,0.0017580997733877275,0.0017580997733877275
42.357,0.000818221099972588,0.000818221099972588
42.358,0.0004756509082783304,0.0004756509082783304
42.359,0.0011764905601870806,0.0011764905601870806
42.36,0.002873548465490529,0.002873548465490529
42.361,0.005022951419642205,0.005022951419642205
42.362,0.006757823679469653,0.006757823679469653
42.363,0.007179961450576316,0.007179961450576316
42.364,0.005672630431646186,0.005672630431646186
42.365,0.002132451059319735,0.002132451059319735
42.366,0.0029536424968496394,-0.0029536424968496394
42.367,0.0086095581897534,-0.0086095581897534
42.368,0.01361627877261246,-0.01361627877261246
42.369,0.016826838972565473,-0.016826838972565473
42.37,0.01745650048764279,-0.01745650048764279
42.370999999999995,0.0152673397949194,-0.0152673397949194
42.372,0.010603110260035877,-0.010603110260035877
42.373,0.004277359087628986,-0.004277359087628986
42.373999999999995,0.002640398508503791,0.002640398508503791
42.375,0.009071824830254996,0.009071824830254996
42.376,0.014141429274051672,0.014141429274051672
42.376999999999995,0.0173047526136186,0.0173047526136186
42.378,0.01837745922035735,0.01837745922035735
42.379,0.017481592337897495,0.017481592337897495
42.379999999999995,0.014946077608636463,0.014946077608636463
42.381,0.011203017970051306,0.011203017970051306
42.382,0.0067105449093812115,0.0067105449093812115
42.382999999999996,0.0019134564286056842,0.0019134564286056842
42.384,0.0027665704849719032,-0.0027665704849719032
42.385,0.006931105428359984,-0.006931105428359984
42.385999999999996,0.01021563116216507,-0.01021563116216507
42.387,0.012321165747045905,-0.012321165747045905
42.388,0.013062718634187053,-0.013062718634187053
42.388999999999996,0.012418029239597719,-0.012418029239597719
42.39,0.010555202644910316,-0.010555202644910316
42.391,0.007822605735308298,-0.007822605735308298
42.391999999999996,0.004696606793365386,-0.004696606793365386
42.393,0.0016973138756942578,-0.0016973138756942578
42.394,0.0007064888071739665,0.0007064888071739665
42.394999999999996,0.002178702791591573,0.002178702791591573
42.396,0.0025644206165847186,0.0025644206165847186
42.397,0.001897840822546276,0.001897840822546276
42.397999999999996,0.00037452670427421677,0.00037452670427421677
42.399,0.0016980943326009783,-0.0016980943326009783
42.4,0.003955835337612722,-0.003955835337612722
42.400999999999996,0.006026634696570374,-0.006026634696570374
42.402,0.007569314930587649,-0.007569314930587649
42.403,0.008305396879719158,-0.008305396879719158
42.403999999999996,0.00804966970608177,-0.00804966970608177
42.405,0.00674187577716251,-0.00674187577716251
42.406,0.004474498191392614,-0.004474498191392614
42.407,0.001504438185487805,-0.001504438185487805
42.408,0.0017659837692305743,0.0017659837692305743
42.409,0.0048478739406333845,0.0048478739406333845
42.41,0.007260985911144673,0.007260985911144673
42.411,0.008646099659034847,0.008646099659034847
42.412,0.008862932806392934,0.008862932806392934
42.413,0.008039083043926278,0.008039083043926278
42.414,0.006545418895507825,0.006545418895507825
42.415,0.004894565975709199,0.004894565975709199
42.416,0.003585410388499785,0.003585410388499785
42.417,0.002938686143263748,0.002938686143263748
42.418,0.0029778845721054755,0.0029778845721054755
42.419,0.0034008446763820386,0.0034008446763820386
42.42,0.00366147535862184,0.00366147535862184
42.421,0.0031454771962396866,0.0031454771962396866
42.422,0.001390248603661792,0.001390248603661792
42.423,0.0017206619649133123,-0.0017206619649133123
42.424,0.005856084638711687,-0.005856084638711687
42.425,0.010271188181036124,-0.010271188181036124
42.426,0.013978137390878435,-0.013978137390878435
42.427,0.016010255326970427,-0.016010255326970427
42.428,0.015703463116088234,-0.015703463116088234
42.429,0.01290875417552024,-0.01290875417552024
42.43,0.008066852212199077,-0.008066852212199077
42.431,0.0021164136711071383,-0.0021164136711071383
42.431999999999995,0.0037421574880671053,0.0037421574880671053
42.433,0.008360149171432518,0.008360149171432518
42.434,0.010939324711034419,0.010939324711034419
42.434999999999995,0.011227911550354686,0.011227911550354686
42.436,0.009557025108225302,0.009557025108225302
42.437,0.006709809888712277,0.006709809888712277
42.437999999999995,0.0036666696725113027,0.0036666696725113027
42.439,0.0013068544148984187,0.0013068544148984187
42.44,0.00015786977054370576,0.00015786977054370576
42.440999999999995,0.000266602602464783,0.000266602602464783
42.442,0.0012259371273935324,0.0012259371273935324
42.443,0.0023412813944516664,0.0023412813944516664
42.443999999999996,0.002878730883993575,0.002878730883993575
42.445,0.002313820840538075,0.002313820840538075
42.446,0.000503367635046256,0.000503367635046256
42.446999999999996,0.0022694902514120274,-0.0022694902514120274
42.448,0.005385111500040724,-0.005385111500040724
42.449,0.00807794416686343,-0.00807794416686343
42.449999999999996,0.00966461561707182,-0.00966461561707182
42.451,0.009738425174833188,-0.009738425174833188
42.452,0.008273809270777747,-0.008273809270777747
42.452999999999996,0.005615416432558191,-0.005615416432558191
42.454,0.0023630502716411534,-0.0023630502716411534
42.455,0.0008058893140979841,0.0008058893140979841
42.455999999999996,0.003319620437173289,0.003319620437173289
42.457,0.004847345858364766,0.004847345858364766
42.458,0.005352460648130013,0.005352460648130013
42.458999999999996,0.0050569289241425945,0.0050569289241425945
42.46,0.004336957909416946,0.004336957909416946
42.461,0.003588018593491297,0.003588018593491297
42.461999999999996,0.0031019061514794216,0.0031019061514794216
42.463,0.0029900939984299113,0.0029900939984299113
42.464,0.00317025913141881,0.00317025913141881
42.464999999999996,0.00341282053392483,0.00341282053392483
42.466,0.0034278009122954006,0.0034278009122954006
42.467,0.002963479274578149,0.002963479274578149
42.467999999999996,0.0018884219148228643,0.0018884219148228643
42.469,0.00023608100490450065,0.00023608100490450065
42.47,0.0017970148894483646,-0.0017970148894483646
42.471,0.0038960788652182793,-0.0038960788652182793
42.472,0.005702583076167151,-0.005702583076167151
42.473,0.0068994357778756525,-0.0068994357778756525
42.474,0.0072866349112429745,-0.0072866349112429745
42.475,0.006830144967088251,-0.006830144967088251
42.476,0.005672786856807085,-0.005672786856807085
42.477,0.004103985108119279,-0.004103985108119279
42.478,0.002494084141995761,-0.002494084141995761
42.479,0.001207216197600325,-0.001207216197600325
42.48,0.0005127061767550895,-0.0005127061767550895
42.481,0.0005170080376755808,-0.0005170080376755808
42.482,0.0011349180593310901,-0.0011349180593310901
42.483,0.002110156101197372,-0.002110156101197372
42.484,0.003082811004713224,-0.003082811004713224
42.485,0.0036876821839452994,-0.0036876821839452994
42.486,0.003657228582670473,-0.003657228582670473
42.487,0.002899384357561523,-0.002899384357561523
42.488,0.0015259530339154215,-0.0015259530339154215
42.489,0.00017904726744151457,0.00017904726744151457
42.49,0.0018434606723538454,0.0018434606723538454
42.491,0.0031186706010780537,0.0031186706010780537
42.492,0.0037838390031894207,0.0037838390031894207
42.493,0.0038085191049631564,0.0038085191049631564
42.494,0.0033519522273416985,0.0033519522273416985
42.495,0.0026980325865394103,0.0026980325865394103
42.495999999999995,0.0021471155606066204,0.0021471155606066204
42.497,0.0019018470791197922,0.0019018470791197922
42.498,0.0019879422417675174,0.0019879422417675174
42.498999999999995,0.0022402362788466103,0.0022402362788466103
42.5,0.0023622701334207693,0.0023622701334207693
42.501,0.002041356634160371,0.002041356634160371
42.501999999999995,0.0010796886644514035,0.0010796886644514035
42.503,0.0005064128789163957,-0.0005064128789163957
42.504,0.002458713665905523,-0.002458713665905523
42.504999999999995,0.004337212696673931,-0.004337212696673931
42.506,0.005654070507045438,-0.005654070507045438
42.507,0.006039499653836037,-0.006039499653836037
42.507999999999996,0.005383071227650255,-0.005383071227650255
42.509,0.0038980863723324273,-0.0038980863723324273
42.51,0.0020794487970434527,-0.0020794487970434527
42.510999999999996,0.0005600316008648005,-0.0005600316008648005
42.512,9.436513015576103e-05,9.436513015576103e-05
42.513,0.00041235064391205136,-0.00041235064391205136
42.513999999999996,0.0019739214845541915,-0.0019739214845541915
42.515,0.00406831982396497,-0.00406831982396497
42.516,0.005877418122467882,-0.005877418122467882
42.516999999999996,0.006512160211239042,-0.006512160211239042
42.518,0.0052812310096484565,-0.0052812310096484565
42.519,0.0019249563586889544,-0.0019249563586889544
42.519999999999996,0.003256536461486896,0.003256536461486896
42.521,0.009423022787010776,0.009423022787010776
42.522,0.015362234672731854,0.015362234672731854
42.522999999999996,0.019764909373183658,0.019764909373183658
42.524,0.02153581248118136,0.02153581248118136
42.525,0.020060534892187457,0.020060534892187457
42.525999999999996,0.015361006639057451,0.015361006639057451
42.527,0.008103307831964097,0.008103307831964097
42.528,0.0005401015624453002,-0.0005401015624453002
42.528999999999996,0.009136238754319381,-0.009136238754319381
42.53,0.01628494902319805,-0.01628494902319805
42.531,0.020892988045245153,-0.020892988045245153
42.532,0.0223722456910546,-0.0223722456910546
42.533,0.020727170405639785,-0.020727170405639785
42.534,0.01652260143425538,-0.01652260143425538
42.535,0.010747223152227908,-0.010747223152227908
42.536,0.004605246915463988,-0.004605246915463988
42.537,0.000721949373251539,0.000721949373251539
42.538,0.0043009863322636946,0.0043009863322636946
42.539,0.005619611115010258,0.005619611115010258
42.54,0.004677698295545185,0.004677698295545185
42.541,0.0019783644381810806,0.0019783644381810806
42.542,0.0015829296676027676,-0.0015829296676027676
42.543,0.004915181053429125,-0.004915181053429125
42.544,0.00697971736498731,-0.00697971736498731
42.545,0.007038974150988121,-0.007038974150988121
42.546,0.004849048062257921,-0.004849048062257921
42.547,0.0007447013608556678,-0.0007447013608556678
42.548,0.004414218434549022,0.004414218434549022
42.549,0.009433789589600635,0.009433789589600635
42.55,0.013076389187498939,0.013076389187498939
42.551,0.014381027977112569,0.014381027977112569
42.552,0.01292894487452761,0.01292894487452761
42.553,0.008977455667623481,0.008977455667623481
42.554,0.0034162768986602753,0.0034162768986602753
42.555,0.0024517057207810843,-0.0024517057207810843
42.556,0.007252121230537847,-0.007252121230537847
42.556999999999995,0.00991118328886721,-0.00991118328886721
42.558,0.009952330613521122,-0.009952330613521122
42.559,0.007629087552457795,-0.007629087552457795
42.559999999999995,0.003850912497458597,-0.003850912497458597
42.561,8.102420703482041e-05,8.102420703482041e-05
42.562,0.0028540086847562,0.0028540086847562
42.562999999999995,0.003529475101283163,0.003529475101283163
42.564,0.0018202985574824943,0.0018202985574824943
42.565,0.0018230639820643192,-0.0018230639820643192
42.565999999999995,0.006343575525983736,-0.006343575525983736
42.567,0.010386720406082687,-0.010386720406082687
42.568,0.012695470576105912,-0.012695470576105912
42.568999999999996,0.01247399135950182,-0.01247399135950182
42.57,0.009613871702475409,-0.009613871702475409
42.571,0.004719543092932267,-0.004719543092932267
42.571999999999996,0.0010694299584125917,0.0010694299584125917
42.573,0.006401581625281265,0.006401581625281265
42.574,0.010084224995064846,0.010084224995064846
42.574999999999996,0.011394127137174652,0.011394127137174652
42.576,0.010243845857209003,0.010243845857209003
42.577,0.007166185005154501,0.007166185005154501
42.577999999999996,0.0031339411168508037,0.0031339411168508037
42.579,0.0007224559899967182,-0.0007224559899967182
42.58,0.0034137076380874693,-0.0034137076380874693
42.580999999999996,0.0043253103204719525,-0.0043253103204719525
42.582,0.0033320174299424975,-0.0033320174299424975
42.583,0.0007786060395925535,-0.0007786060395925535
42.583999999999996,0.002649355924850121,0.002649355924850121
42.585,0.006115727023176239,0.006115727023176239
42.586,0.008829200545044215,0.008829200545044215
42.586999999999996,0.01019856687128588,0.01019856687128588
42.588,0.009923313920535462,0.009923313920535462
42.589,0.008017077750788335,0.008017077750788335
42.589999999999996,0.004776997476357793,0.004776997476357793
42.591,0.0007175909283511957,0.0007175909283511957
42.592,0.0035152090268947564,-0.0035152090268947564
42.592999999999996,0.007240757506786104,-0.007240757506786104
42.594,0.009846433867818362,-0.009846433867818362
42.595,0.010890430162765554,-0.010890430162765554
42.596,0.010192085024524643,-0.010192085024524643
42.597,0.007889663509069406,-0.007889663509069406
42.598,0.00444274285564444,-0.00444274285564444
42.599,0.0005631252930260388,-0.0005631252930260388
42.6,0.0029248079912644175,0.0029248079912644175
42.601,0.005270422195510969,0.005270422195510969
42.602,0.005985151970044482,0.005985151970044482
42.603,0.004978516761774144,0.004978516761774144
42.604,0.002595209733040569,0.002595209733040569
42.605,0.00046811601085486955,-0.00046811601085486955
42.606,0.003351510207592353,-0.003351510207592353
42.607,0.005275421775920724,-0.005275421775920724
42.608,0.00576693758980572,-0.00576693758980572
42.609,0.004796700519311239,-0.004796700519311239
42.61,0.0027797812379809967,-0.0027797812379809967
42.611,0.00043650497173067216,-0.00043650497173067216
42.612,0.001444233495420995,0.001444233495420995
42.613,0.002262386107748404,0.002262386107748404
42.614,0.001798843817236699,0.001798843817236699
42.615,0.0002763264516039232,0.0002763264516039232
42.616,0.0017329759385653035,-0.0017329759385653035
42.617,0.0035220672355000264,-0.0035220672355000264
42.618,0.00451141294760161,-0.00451141294760161
42.619,0.004465416841297449,-0.004465416841297449
42.62,0.00358358571776559,-0.00358358571776559
42.620999999999995,0.002429464592423569,-0.002429464592423569
42.622,0.0017175559978600992,-0.0017175559978600992
42.623,0.002030265432684651,-0.002030265432684651
42.623999999999995,0.003564881191697745,-0.003564881191697745
42.625,0.006004065163116732,-0.006004065163116732
42.626,0.008563587290203952,-0.008563587290203952
42.626999999999995,0.01021112987029364,-0.01021112987029364
42.628,0.009990378447342504,-0.009990378447342504
42.629,0.00734609258110851,-0.00734609258110851
42.629999999999995,0.0023422009582097234,-0.0023422009582097234
42.631,0.004301984860053294,0.004301984860053294
42.632,0.011373529458826958,0.011373529458826958
42.632999999999996,0.017477095770621082,0.017477095770621082
42.634,0.021398806230055606,0.021398806230055606
42.635,0.022410323056591804,0.022410323056591804
42.635999999999996,0.020422871273999808,0.020422871273999808
42.637,0.01595267678760418,0.01595267678760418
42.638,0.009922283730370402,0.009922283730370402
42.638999999999996,0.0033744158237801474,0.0033744158237801474
42.64,0.0028014085659020475,-0.0028014085659020475
42.641,0.008041785823044656,-0.008041785823044656
42.641999999999996,0.012137027471121855,-0.012137027471121855
42.643,0.015125440664949367,-0.015125440664949367
42.644,0.017115813038455614,-0.017115813038455614
42.644999999999996,0.018123672201971263,-0.018123672201971263
42.646,0.017996911344948352,-0.017996911344948352
42.647,0.016466596078664124,-0.016466596078664124
42.647999999999996,0.013304599522340477,-0.013304599522340477
42.649,0.008522038327106539,-0.008522038327106539
42.65,0.0025199261804548425,-0.0025199261804548425
42.650999999999996,0.003884572852541648,0.003884572852541648
42.652,0.009589860156311988,0.009589860156311988
42.653,0.01347423927934701,0.01347423927934701
42.653999999999996,0.014714317075849354,0.014714317075849354
42.655,0.013051531264915843,0.013051531264915843
42.656,0.008910556979781482,0.008910556979781482
42.657,0.003318180354181733,0.003318180354181733
42.658,0.0023634863681873132,-0.0023634863681873132
42.659,0.006812275614668989,-0.006812275614668989
42.66,0.009113542921215901,-0.009113542921215901
42.661,0.009003388478327545,-0.009003388478327545
42.662,0.006909875993839986,-0.006909875993839986
42.663,0.0037803492949343323,-0.0037803492949343323
42.664,0.0007532166164578501,-0.0007532166164578501
42.665,0.001216580126544526,0.001216580126544526
42.666,0.0016551247062356383,0.0016551247062356383
42.667,0.0006942620022486177,0.0006942620022486177
42.668,0.0010129432019770773,-0.0010129432019770773
42.669,0.0025515636651427458,-0.0025515636651427458
42.67,0.003086337367827149,-0.003086337367827149
42.671,0.0021668925860666324,-0.0021668925860666324
42.672,0.0001069707138347467,0.0001069707138347467
42.673,0.0031138441913929303,0.0031138441913929303
42.674,0.005919985483598049,0.005919985483598049
42.675,0.007595052418631567,0.007595052418631567
42.676,0.0075255559102291895,0.0075255559102291895
42.677,0.005620552667641764,0.005620552667641764
42.678,0.002343032366206578,0.002343032366206578
42.679,0.001439194699426467,-0.001439194699426467
42.68,0.004728732346617625,-0.004728732346617625
42.681,0.006705427512514288,-0.006705427512514288
42.681999999999995,0.006963508253516592,-0.006963508253516592
42.683,0.005605445054049278,-0.005605445054049278
42.684,0.0031702802281922734,-0.0031702802281922734
42.684999999999995,0.0004305747548659157,-0.0004305747548659157
42.686,0.00186597055190773,0.00186597055190773
42.687,0.0032204935851156973,0.0032204935851156973
42.687999999999995,0.0035007373850548685,0.0035007373850548685
42.689,0.0029224765852283703,0.0029224765852283703
42.69,0.0019141431878621324,0.0019141431878621324
42.690999999999995,0.0009239563423061753,0.0009239563423061753
42.692,0.0002451377572953352,0.0002451377572953352
42.693,7.706520653699968e-05,-7.706520653699968e-05
42.693999999999996,0.0002272328394022761,-0.0002272328394022761
42.695,0.000504696630441063,-0.000504696630441063
42.696,0.001162140160852852,-0.001162140160852852
42.696999999999996,0.002264744371047776,-0.002264744371047776
42.698,0.0036275153956305817,-0.0036275153956305817
42.699,0.004857770450958435,-0.004857770450958435
42.699999999999996,0.005489367316681484,-0.005489367316681484
42.701,0.005160087940704155,-0.005160087940704155
42.702,0.003766367774896002,-0.003766367774896002
42.702999999999996,0.001536347011876308,-0.001536347011876308
42.704,0.0010096244779002233,0.0010096244779002233
42.705,0.0032025398528332653,0.0032025398528332653
42.705999999999996,0.0044272408941902295,0.0044272408941902295
42.707,0.004317634623172068,0.004317634623172068
42.708,0.002879854721592274,0.002879854721592274
42.708999999999996,0.0005019091277839224,0.0005019091277839224
42.71,0.002154696428081635,-0.002154696428081635
42.711,0.004347850619048741,-0.004347850619048741
42.711999999999996,0.005472192530945794,-0.005472192530945794
42.713,0.005234125314751688,-0.005234125314751688
42.714,0.003732219858567543,-0.003732219858567543
42.714999999999996,0.0014211001569803536,-0.0014211001569803536
42.716,0.001027197774094595,0.001027197774094595
42.717,0.002920422861738884,0.002920422861738884
42.717999999999996,0.003742708575812147,0.003742708575812147
42.719,0.003294675666091057,0.003294675666091057
42.72,0.0017405017648108932,0.0017405017648108932
42.721,0.0004461420071592178,-0.0004461420071592178
42.722,0.002616976134360678,-0.002616976134360678
42.723,0.004124258442886199,-0.004124258442886199
42.724,0.0044883468358395285,-0.0044883468358395285
42.725,0.0035159789186623774,-0.0035159789186623774
42.726,0.0013437382129105684,-0.0013437382129105684
42.727,0.0015982715803797834,0.0015982715803797834
42.728,0.004688446018764246,0.004688446018764246
42.729,0.007254055059604786,0.007254055059604786
42.73,0.008717220042575182,0.008717220042575182
42.731,0.008715820958659748,0.008715820958659748
42.732,0.007176359215071092,0.007176359215071092
42.733,0.004326659554764686,0.004326659554764686
42.734,0.0006480735036741315,0.0006480735036741315
42.735,0.0032221564136096087,-0.0032221564136096087
42.736,0.006618755727425279,-0.006618755727425279
42.737,0.008981057114944277,-0.008981057114944277
42.738,0.009963346660177787,-0.009963346660177787
42.739,0.00949928399863844,-0.00949928399863844
42.74,0.007805471827383556,-0.007805471827383556
42.741,0.0053222228415312454,-0.0053222228415312454
42.742,0.002604349330925369,-0.002604349330925369
42.743,0.0001877777722361258,-0.0001877777722361258
42.744,0.0015348712657715833,0.0015348712657715833
42.745,0.0023976995386705943,0.0023976995386705943
42.745999999999995,0.0024820357061994805,0.0024820357061994805
42.747,0.0020690814434203854,0.0020690814434203854
42.748,0.0015389239742293987,0.0015389239742293987
42.748999999999995,0.0012457682983467889,0.0012457682983467889
42.75,0.001406292906619833,0.001406292906619833
42.751,0.002033963445303247,0.002033963445303247
42.751999999999995,0.002937933206452178,0.002937933206452178
42.753,0.0037851793926796874,0.0037851793926796874
42.754,0.004205157361430206,0.004205157361430206
42.754999999999995,0.0039037821636422354,0.0039037821636422354
42.756,0.0027519692545361894,0.0027519692545361894
42.757,0.000823584758131785,0.000823584758131785
42.757999999999996,0.0016250594082060472,-0.0016250594082060472
42.759,0.004223193051047965,-0.004223193051047965
42.76,0.006576202980549257,-0.006576202980549257
42.760999999999996,0.008349647534491474,-0.008349647534491474
42.762,0.009323545050285756,-0.009323545050285756
42.763,0.009407471848777018,-0.009407471848777018
42.763999999999996,0.00862257463154928,-0.00862257463154928
42.765,0.007067895032978694,-0.007067895032978694
42.766,0.004891106135508553,-0.004891106135508553
42.766999999999996,0.002277125773895004,-0.002277125773895004
42.768,0.0005447599230899485,0.0005447599230899485
42.769,0.003287843092630589,0.003287843092630589
42.769999999999996,0.0056090125493206255,0.0056090125493206255
42.771,0.007141478847396668,0.007141478847396668
42.772,0.007564646058209744,0.007564646058209744
42.772999999999996,0.006698750236737905,0.006698750236737905
42.774,0.004595492677852717,0.004595492677852717
42.775,0.0015882243202672709,0.0015882243202672709
42.775999999999996,0.0017290753183783385,-0.0017290753183783385
42.777,0.004605825654239422,-0.004605825654239422
42.778,0.006306694083828065,-0.006306694083828065
42.778999999999996,0.006309955613810922,-0.006309955613810922
42.78,0.004475356890669651,-0.004475356890669651
42.781,0.0011260284824667138,-0.0011260284824667138
42.782,0.002990833785212628,0.002990833785212628
42.783,0.0068659524081782445,0.0068659524081782445
42.784,0.00947655885667764,0.00947655885667764
42.785,0.010056363857485052,0.010056363857485052
42.786,0.008310802238531867,0.008310802238531867
42.787,0.004513389935063572,0.004513389935063572
