Czas,Sum
55.497,0.06055045686465147
55.498,0.04826928273588166
55.499,0.028953762934847197
55.5,0.007449613327014683
55.501,0.011299597145113598
55.501999999999995,0.023547341305494015
55.503,0.027615736832640084
55.504,0.024134831420708477
55.504999999999995,0.015633173030562365
55.506,0.005646688917908352
55.507,0.0023650171780805803
55.507999999999996,0.005975539266314146
55.509,0.004365255796278241
55.51,0.001614285179590612
55.510999999999996,0.009856023393163767
55.512,0.017730775678060102
55.513,0.02290086944998776
55.513999999999996,0.023975504158704045
55.515,0.02083593744314399
55.516,0.014567695815356366
55.516999999999996,0.007053809771671346
55.518,0.00037397066454402
55.519,0.0038035480595132224
55.519999999999996,0.004664491714976751
55.521,0.0024140947851124914
55.522,0.0018594400957504017
55.522999999999996,0.00656200853314481
55.524,0.01008755374583229
55.525,0.011282024627775082
55.525999999999996,0.009749358736838857
55.527,0.005924076099059114
55.528,0.0009046134026235093
55.528999999999996,0.003891896049963031
55.53,0.007146843333659442
55.531,0.008008829994131373
55.532,0.006313206365696878
55.533,0.0025985690474564192
55.534,0.002074159406197926
55.535,0.0064390898239769095
55.536,0.009382290833319684
55.537,0.010234487275257446
55.538,0.008918970651234363
55.539,0.00592006302495135
55.54,0.0020920764375267735
55.541,0.0016244256470292107
55.542,0.004487152528965278
55.543,0.006149475425327793
55.544,0.0067141587533843345
55.545,0.0066353956751468825
55.546,0.006510889826504574
55.547,0.006840550842467629
55.548,0.007836856588868858
55.549,0.009351423547920042
55.55,0.010939942984224056
55.551,0.012038047822438556
55.552,0.0121811776796077
55.553,0.011186089931062876
55.554,0.009226003102318215
55.555,0.006770625864293422
55.556,0.004412638727963382
55.557,0.0026453626585082077
55.558,0.0016763117763242755
55.559,0.0013500607337320859
55.56,0.0012145578391426805
55.561,0.0007113224654582989
55.562,0.0005786547471127552
55.562999999999995,0.002726670231163241
55.564,0.005370348203786545
55.565,0.007793521515559596
55.565999999999995,0.009155699975341667
55.567,0.00879743965500287
55.568,0.006514134854246074
55.568999999999996,0.0026942679180572506
55.57,0.0017402644236470652
55.571,0.00558744232558601
55.571999999999996,0.007738535618394301
55.573,0.007550965038985901
55.574,0.0050925235162303404
55.574999999999996,0.0011656361373259807
55.576,0.002909644588039392
55.577,0.005694864715921384
55.577999999999996,0.006092122041947388
55.579,0.003715839538616122
55.58,0.0009456634605538892
55.580999999999996,0.00663669748028859
55.582,0.011681514899286564
55.583,0.014467954631460722
55.583999999999996,0.013919425669442691
55.585,0.009811514397899557
55.586,0.0028397190489857353
55.586999999999996,0.005576205931293391
55.588,0.013684489685775172
55.589,0.019866203916907542
55.589999999999996,0.023033386572230124
55.591,0.02285046375517531
55.592,0.01973110167016966
55.592999999999996,0.014635057110863445
55.594,0.008747868605182382
55.595,0.0031522779170371227
55.596,0.0014116379486324834
55.597,0.004642698312916442
55.598,0.0066308389570020896
55.599,0.0077115666400889545
55.6,0.008292032824736234
55.601,0.00871246823319057
55.602,0.009178427330595734
55.603,0.009762644815177307
55.604,0.010446493348855947
55.605,0.01116144396051488
55.606,0.011802717103844547
55.607,0.012212909391860573
55.608,0.012159122576837385
55.609,0.011339397556793803
55.61,0.009445653123243506
55.611,0.006283178383424451
55.612,0.0019125228106521067
55.613,0.0032455687401203625
55.614,0.008403911526598527
55.615,0.012537386938337816
55.616,0.014634967984644072
55.617,0.01401172074749397
55.618,0.01058078192022129
55.619,0.004981761245341411
55.62,0.0015026604605926925
55.621,0.007244536815336323
55.622,0.010710655359035872
55.623,0.010915238381931206
55.624,0.007738720752550609
55.625,0.001998747759332157
55.626,0.004765492805574358
55.626999999999995,0.01074082093374948
55.628,0.014384097948413988
55.629,0.014888768547888719
55.629999999999995,0.012419046871492518
55.631,0.008029728591946653
55.632,0.00329317479750878
55.632999999999996,0.0002454076021334901
55.634,0.0016022223361696261
55.635,0.0006962295685638942
55.635999999999996,0.0016226672072191866
55.637,0.0038740941408969163
55.638,0.004479666966476314
55.638999999999996,0.0023495325181939306
55.64,0.0026768873959419127
55.641,0.009690252951718093
55.641999999999996,0.01692676856368771
55.643,0.022277728332312025
55.644,0.023933217542561263
55.644999999999996,0.020955231421613242
55.646,0.01359851198211547
55.647,0.0032798722762149403
55.647999999999996,0.00778980536509266
55.649,0.01719081765106345
55.65,0.02291374180704599
55.650999999999996,0.02382789105238372
55.652,0.019873535327013744
55.653,0.011948590478958854
55.653999999999996,0.001559598064919752
55.655,0.009625211979785749
55.656,0.020167619593175184
55.657,0.029081771135362533
55.658,0.035848855254377324
55.659,0.04026816465947473
55.66,0.04224665277855863
55.661,0.04164225882537168
55.662,0.03824178804339794
55.663,0.031887465163018575
55.664,0.02269484664887084
55.665,0.011257317889975966
55.666,0.0012719731344075973
55.667,0.013288871995858546
55.668,0.023034634456635214
55.669,0.029002678925784044
55.67,0.030329416393101275
55.671,0.027038589551644714
55.672,0.020051632298563538
55.673,0.010952219286637295
55.674,0.0015744922595815713
55.675,0.0064576603003087185
55.676,0.01209897784729421
55.677,0.015052141278936853
55.678,0.015701350803811284
55.679,0.014853389452172338
55.68,0.013390508717941521
55.681,0.011960701519279651
55.682,0.010806316978642492
55.683,0.009772606752390032
55.684,0.008467300979278905
55.685,0.006487733689692574
55.686,0.0036135381083778153
55.687,0.00011375718469782336
55.687999999999995,0.004448471221823287
55.689,0.009097345573164006
55.69,0.013891326555014991
55.690999999999995,0.01888034462251041
55.692,0.024291157371274092
55.693,0.03034926510601516
55.693999999999996,0.037031233239601544
55.695,0.04385632500651341
55.696,0.04982675390179438
55.696999999999996,0.05358036805132086
55.698,0.053742307524394226
55.699,0.04938060358917991
55.699999999999996,0.04041588221133954
55.701,0.027830453124706698
55.702,0.013573325417383885
55.702999999999996,0.0001511805047240838
55.704,0.00999896124514388
55.705,0.015177864243457061
55.705999999999996,0.014927368237096719
55.707,0.010201466044903625
55.708,0.0031329817221935727
55.708999999999996,0.003553166495249779
55.71,0.0073172297780135075
55.711,0.006545452356493393
55.711999999999996,0.0010328906269115258
55.713,0.00793903243896827
55.714,0.017957042214037672
55.714999999999996,0.02616032780898346
55.716,0.03005480522622331
55.717,0.028221154143028237
55.717999999999996,0.02071549757308417
55.719,0.009055663273839977
55.72,0.004191191313336275
55.721,0.01609024238115168
55.722,0.024089941524654643
55.723,0.026633397849186596
55.724,0.023473480134537088
55.725,0.0156286997564593
55.726,0.005021820968415874
55.727,0.006072516514410787
55.728,0.015604052756806472
55.729,0.022190601242928674
55.73,0.02532680860852477
55.731,0.02533288778774835
55.732,0.023093797107019382
55.733,0.0196915515349608
55.734,0.016049982827354148
55.735,0.01269198448479695
55.736,0.009664206726740404
55.737,0.006629453372731827
55.738,0.003079260224604712
55.739,0.0014095169988600851
55.74,0.006954752881074642
55.741,0.013248908171834729
55.742,0.019569959621474002
55.743,0.024918192343506753
55.744,0.028241802603073088
55.745,0.028693662781526654
55.746,0.025855450420119698
55.747,0.019873632229896805
55.748,0.011471997783055552
55.749,0.0018332615136260491
55.75,0.007627761973607991
55.751,0.015550808128510132
55.751999999999995,0.020911709036494062
55.753,0.0232319252518941
55.754,0.022663437741448175
55.754999999999995,0.019925044429816643
55.756,0.016103121031312166
55.757,0.012365996784780751
55.757999999999996,0.009666007759275197
55.759,0.008508853714526579
55.76,0.008852939609956928
55.760999999999996,0.010165451083853104
55.762,0.011616793282537896
55.763,0.012354166400409353
55.763999999999996,0.011771397907787709
55.765,0.009693755686133912
55.766,0.0064234805182720005
55.766999999999996,0.002635978834870966
55.768,0.0008361618195369766
55.769,0.003259415566623578
55.769999999999996,0.004213117325632008
55.771,0.003694766996054927
55.772,0.00208894342446035
55.772999999999996,1.8250886777193936e-05
55.774,0.0018668966977274462
55.775,0.003085536834601238
55.775999999999996,0.003445578885883659
55.777,0.003052139681970907
55.778,0.0022134383875210594
55.778999999999996,0.0012893741931755975
55.78,0.0005456758254931372
55.781,6.956525027055903e-05
55.782,0.00022527807016702652
55.783,0.0005144533692962692
55.784,0.000941567126049543
55.785,0.0015162718236164678
55.786,0.002078300050843855
55.787,0.0023450237401914324
55.788,0.002023464086302395
55.789,0.0009388604378277801
55.79,0.0008768563404465143
55.791,0.003177826929806249
55.792,0.005585402318197809
55.793,0.007726072643651891
55.794,0.009367534907533278
55.795,0.010491183833984875
55.796,0.011263215041879873
55.797,0.01190920526824164
55.798,0.012541767895121667
55.799,0.013018728896812352
55.8,0.012906659893356029
55.801,0.011589323644461112
55.802,0.008503622991157502
55.803,0.00342791824811159
55.804,0.0032875304275597874
55.805,0.010653930519792975
55.806,0.017200315183863564
55.807,0.021336043416985064
55.808,0.021823045442899036
55.809,0.018207981276614365
55.81,0.011059811016532752
55.811,0.0019089790479889111
55.812,0.0071226996808491806
55.812999999999995,0.013906974488576354
55.814,0.01693310965160171
55.815,0.015768457163943872
55.815999999999995,0.011194752389772559
55.817,0.004958918003208409
55.818,0.0007959972010399656
55.818999999999996,0.004242527653512325
55.82,0.004489043949156201
55.821,0.0018947507262307246
55.821999999999996,0.0020400360470966554
55.823,0.005188341435085047
55.824,0.005556868684799015
55.824999999999996,0.0020425438618957167
55.826,0.005074384663373522
55.827,0.014083001405236637
55.827999999999996,0.02228076777433636
55.829,0.026779060804309977
55.83,0.025429065031436632
55.830999999999996,0.017572897524525153
55.832,0.004371264194333127
55.833,0.011412516446301424
55.833999999999996,0.0261223291083837
55.835,0.03620660197657137
55.836,0.039204633307642935
55.836999999999996,0.03442542653691826
55.838,0.023118073702088935
55.839,0.00809045011631246
55.839999999999996,0.007098236367600213
55.841,0.019119641728727394
55.842,0.025737919036348728
55.842999999999996,0.026305058560459255
55.844,0.021768195831185402
55.845,0.01422299594171336
55.846,0.006183659009882311
55.847,0.00018562361982896056
55.848,0.0036412049812936777
55.849,0.004079031612576177
55.85,0.002374594342427195
55.851,5.9544714199672883e-05
55.852,0.0018203931101765502
55.853,0.001972316498074032
55.854,0.0002748144779471309
55.855,0.0028654472596745385
55.856,0.006661711606833415
55.857,0.010304006934924595
55.858,0.01325730902374599
55.859,0.015389868044695061
55.86,0.016897109845556466
55.861,0.01807140531035727
55.862,0.01902894072585597
55.863,0.019519909994239103
55.864,0.01891318967309543
55.865,0.01637619045556315
55.866,0.011192071830409892
55.867,0.0030996258392130102
55.868,0.007473080465291937
55.869,0.019376801838979146
55.87,0.03093790508086286
55.871,0.040332111643965385
55.872,0.046022728453474264
55.873,0.047129232757175205
55.874,0.043616169181991855
55.875,0.03625257909082921
55.876,0.026366692019457485
55.876999999999995,0.01548334515082792
55.878,0.004961802031238276
55.879,0.004259092332894475
55.879999999999995,0.011746859776625661
55.881,0.01749290947937399
55.882,0.021718135966952688
55.882999999999996,0.02465417446567952
55.884,0.026385245770689517
55.885,0.026803059261350102
55.885999999999996,0.02567924337496896
55.887,0.0228149566984399
55.888,0.018201681436616424
55.888999999999996,0.012128278461750035
55.89,0.005194186950580023
55.891,0.0017744076040937676
55.891999999999996,0.00787460400377279
55.893,0.012293562939091144
55.894,0.014444551667175912
55.894999999999996,0.014043813329471437
55.896,0.011125808119655045
55.897,0.006015318408634954
55.897999999999996,0.0007178208884130754
55.899,0.008303671744795047
55.9,0.015816725491464668
55.900999999999996,0.022236571700308988
55.902,0.026546675431143734
55.903,0.02788222567336521
55.903999999999996,0.025713278834709467
55.905,0.020020986197692315
55.906,0.011406092503236882
55.907,0.0010714703240825925
55.908,0.009351873466154214
55.909,0.01811924570287646
55.91,0.023760383061952932
55.911,0.025438363068791724
55.912,0.023170568169268553
55.913,0.017833463430657618
55.914,0.010933281058498884
55.915,0.004196904381941544
55.916,0.0009024662367737144
55.917,0.0035433654859137473
55.918,0.003754136947958046
55.919,0.0023464788926746737
55.92,0.0006026804737563742
55.921,0.00018543951531077837
55.922,0.0008222694409267609
55.923,0.0037040203215907416
55.924,0.007721237641886588
55.925,0.011541851367650716
55.926,0.01367385549599206
55.927,0.012971520053420947
55.928,0.009050937533597285
55.929,0.0024786596150158905
55.93,0.0053315911299328875
55.931,0.012486926188086318
55.932,0.017137537486980475
55.933,0.017995169058244935
55.934,0.01469275409743275
55.935,0.007881694182573762
55.936,0.0009542720733771308
55.937,0.009903454792522902
55.937999999999995,0.0171212858938769
55.939,0.021268716486137804
55.94,0.021773627534945054
55.940999999999995,0.018857691714614065
55.942,0.01334739622650801
55.943,0.006352384060392618
55.943999999999996,0.0010730787570321313
55.945,0.008177127700230317
55.946,0.014599454891976203
55.946999999999996,0.020296297161550035
55.948,0.02535170152236496
55.949,0.029760264029581436
55.949999999999996,0.033269427285499246
55.951,0.03534206807334258
55.952,0.0352541905328193
55.952999999999996,0.032295025169974505
55.954,0.0260037316073568
55.955,0.016367871313542434
55.955999999999996,0.003924428109698918
55.957,0.010263404079211684
55.958,0.024743768032982366
55.958999999999996,0.03788961398092081
55.96,0.048137148310542444
55.961,0.05420272065529835
55.961999999999996,0.055247637553772
55.963,0.05097936127145079
55.964,0.04169138905522114
55.964999999999996,0.02824867647679549
55.966,0.01202197221238831
55.967,0.005231615331691446
55.967999999999996,0.02154620132921085
55.969,0.034979857540420184
55.97,0.04388305762255876
55.971,0.047163238220587884
55.972,0.044490787283693586
55.973,0.036390431169590204
55.974,0.02417911177816874
55.975,0.009745151115650158
55.976,0.004794843592307087
55.977,0.017488192197524833
55.978,0.02689543139315889
55.979,0.0323115554702376
55.98,0.033806723921735386
55.981,0.03208355765464237
55.982,0.028199763236623217
55.983,0.023242132818311625
55.984,0.0180487884899171
55.985,0.013057119588972823
55.986,0.008311370607009693
55.987,0.003610495767191901
55.988,0.0012687018108608966
55.989,0.0063609187579552655
55.99,0.011394518696858364
55.991,0.01581193962183167
55.992,0.018923428722719755
55.993,0.02014068049477297
55.994,0.019206868741097276
55.995,0.016338236344313493
55.996,0.012220414340763841
55.997,0.007850637866509113
55.998,0.0042689334678419994
55.999,0.00225979875915789
56.0,0.0021180393367122717
56.001,0.0035541955309622364
56.001999999999995,0.0057723303361540655
56.003,0.007699725365700684
56.004,0.008301340903179466
56.004999999999995,0.00688641944965025
56.006,0.0033179096802855943
56.007,0.0019343271466387593
56.007999999999996,0.00790852142514208
56.009,0.013397448258085283
56.01,0.017253949567329212
56.010999999999996,0.018670603226718104
56.012,0.017361330719494597
56.013,0.013604967856107727
56.013999999999996,0.008151344100369834
56.015,0.0020265221669566263
56.016,0.0037044646335661997
56.016999999999996,0.008156178298986325
56.018,0.010775448908085189
56.019,0.011404949239269801
56.019999999999996,0.010259607065341205
56.021,0.007836547034269324
56.022,0.004787778351346957
56.022999999999996,0.0017836906136050696
56.024,0.0006115114213281409
56.025,0.0020390036028720667
56.025999999999996,0.0024105079993435937
56.027,0.001931798920017669
56.028,0.0010764084542850497
56.028999999999996,0.0005031785839517484
56.03,0.0009186702738493799
56.031,0.0028990053582547536
56.032,0.00670246257211779
56.033,0.012118024837251903
56.034,0.01839912896248785
56.035,0.024321130252083722
56.036,0.028374997024746332
56.037,0.029073631890258054
56.038,0.02531079773552221
56.039,0.01668759362929452
56.04,0.0037174802225114606
56.041,0.012157874082141458
56.042,0.028766617014530184
56.043,0.04358912919822596
56.044,0.05424504033036899
56.045,0.05897344493139771
56.046,0.05699207123417516
56.047,0.04864896129722481
56.048,0.03533154772596763
56.049,0.019158697251960417
56.05,0.0025343719133085808
56.051,0.012327571735194224
56.052,0.02379711332494172
56.053,0.031058095644138382
56.054,0.03413981039083319
56.055,0.03376766657761636
56.056,0.031092480502295277
56.057,0.027378951711488
56.058,0.023730482812365644
56.059,0.020904004232167494
56.06,0.01923490000390072
56.061,0.01866035353172367
56.062,0.018808962674516885
56.063,0.019119472634386302
56.064,0.018959881391207918
56.065,0.017733187936693824
56.065999999999995,0.014969311534772278
56.067,0.01040785066142664
56.068,0.004071610950248511
56.068999999999996,0.003680339187773079
56.07,0.01214185762156841
56.071,0.020315289249286096
56.071999999999996,0.027047174916262136
56.073,0.031235697402257834
56.074,0.032073981392344866
56.074999999999996,0.02927079715232734
56.076,0.023182661824486417
56.077,0.014804763370282364
56.077999999999996,0.00560155661726176
56.079,0.0027971243356774934
56.08,0.008965619206947597
56.080999999999996,0.012022310567784777
56.082,0.011844646683965575
56.083,0.009093324743892626
56.083999999999996,0.005030710839558584
56.085,0.0011769262135771343
56.086,0.0011050347006228516
56.086999999999996,0.0009813774635519564
56.088,0.0016263778733853153
56.089,0.006023416337734088
56.089999999999996,0.010934824457012647
56.091,0.01485356897821975
56.092,0.016444935195537188
56.092999999999996,0.014896787448309329
56.094,0.010124961576115164
56.095,0.0027879092925329734
56.096,0.00588035150941555
56.097,0.014361920413949394
56.098,0.021186964737656275
56.099,0.025221197115700894
56.1,0.025847886949655716
56.101,0.02302102099875825
56.102,0.017204057386256324
56.103,0.009234682537931615
56.104,0.00016360704534906404
56.105,0.008894389689608314
56.106,0.016879046011475423
56.107,0.022874908738251924
56.108,0.026186807583858704
56.109,0.026412491974198465
56.11,0.023512077959170534
56.111,0.01785793294655914
56.112,0.010237931605133725
56.113,0.0017865916726662575
56.114,0.00616579029141956
56.115,0.012310661382461376
56.116,0.015604319484481391
56.117,0.015479579525594516
56.118,0.011970172549512183
56.119,0.00571174367847125
56.12,0.0021840413706973026
56.121,0.010350796688513656
56.122,0.017427192426030323
56.123,0.022291023843289154
56.124,0.024216483862989444
56.125,0.02293173268172113
56.126,0.018586406980992592
56.126999999999995,0.011663525312241648
56.128,0.0028785360594028404
56.129,0.006901989381528971
56.129999999999995,0.016712676896608217
56.131,0.02552837185036013
56.132,0.0323204303324314
56.132999999999996,0.036157622973713666
56.134,0.0363574022171533
56.135,0.03266140443910434
56.135999999999996,0.02538059198348484
56.137,0.015444452521963503
56.138,0.004303741819671105
56.138999999999996,0.006323703690680005
56.14,0.014821009472156485
56.141,0.02006256615839043
56.141999999999996,0.02171073980986566
56.143,0.020315788486596126
56.144,0.01716594155033686
56.144999999999996,0.013909296518326068
56.146,0.012045274404295083
56.147,0.012434860181260344
56.147999999999996,0.014985885872187096
56.149,0.018625932929151132
56.15,0.02159157647624411
56.150999999999996,0.02196353856092111
56.152,0.01829448497271588
56.153,0.010137739487405317
56.153999999999996,0.001694054170990712
56.155,0.015235259362772022
56.156,0.02782437757237246
56.157,0.0367893302176513
56.158,0.04016495198665307
56.159,0.037232656263076674
56.16,0.02872273854368891
56.161,0.016619689539527145
56.162,0.0036291090235142346
56.163,0.0075356163991863265
56.164,0.014838653706735223
56.165,0.017385164515206445
56.166,0.015541769785965753
56.167,0.010700073312843582
56.168,0.004776151692123297
56.169,0.00038779570194415576
56.17,0.0035351770161358652
56.171,0.004275396614559728
56.172,0.0030702048556332942
56.173,0.0009591267645120095
56.174,0.0008646707969759382
56.175,0.0014798481959427006
56.176,0.0005288063318764729
56.177,0.0017035085513040856
56.178,0.00442753733599968
56.179,0.006637512562639541
56.18,0.007442698762499047
56.181,0.006332033669080955
56.182,0.003297205824938784
56.183,0.0012054527047061572
56.184,0.0064188266697029145
56.185,0.011503455019040182
56.186,0.01573322982420511
56.187,0.01861311103091234
56.188,0.019902299837483258
56.189,0.019564975350937448
56.19,0.017694304879164256
56.190999999999995,0.014456201211138983
56.192,0.010079199621734241
56.193,0.004886224977254243
56.193999999999996,0.0006629201955226128
56.195,0.005960706175262979
56.196,0.01030531368873828
56.196999999999996,0.013024149126125695
56.198,0.013640271864759907
56.199,0.012029370290180924
56.199999999999996,0.008508573744979034
56.201,0.0038147482481061513
56.202,0.0010360036497943273
56.202999999999996,0.004976173129792058
56.204,0.007139653973320681
56.205,0.007066662615064415
56.205999999999996,0.004801877392452727
56.207,0.000860547445240815
56.208,0.003921311945499488
56.208999999999996,0.008602000954782677
56.21,0.012347952348997781
56.211,0.014587119360969942
56.211999999999996,0.015069435156573987
56.213,0.013836889178065467
56.214,0.011135688491413803
56.214999999999996,0.007316907586610364
56.216,0.002765851336100083
56.217,0.0021219067322435603
56.217999999999996,0.006927799304698515
56.219,0.011191998895986287
56.22,0.014425639059303108
56.221,0.016175582183633883
56.222,0.016136465474523704
56.223,0.014275597606153158
56.224,0.010918332618312928
56.225,0.006744117063970055
56.226,0.0026680715032811916
56.227,0.0003775303246104997
56.228,0.0017070142373821506
56.229,0.0011094174963989108
56.23,0.0010399939484484315
56.231,0.00383711317696649
56.232,0.006077598932170751
56.233,0.006603153648155589
56.234,0.0046687625209819745
56.235,0.00021905525116335515
56.236,0.006018410946049132
56.237,0.012665193135974731
56.238,0.01802577374496267
56.239,0.020537928090962245
56.24,0.019216075441813207
56.241,0.013961200439424141
56.242,0.005645061831088644
56.243,0.004062208600233806
56.244,0.013081158871922922
56.245,0.019428807155070556
56.246,0.021709060271198895
56.247,0.019459779787881
56.248,0.013267102453974623
56.249,0.004619365795661384
56.25,0.004459252059111372
56.251,0.011899519438508137
56.251999999999995,0.016076842089047822
56.253,0.01617748754012183
56.254,0.012353082750179243
56.254999999999995,0.005630725146462514
56.256,0.002391235486814058
56.257,0.00997751826473298
56.257999999999996,0.015703800131935747
56.259,0.018799180877483515
56.26,0.019292532572523707
56.260999999999996,0.01792458900708994
56.262,0.015851716451530634
56.263,0.014226647860782912
56.263999999999996,0.013779886938707377
56.265,0.01453104527566822
56.266,0.01572795225957328
56.266999999999996,0.016048779846227726
56.268,0.01402402361821823
56.269,0.008562729598639586
56.269999999999996,0.0005766240700224945
56.271,0.012529140681480852
56.272,0.025388257769998358
56.272999999999996,0.036610024392505894
56.274,0.04366923573926822
56.275,0.04479059191801259
56.275999999999996,0.039535312717760514
56.277,0.02904598555817594
56.278,0.015839592192628836
56.278999999999996,0.003169444291821575
56.28,0.005886329026990127
56.281,0.009352247065735673
56.282,0.007013932747168612
56.283,0.0005826567715956623
56.284,0.006723119136405976
56.285,0.01109390136855836
56.286,0.009297230903576176
56.287,0.00024290475998267635
56.288,0.016790611251644133
56.289,0.03729211139583923
56.29,0.05705916787320507
56.291,0.07097470300122576
56.292,0.07488863298092145
56.293,0.06680263664107865
56.294,0.04749365536194166
56.295,0.02038494627028086
56.296,0.009306447738941046
56.297,0.03590316312058067
56.298,0.05469815895789165
56.299,0.0630745152912697
56.3,0.06100634160577879
56.301,0.05082492389791422
56.302,0.03635732927727158
56.303,0.021728076038364814
56.304,0.010201218003146028
56.305,0.0034054838942039313
56.306,0.0011440416793024977
56.307,0.0017924139487834204
56.308,0.003099761794423924
56.309,0.0030916252677797465
56.31,0.0007619607326123944
56.311,0.0036625059764887305
56.312,0.008939150079317292
56.313,0.013388589592803608
56.314,0.015595873807647848
56.315,0.014963826072841331
56.315999999999995,0.011917481081877842
56.317,0.007697693549318995
56.318,0.003838932282683141
56.318999999999996,0.001543402761859951
56.32,0.0011989582991441747
56.321,0.0022302029961042045
56.321999999999996,0.0033433841363048403
56.323,0.00307435476847752
56.324,0.0004311988940172918
56.324999999999996,0.004617324365422432
56.326,0.01100421209052705
56.327,0.01684793270041987
56.327999999999996,0.020072926758086612
56.329,0.0191550090208541
56.33,0.013726458034732304
56.330999999999996,0.00481650395939785
56.332,0.005375303169296908
56.333,0.014114989246947342
56.333999999999996,0.01897854443436153
56.335,0.018628582441530907
56.336,0.013265427483166356
56.336999999999996,0.004600610791130557
56.338,0.0046425569243488205
56.339,0.011542793294862104
56.339999999999996,0.013851247311875058
56.341,0.010648177476061076
56.342,0.002591453534266903
56.342999999999996,0.00830169398288114
56.344,0.01925005557493011
56.345,0.02748058124097792
56.346,0.030938106516108538
56.347,0.028734658932708296
56.348,0.0212415192876746
56.349,0.009849123046000816
56.35,0.0034810281344109135
56.351,0.01670397826868466
56.352,0.02807003543293117
56.353,0.036315731109015426
56.354,0.04067514442413075
56.355,0.04078816061526542
56.356,0.03660638673761736
56.357,0.028371374519260976
56.358,0.01667883960825898
56.359,0.0025763313258563643
56.36,0.012398357465771403
56.361,0.02632482948862075
56.362,0.03718828395499968
56.363,0.043304087584872294
56.364,0.04376179749265689
56.365,0.03873695825078283
56.366,0.029540727319798673
56.367,0.01835259618878181
56.368,0.007685792074836149
56.369,0.0002688578577264501
56.37,0.004223045375686344
56.371,0.004111714107786582
56.372,0.0010492919791511759
56.373,0.003066737616894901
56.374,0.006177563077721606
56.375,0.006709117776408889
56.376,0.004036005176776522
56.376999999999995,0.0013786422244121493
56.378,0.008197486692688646
56.379,0.014688207170004285
56.379999999999995,0.01929332122093385
56.381,0.02109480628848336
56.382,0.02002553205182966
56.382999999999996,0.01677730180948612
56.384,0.01246602059068949
56.385,0.00819733774944741
56.385999999999996,0.004701615568421443
56.387,0.0021679614691872988
56.388,0.00032053140193553795
56.388999999999996,0.0013188324653522706
56.39,0.003110409455893687
56.391,0.005066092488855854
56.391999999999996,0.006813365143580941
56.393,0.007772717654292138
56.394,0.007472894615286659
56.394999999999996,0.0058635243687041845
56.396,0.003476720676417291
56.397,0.0013432624611573849
56.397999999999996,0.0006655499738702439
56.399,0.0023518306180958276
56.4,0.006583720740199516
56.400999999999996,0.012593337778208674
56.402,0.018762238592600778
56.403,0.023042710435053446
56.403999999999996,0.02358258524518451
56.405,0.019351935067368715
56.406,0.010556045633958212
56.407,0.0013181338396025294
56.408,0.013855342378234659
56.409,0.024363448506145646
56.41,0.03061859466622852
56.411,0.03146626395713515
56.412,0.027088911213514907
56.413,0.01886433126654248
56.414,0.008877455083766379
56.415,0.0007373279336297709
56.416,0.008396209693666805
56.417,0.013412476620872927
56.418,0.015993392834852658
56.419,0.01692224006943464
56.42,0.01707388865081171
56.421,0.016967045099962514
56.422,0.016532940145638133
56.423,0.015188596621791697
56.424,0.012178338330984164
56.425,0.007037503403325415
56.426,2.0517091627116884e-05
56.427,0.007968054561401684
56.428,0.015158076521844472
56.429,0.01980244040363698
56.43,0.02057149509061882
56.431,0.017096553668648474
56.432,0.010180890077328043
56.433,0.0016228483033088389
56.434,0.006308021818248448
56.435,0.011573859656782669
56.436,0.013012588047347815
56.437,0.010699364983006646
56.438,0.005896004101378352
56.439,0.00060121457061155
56.44,0.0031458175113967778
56.440999999999995,0.003968806628882752
56.442,0.0016217671450176163
56.443,0.0029402656346091253
56.443999999999996,0.007909196052984546
56.445,0.011266525585697502
56.446,0.011495100186254886
56.446999999999996,0.008112708262583245
56.448,0.0018455601038212407
56.449,0.005612221675651197
56.449999999999996,0.012162206461777866
56.451,0.015987506732096514
56.452,0.01612315062476625
56.452999999999996,0.012720949014264162
56.454,0.0069321108210983525
56.455,0.0004675868264117902
56.455999999999996,0.0049933561539614105
56.457,0.008330549760967147
56.458,0.009264940477543967
56.458999999999996,0.008312908023046522
56.46,0.006455999771160985
56.461,0.004673704725417293
56.461999999999996,0.0035319831457407825
56.463,0.0029902991076513476
56.464,0.0024976314915390375
56.464999999999996,0.0013294774593633962
56.466,0.0009810077893753555
56.467,0.004305635412512033
56.467999999999996,0.007832355375871087
56.469,0.010284239960799184
56.47,0.01038321149222904
56.471,0.007392617449779845
56.472,0.0015292774445288817
56.473,0.005930011841141448
56.474,0.012920358830091003
56.475,0.017177232146376942
56.476,0.016960623805715985
56.477,0.011674231481898412
56.478,0.0021617095491014817
56.479,0.009438244999134244
56.48,0.02025238383736076
56.481,0.027484282068394265
56.482,0.02922527509551982
56.483,0.025009539920116848
56.484,0.015938252802968792
56.485,0.004335734205569987
56.486,0.006950086341257281
56.487,0.01537930386903994
56.488,0.019423258945002946
56.489,0.018926904091193002
56.49,0.015033091259369469
56.491,0.009714256870094855
56.492,0.005079619842848089
56.493,0.002689330131840868
56.494,0.003092859123094433
56.495,0.005725468113932919
56.496,0.009174424165958804
56.497,0.011707539807503215
56.498,0.011879104816329606
56.499,0.009014981369691217
56.5,0.003429721738215415
56.501,0.0036768791180289413
56.501999999999995,0.010592023917481298
56.503,0.01559933953667684
56.504,0.017462150919901054
56.504999999999995,0.01573951585565604
56.506,0.010857926940123584
56.507,0.003942673784410149
56.507999999999996,0.003516612340536265
56.509,0.010052866470406813
56.51,0.014548679485613383
56.510999999999996,0.01642641767845809
56.512,0.015677026143846112
56.513,0.012753810609053324
56.513999999999996,0.008389919855406599
56.515,0.0034052678374642186
56.516,0.001446882541190522
56.516999999999996,0.005571157502490461
56.518,0.00856370566341029
56.519,0.010209255624910596
56.519999999999996,0.0104646582090586
56.521,0.009442531113882564
56.522,0.00739511690222686
56.522999999999996,0.004688913389866667
56.524,0.0017599989501999717
56.525,0.0009518128373029794
56.525999999999996,0.003079459996404197
56.527,0.004395449513792298
56.528,0.004847139239073352
56.528999999999996,0.00454705513881949
56.53,0.003720290534925151
56.531,0.0026271422525243433
56.532,0.0014888331589789094
56.533,0.00044289135722851576
56.534,0.00045748639395552695
56.535,0.0012042424009990338
56.536,0.0017767534704851392
56.537,0.002095487231787042
56.538,0.0020129079683733403
56.539,0.0013521430081203298
56.54,1.6943241771637656e-05
56.541,0.0020925892940303944
56.542,0.0046827643193165175
56.543,0.0074029811772055795
56.544,0.009741024189244532
56.545,0.011175144130570856
56.546,0.011311602087248402
56.547,0.009998178562893641
56.548,0.00737615411451381
56.549,0.0038524682094339844
56.55,4.725843232349047e-07
56.551,0.003586645190255708
56.552,0.006426628048834846
56.553,0.008255028532436577
56.554,0.00904959092432596
56.555,0.008989640302747072
56.556,0.008363964013991419
56.557,0.0074623986132454235
56.558,0.006487134797200407
56.559,0.005509565841500868
56.56,0.004480948510636252
56.561,0.0032868473303099815
56.562,0.001822411769905073
56.563,6.148767394098282e-05
56.564,0.0019026204149919044
56.565,0.0038562059460482707
56.565999999999995,0.00550322503993021
56.567,0.006531558814202919
56.568,0.006691017603430189
56.568999999999996,0.005865369535512915
56.57,0.004122504720990453
56.571,0.001730344608125517
56.571999999999996,0.0008693147495616485
56.573,0.0031307548495613812
56.574,0.0045115061208138175
56.574999999999996,0.004599809709409529
56.576,0.0032350648847313318
56.577,0.0005874329994019618
56.577999999999996,0.00283540832369233
56.579,0.006273214460359261
56.58,0.008884873369538658
56.580999999999996,0.00997283810274508
56.582,0.009201239202825368
56.583,0.006737976839425031
56.583999999999996,0.0032622689150140693
56.585,0.00018705709406651645
56.586,0.00249837335774169
56.586999999999996,0.0028357907265651513
56.588,0.0009440106790209476
56.589,0.00269662067806118
56.589999999999996,0.006935308760098085
56.591,0.010242094502695765
56.592,0.011156282606264415
56.592999999999996,0.008762915839091466
56.594,0.0030452015207861173
56.595,0.005013144499093246
56.596,0.013630678901278379
56.597,0.020695494270582242
56.598,0.024366585297835704
56.599,0.023626235409822297
56.6,0.018605272004533137
56.601,0.010567699948359493
56.602,0.0015472133939558811
56.603,0.006258344621739232
56.604,0.01114554824964703
56.605,0.012405143386501755
56.606,0.010498634970075195
56.607,0.006851467534560712
56.608,0.003329627201211269
56.609,0.0015737881462476286
56.61,0.0024154665755455568
56.611,0.0055745242662436755
56.612,0.009743922645997669
56.613,0.013036794110833727
56.614,0.013647099191891617
56.615,0.010501036860729902
56.616,0.0036779146714143894
56.617,0.005543710317790932
56.618,0.015032481222995985
56.619,0.022429156357320113
56.62,0.025843775448248216
56.621,0.02439817255064725
56.622,0.018443956068989756
56.623,0.00939977128452364
56.624,0.0007187709442255725
56.625,0.009903523000152
56.626,0.01668439929290642
56.626999999999995,0.020417782257874748
56.628,0.021262508781708708
56.629,0.019891945296728296
56.629999999999995,0.017085377353974328
56.631,0.013377716358320357
56.632,0.008911109236254018
56.632999999999996,0.0035403640774448126
56.634,0.002867359451654543
56.635,0.010085212439850253
56.635999999999996,0.017305874647205868
56.637,0.023177224782172563
56.638,0.026123575321502505
56.638999999999996,0.02486222516345653
56.64,0.01893356526748934
56.641,0.009036699263879807
56.641999999999996,0.002984631602192325
56.643,0.01454482080925065
56.644,0.023007634153045586
56.644999999999996,0.02645411417615423
56.646,0.02427392964432974
56.647,0.01737393045385291
56.647999999999996,0.007919650025592155
56.649,0.0013185698970210288
56.65,0.007807703964920016
56.650999999999996,0.010008679758946001
56.652,0.007800716351283325
56.653,0.002438755085173493
56.653999999999996,0.003931847086723848
56.655,0.009029369531553392
56.656,0.01119625243076704
56.657,0.009907831694127667
56.658,0.00586515626952296
56.659,0.0006577143861588606
56.66,0.003866358143041928
56.661,0.006285676206892304
56.662,0.006097556527586264
56.663,0.003845419701686183
56.664,0.0008487781269213494
56.665,0.001349929159707017
56.666,0.0016054008523490163
56.667,0.00037985129861887193
56.668,0.003942349616850079
56.669,0.007720231340946812
56.67,0.010187154287066146
56.671,0.010251182464558247
56.672,0.007688896881392038
56.673,0.0032483884434244023
56.674,0.0016191984875290506
56.675,0.005298879793929914
56.676,0.006618181111848969
56.677,0.005290904200685076
56.678,0.002029192885547515
56.679,0.0017206214938804204
56.68,0.004321105156292504
56.681,0.004562764819313244
56.682,0.0021264097090341353
56.683,0.0022860255265709437
56.684,0.007203229474764858
56.685,0.01092629866778518
56.686,0.012158615083870141
56.687,0.010487910681110444
56.688,0.006539201311688964
56.689,0.0017402872489956612
56.69,0.00221298923400237
56.690999999999995,0.003991201240071073
56.692,0.0031266291550322966
56.693,0.0001819969547340478
56.693999999999996,0.0034722699462141986
56.695,0.0061894483058696406
56.696,0.006686282827704657
56.696999999999996,0.00454812797873506
56.698,0.00040530230571306155
56.699,0.004290785402950271
56.699999999999996,0.007812140432712514
56.701,0.008817021380678854
56.702,0.006880990529225163
56.702999999999996,0.002691925681652552
56.704,0.002171866026999026
56.705,0.0058058379609083385
56.705999999999996,0.006681527063883091
56.707,0.004227969515686894
56.708,0.0009256559581091267
56.708999999999996,0.007141183750058858
56.71,0.0123319808495136
56.711,0.014691421179015259
56.711999999999996,0.013324620142262041
56.713,0.00855322540311869
56.714,0.001783092829430136
56.714999999999996,0.005014000184470063
56.716,0.010010792893970206
56.717,0.012162668649509404
56.717999999999996,0.011537088952596454
56.719,0.0092146681146845
56.72,0.006804180252034879
56.721,0.005760311908741152
56.722,0.00676873317121056
56.723,0.00943890580305992
56.724,0.012429193528258754
56.725,0.013964146796857322
56.726,0.012552054585350034
56.727,0.007629624006756826
56.728,0.00011823824073195152
56.729,0.008898428662816121
56.73,0.016373715199535257
56.731,0.020454401399625392
56.732,0.02003083155450265
56.733,0.015375301457596838
56.734,0.008058994936388722
56.735,0.0004063451446701221
56.736,0.005319298214209476
56.737,0.007702711709327084
56.738,0.006647048783858692
56.739,0.003352180127109131
56.74,0.00019264132488195726
56.741,0.002013798152492593
56.742,0.0009536662237813081
56.743,0.002839129095543871
56.744,0.007923673130503718
56.745,0.012092659583406965
56.746,0.013224494398508863
56.747,0.01014730016919379
56.748,0.00318610755108013
56.749,0.005827723482006739
56.75,0.014112892513622275
56.751,0.018879515241086765
56.751999999999995,0.018326284700518003
56.753,0.012332417732450595
56.754,0.0025824071330306153
56.754999999999995,0.007941506660492259
56.756,0.01593877065267977
56.757,0.018908398598116292
56.757999999999996,0.016014532559036697
56.759,0.008390115723651614
56.76,0.001237976301701317
56.760999999999996,0.009481561947435003
56.762,0.01346276518695338
56.763,0.011818089123159792
56.763999999999996,0.0051830948938857285
56.765,0.004015289901170319
56.766,0.012391094147193853
56.766999999999996,0.016770516055077667
56.768,0.015297723281980579
56.769,0.008093491966805602
56.769999999999996,0.0027595284857957463
56.771,0.013897579833949451
56.772,0.021785825178583535
56.772999999999996,0.023875773224569144
56.774,0.019417282147673968
56.775,0.00965772947231877
56.775999999999996,0.0026231137107172006
56.777,0.014064490260738312
56.778,0.021821951930163674
56.778999999999996,0.02443048714291139
56.78,0.022147790198242687
56.781,0.016684057180347902
56.782,0.010444266804296078
56.783,0.005577421342871187
56.784,0.0031859242937575583
56.785,0.0029787798062876725
56.786,0.0034824214815188954
56.787,0.002715890515979726
56.788,0.0009319542088024114
56.789,0.007956342642517504
56.79,0.01740361640221156
56.791,0.027080686904818498
56.792,0.03423854168520342
56.793,0.036490310590650055
56.794,0.032640716018625726
56.795,0.023135901132037468
56.796,0.009977234608938245
56.797,0.0038698632715915946
56.798,0.015367992455442157
56.799,0.022298555357848707
56.8,0.02385829313967431
56.801,0.02077872168916662
56.802,0.014954678996581155
56.803,0.008734894463606709
56.804,0.004133549765091214
56.805,0.0022326747843048615
56.806,0.002961556949960418
56.807,0.005295390792010877
56.808,0.007765381938793494
56.809,0.009070302935418375
56.81,0.0085591324837654
56.811,0.00641866337259084
56.812,0.003520689262935838
56.813,0.0010131755099038703
56.814,0.00016970376152771073
56.815,0.00031590416974947076
56.815999999999995,0.0021002610042191237
56.817,0.004265065027851223
56.818,0.005719042231439505
56.818999999999996,0.005628849229793539
56.82,0.0037357836399945312
56.821,0.00044055299163694994
56.821999999999996,0.003366538869030745
56.823,0.006652674637028863
56.824,0.008623800884920811
56.824999999999996,0.008989941075387442
56.826,0.008016823987571425
56.827,0.006355544816686664
56.827999999999996,0.004731852783639422
56.829,0.003631002139465365
56.83,0.003111694521093596
56.830999999999996,0.0028252281788248242
56.832,0.002227389442381536
56.833,0.0008872301707221854
56.833999999999996,0.0012469377675516505
56.835,0.0037495513351810984
56.836,0.0058449693977730205
56.836999999999996,0.0067217777235145226
56.838,0.005912042616915745
56.839,0.003575196316647514
56.839999999999996,0.0005519528007865955
56.841,0.0018636554016490856
56.842,0.0023760742996435354
56.842999999999996,0.00021039234961580788
56.844,0.004491331154932394
56.845,0.010566103560512385
56.846,0.016089788000731593
56.847,0.018943391237176834
56.848,0.017512418145680428
56.849,0.011285470021158551
56.85,0.0011382836071324907
56.851,0.010813847375300565
56.852,0.021770312138910754
56.853,0.029042412447042597
56.854,0.03084311891108803
56.855,0.02681535545729281
56.856,0.018127185602723063
56.857,0.007103258758488546
56.858,0.0034863982162533103
56.859,0.011248427653290203
56.86,0.014834981442979492
56.861,0.014251810503828701
56.862,0.010722835637031315
56.863,0.006177776992001916
56.864,0.0025518776686213416
56.865,0.0011411677024876752
56.866,0.002226368856987239
56.867,0.005076511036837747
56.868,0.008307234294806636
56.869,0.010446984451853348
56.87,0.010498804985180936
56.871,0.008297087069995336
56.872,0.004540574650509059
56.873,0.0005036891627293907
56.874,0.002456310442064283
56.875,0.0034095127539876895
56.876,0.0021940269028175073
56.876999999999995,0.0005327532508554292
56.878,0.0035443007527751202
56.879,0.005499556021704099
56.879999999999995,0.005433935928281738
56.881,0.003109780026780249
56.882,0.0008962199619332036
56.882999999999996,0.005394463380885209
56.884,0.008995624188609923
56.885,0.010585872932353175
56.885999999999996,0.009697045550075648
56.887,0.006646751392640354
56.888,0.002407982763204296
56.888999999999996,0.0017366057578780984
56.89,0.004628109267475036
56.891,0.005600118650341611
56.891999999999996,0.004660151167870216
56.893,0.002432335524995356
56.894,0.00010441555894523788
56.894999999999996,0.0019793584627483744
56.896,0.0025615790940395023
56.897,0.0017472078221135278
56.897999999999996,5.285669686891868e-05
56.899,0.0021056514444941755
56.9,0.003647466339895517
56.900999999999996,0.004162376474621736
56.902,0.003548855478726689
56.903,0.002122550746814602
56.903999999999996,0.00046630393841201964
56.905,0.0008065281929557802
56.906,0.0012820181485605577
56.907,0.000884050101946254
56.908,0.0001243392679771946
56.909,0.0012682954857206402
56.91,0.002061139842707128
56.911,0.00219684977650529
56.912,0.0016619050605950472
56.913,0.0007274092796183685
56.914,0.00017058764342883532
56.915,0.0006127348077037848
56.916,0.0003686790475402572
56.917,0.0005053434277836854
56.918,0.0016790363149253803
56.919,0.002664271414532349
56.92,0.002990734332785586
56.921,0.0023764369157665576
56.922,0.0008323741644643152
56.923,0.0013340389279430027
56.924,0.0036154065885330828
56.925,0.005464899026593824
56.926,0.006464950808101057
56.927,0.006448305389211611
56.928,0.005534598543189394
56.929,0.0040755838099238995
56.93,0.0025319211358283567
56.931,0.0013242733601705773
56.932,0.0007058388618322175
56.933,0.0006927819543231447
56.934,0.001068631463820989
56.935,0.0014562934849395766
56.936,0.0014338659551143297
56.937,0.0006619607526524669
56.938,0.001008989457402635
56.939,0.0034755286967354075
56.94,0.006375694250366627
56.940999999999995,0.009144184202421
56.942,0.011121328983624248
56.943,0.011699857360009428
56.943999999999996,0.010484472504605947
56.945,0.007431293933503952
56.946,0.0029299836312966353
56.946999999999996,0.0022052470484984175
56.948,0.006855377457192504
56.949,0.009821558639217826
56.949999999999996,0.01011816335331761
56.951,0.00726736267711288
56.952,0.0015125397202865305
56.952999999999996,0.006125911339822518
56.954,0.013996925114797344
56.955,0.020159331413240503
56.955999999999996,0.022849281794732883
56.957,0.020959108220722316
56.958,0.014393047683790511
56.958999999999996,0.004185361685360822
56.96,0.007675793504412735
56.961,0.018694075374120857
56.961999999999996,0.026474294288664296
56.963,0.029333939517110122
56.964,0.026745232689391368
56.964999999999996,0.019477350498353325
56.966,0.00939126140805416
56.967,0.0010600086835812932
56.967999999999996,0.009485612251232553
56.969,0.014179044702927107
56.97,0.014531316598659914
56.971,0.011121773074340747
56.972,0.005471100012552606
56.973,0.00045747922778763977
56.974,0.004849795723982189
56.975,0.006544265450980603
56.976,0.005301846081322163
56.977,0.0017767287962255707
56.978,0.0027806106225203198
56.979,0.0069737106262543515
56.98,0.009707951995351117
56.981,0.010491757724958634
56.982,0.009505738604677806
56.983,0.0074383632040048355
56.984,0.005166376569944306
56.985,0.0034063807135868056
56.986,0.0024654386098435514
56.987,0.0021747788909895183
56.988,0.0020189677561472724
56.989,0.0013998817178760535
56.99,7.327156567447225e-05
56.991,0.0023831517979363633
56.992,0.005071632298726745
56.993,0.007389223730930508
56.994,0.008571129453209274
56.995,0.008136206157202956
56.996,0.006095395748104489
56.997,0.0029883591903258097
56.998,0.0002708146536430104
56.999,0.0026884772009235134
57.0,0.0035248588288376384
57.001,0.002548831629102073
57.001999999999995,0.00012337212292276353
57.003,0.0029099698947975794
57.004,0.005509070848728765
57.004999999999995,0.006776567992304706
57.006,0.006254299533397185
57.007,0.00406692699441232
57.007999999999996,0.0008677436800010837
57.009,0.0023916680228642977
57.01,0.00478605829617437
57.010999999999996,0.005722661237755466
57.012,0.005124868974665792
57.013,0.003434027367778743
57.013999999999996,0.001434181528521493
57.015,3.434308057680245e-05
57.016,0.0003699765124431843
57.016999999999996,0.0005890222704830067
57.018,0.0025243008648524897
57.019,0.004766684623970011
57.019999999999996,0.00654412169569648
57.021,0.007257317503055073
57.022,0.0066850108676913145
57.022999999999996,0.005048479160717856
57.024,0.0029165829219658015
57.025,0.000989635195702435
57.025999999999996,0.00015762439597243998
57.027,0.00028112024463365463
57.028,0.00045160866643694766
57.028999999999996,0.0015310661044722646
57.03,0.0022984297682406736
57.031,0.002190373986141552
57.032,0.0009481247515471618
57.033,0.0012829039549031496
57.034,0.00399647665366971
57.035,0.006494365289866374
57.036,0.008119216053098836
57.037,0.008468749144882964
57.038,0.0075169787503942395
57.039,0.0056026506691908085
57.04,0.003293003472992586
57.041,0.001175037395735486
57.042,0.00034885632559284667
57.043,0.0011872568522287908
57.044,0.0015639634031837854
57.045,0.0019010763598320273
57.046,0.0026261798256153246
57.047,0.0039766797815746074
57.048,0.005875725563267058
57.049,0.007928613836796095
57.05,0.009545146179682247
57.051,0.010147394342513124
57.052,0.009389986940183975
57.053,0.007312935853136549
57.054,0.004368033395247693
57.055,0.0013021272897388151
57.056,0.0010701148660217155
57.057,0.002131801396745245
57.058,0.001679516256135103
57.059,1.4104963145648952e-05
57.06,0.0021297482392592763
57.061,0.0037996297927142307
57.062,0.004123604941983386
57.063,0.002598392086913471
57.064,0.0007241228224637425
57.065,0.005213915701282015
57.065999999999995,0.009815516740617166
57.067,0.013334326684221002
57.068,0.014772985022740676
57.068999999999996,0.013618296520278675
57.07,0.009993784516606891
57.071,0.004633292003626968
57.071999999999996,0.0013154688673940116
57.073,0.006598461190777282
57.074,0.010183572709823938
57.074999999999996,0.011515526451327597
57.076,0.01062792258409566
57.077,0.008087297049736706
57.077999999999996,0.004794278013148985
57.079,0.0017074750153356993
57.08,0.0004252489137748863
57.080999999999996,0.0012507999446759138
57.082,0.0008630091404042525
57.083,0.00028164501690529706
57.083999999999996,0.0015480246118405171
57.085,0.002341957308498133
57.086,0.00229561397287897
57.086999999999996,0.001364905982894376
57.088,0.00018323508071010076
57.089,0.001879798328069093
57.089999999999996,0.003216195629263018
57.091,0.003804770332192265
57.092,0.003487605249249689
57.092999999999996,0.0023650834423625984
57.094,0.0007439382842034249
57.095,0.0009699721831171354
57.096,0.0023943848684193497
57.097,0.003269238384112434
57.098,0.003504846590781688
57.099,0.003173687231319353
57.1,0.0024593296760658267
57.101,0.001587721920390165
57.102,0.0007666417971412428
57.103,0.00014982404517027955
57.104,0.00017187560133324962
57.105,0.00016233533616884701
57.106,0.0001696073179055443
57.107,0.0007699926628275388
57.108,0.0015286659407148565
57.109,0.002268195742064046
57.11,0.0027504240808153314
57.111,0.0027154485656863694
57.112,0.001955118899319109
57.113,0.00040493277320496353
57.114,0.0017777718055603422
57.115,0.0041871818103994644
57.116,0.006222349323310518
57.117,0.007224965210554939
57.118,0.006674382751139816
57.119,0.004384531238687992
57.12,0.0006343115203793287
57.121,0.0038271501206819008
57.122,0.007926148261456796
57.123,0.010539059208370671
57.124,0.010826586114633692
57.125,0.008527546229582683
57.126,0.004111429363735471
57.126999999999995,0.001277873607875804
57.128,0.0060949960337626456
57.129,0.00882131755223201
57.129999999999995,0.008430670180296824
57.131,0.004750910363398615
57.132,0.0014006445525278084
57.132999999999996,0.008369618007900214
57.134,0.01408187175398578
57.135,0.01661920807867879
57.135999999999996,0.014791257991179156
57.137,0.008532739229708878
57.138,0.0010010039761813448
57.138999999999996,0.011682491799397673
57.14,0.020945917228314934
57.141,0.026461108494617774
57.141999999999996,0.026757750133813166
57.143,0.021621626674371935
57.144,0.012149954647955553
57.144999999999996,0.0004522384930286682
57.146,0.010913829653815703
57.147,0.019606653353009536
57.147999999999996,0.024075719254642875
57.149,0.023890351777614272
57.15,0.019743790711609584
57.150999999999996,0.013153133351547776
57.152,0.005963927284122081
57.153,0.00018119143632360868
57.153999999999996,0.004251489519373878
57.155,0.00600624221874213
57.156,0.00591360495741915
57.157,0.00486514576645016
57.158,0.003800353394935039
57.159,0.003373326273025477
57.16,0.0037671266667897822
57.161,0.004701819730489004
57.162,0.005612112916358405
57.163,0.0059141402378509985
57.164,0.005256554512849709
57.165,0.003664924827394244
57.166,0.0015331767034020623
57.167,0.0005261399852008659
57.168,0.0019108321927286457
57.169,0.00225035509819758
57.17,0.0015399374196868475
57.171,0.00014341378127020655
57.172,0.0013304075062081026
57.173,0.002228803596778395
57.174,0.0020607204638731203
57.175,0.0006377855298032312
57.176,0.0018900622030539435
57.177,0.005104399405224452
57.178,0.00845644438326695
57.179,0.01141633002860337
57.18,0.013580046707360084
57.181,0.01470488581277554
57.182,0.01467817536412052
57.183,0.013453310001726573
57.184,0.010999462780582872
57.185,0.007301932826678498
57.186,0.0024228731022055217
57.187,0.003401358223209575
57.188,0.009675358723639563
57.189,0.015627125227776845
57.19,0.02029432917141915
57.190999999999995,0.022714210207167556
57.192,0.02217462585695995
57.193,0.018452159325128885
57.193999999999996,0.011955299343553142
57.195,0.0037116469766103927
57.196,0.004817350344944135
57.196999999999996,0.01205654537414256
57.198,0.016689039848182628
57.199,0.01797588625168284
57.199999999999996,0.015931031513868772
57.201,0.011300154938520391
57.202,0.005349908749092284
57.202999999999996,0.00047001092306359527
57.204,0.004893534967894526
57.205,0.007130361622250553
57.205999999999996,0.0070073695393375775
57.207,0.00493233486074613
57.208,0.001707621517085656
57.208999999999996,0.0017362770967849915
57.21,0.004600538348283281
57.211,0.006396403529256685
57.211999999999996,0.007002192468378189
57.213,0.006602911904244259
57.214,0.005553824043877383
57.214999999999996,0.004227954822575126
57.216,0.0029027335060866823
57.217,0.0017169359897659733
57.217999999999996,0.0006967323562789874
57.219,0.00017794283768463447
57.22,0.0009079426336560192
57.221,0.0014452474717261382
57.222,0.001712736292435664
57.223,0.0016608032399366153
57.224,0.0013285592009403518
57.225,0.0008728314296297069
57.226,0.0005409704221896058
57.227,0.000588457839742357
57.228,0.001169067696276883
57.229,0.0022423179047208145
57.23,0.0035421511595802343
57.231,0.004631105513444402
57.232,0.005032228474360297
57.233,0.004398610460301384
57.234,0.002660580700911371
57.235,9.219932248299964e-05
57.236,0.0027371281981956107
57.237,0.005120701062609929
57.238,0.006436111563891735
57.239,0.006356952996225265
57.24,0.004978623456188228
57.241,0.002806970121709064
57.242,0.0006035338132371046
57.243,0.0008684439572435433
57.244,0.0011149354619731768
57.245,0.00010499216981124638
57.246,0.0016859078517346925
57.247,0.0034091565885878135
57.248,0.004119807403121649
57.249,0.003112238889780088
57.25,0.00020436242076495107
57.251,0.0041299071737977994
57.251999999999995,0.008836052140905383
57.253,0.012553248892012148
57.254,0.01401309669665068
57.254999999999995,0.012443855901054122
57.256,0.007853066577140239
57.257,0.0010933604157192355
57.257999999999996,0.006320550200995744
57.259,0.01260041431998685
57.26,0.016171086898251454
57.260999999999996,0.016115044140193546
57.262,0.012443698778915178
57.263,0.006113276776856314
57.263999999999996,0.0012230042710485096
57.265,0.007657835910745194
57.266,0.011542483457195591
57.266999999999996,0.011924228923898434
57.268,0.008786502379624422
57.269,0.003027787754948785
57.269999999999996,0.003808850612598815
57.271,0.009973012928826502
57.272,0.01398321263233637
57.272999999999996,0.015007333030862524
57.274,0.013044558874276092
57.275,0.008866652405904759
57.275999999999996,0.0037470072256705783
57.277,0.0009344263048924857
57.278,0.004090434416620758
57.278999999999996,0.005214366267643681
57.28,0.0044784530041189485
57.281,0.0026233941757457797
57.282,0.0006820301083644302
57.283,0.00037299374283836646
57.284,5.132702799898636e-05
57.285,0.001977110786966157
57.286,0.004846830907503725
57.287,0.00769575611968965
57.288,0.00945082366902011
57.289,0.00926522953552352
57.29,0.0067894401826078974
57.291,0.0022997334741597245
57.292,0.003352016780936722
57.293,0.00895171410254723
57.294,0.013237957285753813
57.295,0.015229689302530162
57.296,0.014476485674642726
57.297,0.011165480613481243
57.298,0.006060608881983553
57.299,0.00029661879399453707
57.3,0.004911240174268145
57.301,0.008561285728116135
57.302,0.01008635789031864
57.303,0.009449509758223083
57.304,0.00709975305875498
57.305,0.003811936861964258
57.306,0.0004637690870682948
57.307,0.0021854052075835208
57.308,0.003657043916468906
57.309,0.0038228640712171945
57.31,0.0028769864576622737
57.311,0.001233785875348757
57.312,0.0006086167977596671
57.313,0.0021966500553577063
57.314,0.0032093812602765393
57.315,0.003492973882797312
57.315999999999995,0.0030473818615111663
57.317,0.001984527821417702
57.318,0.0004808981884608435
57.318999999999996,0.0012583190187236473
57.32,0.0030179630472187934
57.321,0.004580525398390269
57.321999999999996,0.005735198161917461
57.323,0.0062995304709879164
57.324,0.006156494895546226
57.324999999999996,0.005298283652505576
57.326,0.0038590315651453053
57.327,0.0021166243789648895
57.327999999999996,0.00045078643562176094
57.329,0.0007409708277847406
57.33,0.0011511892350656613
57.330999999999996,0.0006630477667019925
57.332,0.0005904709618780651
57.333,0.0022341715428982746
57.333999999999996,0.003731484944536031
57.335,0.004521917871769365
57.336,0.0041787765943059885
57.336999999999996,0.00254155747793917
57.338,0.0002177056922682517
57.339,0.003616738445878095
57.339999999999996,0.006970727069520977
57.341,0.009556826881893925
57.342,0.010790164984114873
57.342999999999996,0.01036327095178641
57.344,0.008312733989152603
57.345,0.004999192139722049
57.346,0.0010120082518204213
57.347,0.002969991329050345
57.348,0.006321556499452116
57.349,0.008581993891529817
57.35,0.009512954543813339
57.351,0.009100900181691013
57.352,0.007518381047218107
57.353,0.005066417248554846
57.354,0.0021185544978292873
57.355,0.0009221878763197793
57.356,0.0036541094130780665
57.357,0.00570456637404811
57.358,0.006765176836770814
57.359,0.006638560685370178
57.36,0.0052896127570931754
57.361,0.0028841207606137625
57.362,0.00020627141002625918
57.363,0.0034481224660750987
57.364,0.006240426582820418
57.365,0.008042090532365664
57.366,0.008500679024578222
57.367,0.007544855648616127
57.368,0.005410088894288742
57.369,0.00258569296816573
57.37,0.00030469920245469593
57.371,0.0026558774730359143
57.372,0.004022892545681015
57.373,0.004211769279432419
57.374,0.003296323035275476
57.375,0.0015631566549808757
57.376,0.0005898408395433151
57.376999999999995,0.002763033731949331
57.378,0.004635836207700924
57.379,0.005997503901529757
57.379999999999995,0.00672960530155834
57.381,0.0067627926870184865
57.382,0.006040636935082117
57.382999999999996,0.004518104506856429
57.384,0.0022034710932849243
57.385,0.0007722963412592624
57.385999999999996,0.004094681440069766
57.387,0.007254962745688487
57.388,0.009618364976580718
57.388999999999996,0.010570821227831961
57.39,0.009709583286658297
57.391,0.0070161390738592245
57.391999999999996,0.002943009349972198
57.393,0.0016352779650537074
57.394,0.005615956445524827
57.394999999999996,0.00796505253414584
57.396,0.008033677188086742
57.397,0.005791440288427508
57.397999999999996,0.0018904187961683706
57.399,0.00247955635309637
57.4,0.0059178952074750504
57.400999999999996,0.007233301319701103
57.402,0.0058294875748135
57.403,0.001930582942442532
57.403999999999996,0.0034363899424671445
57.405,0.008711164939184451
57.406,0.012250505233348929
57.407,0.012826077187282021
57.408,0.010015859772880133
57.409,0.004363087363031359
57.41,0.0027535466533261444
57.411,0.009504864301414853
57.412,0.014136709777098114
57.413,0.015475647256997044
57.414,0.01325964511128446
57.415,0.008193382517897311
57.416,0.001714803193846175
57.417,0.004449603475872409
57.418,0.008798209289567384
57.419,0.010475451465993133
57.42,0.00947386350351969
57.421,0.006564147074166848
57.422,0.0029897317277438715
57.423,3.668979327318616e-05
57.424,0.0013748738551663394
57.425,0.000946424947712402
57.426,0.0009699429920931809
57.427,0.0035621885110994848
57.428,0.005887410111587617
57.429,0.007214785785392466
57.43,0.0072598552761695785
57.431,0.006232811662668857
57.432,0.004694547223976949
57.433,0.003285191115911175
57.434,0.0024353379973601217
57.435,0.0021741912562276105
57.436,0.0021105842769651552
57.437,0.001596639805544908
57.438,1.395686362208024e-05
57.439,0.0029258488892632485
57.44,0.00698310859882735
57.440999999999995,0.011377294747937826
57.442,0.014977130453110934
57.443,0.016638325086160127
57.443999999999996,0.015578665412562203
57.445,0.011662890328136654
57.446,0.005496687107718043
57.446999999999996,0.001708650089050755
57.448,0.008463093679359601
57.449,0.013414280408110895
57.449999999999996,0.015721231231379675
57.451,0.015267212882311223
57.452,0.01264684909857693
57.452999999999996,0.008936884042743365
57.454,0.005330135256332951
57.455,0.002754759129345558
57.455999999999996,0.0016023000202992986
57.457,0.001648571571870739
57.458,0.002185372795809481
57.458999999999996,0.002311074440286779
57.46,0.001277578487152714
57.461,0.0012238310506408878
57.461999999999996,0.004930980014323261
57.463,0.009072929813539344
57.464,0.012600430403147086
57.464999999999996,0.014505891217747625
57.466,0.014128690122981881
57.467,0.011351238259135824
57.467999999999996,0.006630656719111147
57.469,0.0008654926623135157
57.47,0.004852169636791324
57.471,0.00951784026734111
57.472,0.012445013303282595
57.473,0.013384950484540293
57.474,0.012516438298527327
57.475,0.01032792976749348
57.476,0.0074437568192395704
57.477,0.004454586260458906
57.478,0.001799811560934633
57.479,0.0002767238193454142
57.48,0.0017051859751023568
57.481,0.0025306468196357717
57.482,0.002850800737699021
57.483,0.0027762881245896867
57.484,0.0024217193736017647
57.485,0.0019173571297349899
57.486,0.0014208148705107352
57.487,0.0011091929414266608
57.488,0.0011436236635459743
57.489,0.001614517142695848
57.49,0.0024891993143225494
57.491,0.003587741756837678
57.492,0.0046052153661365735
57.493,0.005181957603913623
57.494,0.005004262243699409
57.495,0.0039040078992557104
57.496,0.0019230803024049752
57.497,0.0006813609071095539
57.498,0.0034950880141071073
57.499,0.006050934251396331
57.5,0.007945411307293173
57.501,0.008930517440897437
57.501999999999995,0.008953097021805426
57.503,0.008133633921079304
57.504,0.006698307744532252
57.504999999999995,0.004894149091791861
57.506,0.0029211366741468377
57.507,0.0009056868349358655
57.507999999999996,0.0010789693494931596
57.509,0.002960926813085998
57.51,0.004616051693902153
57.510999999999996,0.005844370783380641
57.512,0.006396221150780871
57.513,0.006046751656140328
57.513999999999996,0.004694927796991607
57.515,0.0024485662496457504
57.516,0.0003434728728628416
57.516999999999996,0.0031357533363740742
57.518,0.005305333998835966
57.519,0.00631568256881564
57.519999999999996,0.005876287468479018
57.521,0.004045379761458939
57.522,0.001237872200997738
57.522999999999996,0.0018707424430396261
57.524,0.004520504518369768
57.525,0.006072361791882599
57.525999999999996,0.006181148647710801
57.527,0.00488344761649665
57.528,0.00257373092017622
57.528999999999996,0.00012297902051267812
57.53,0.002541529254716102
57.531,0.004170713294995941
57.532,0.004791705595210241
57.533,0.004520426354643843
57.534,0.0037445037712151978
57.535,0.0029784926920522147
57.536,0.0026853239520634167
57.537,0.0031202745033131335
57.538,0.004244253153262788
57.539,0.005729892325345185
57.54,0.0070549757478792505
57.541,0.007652469997571789
57.542,0.007072274319963677
57.543,0.005109975109638326
57.544,0.001870771779974936
57.545,0.0022430641244428062
57.546,0.006612260141414415
57.547,0.010524223631465593
57.548,0.013310170518348293
57.549,0.014467792626785846
57.55,0.013749394440089172
57.551,0.01120494108126088
57.552,0.007177483260305265
57.553,0.002253715638852642
57.554,0.002824256431842454
57.555,0.007276668046465721
57.556,0.010419502409218158
57.557,0.01179378935111287
57.558,0.011265866228291392
57.559,0.009072604391450186
57.56,0.005791718672605831
57.561,0.0022316188872670106
57.562,0.0007443534589826835
57.563,0.0024234035688279125
57.564,0.0024279544939003433
57.565,0.0008271841416288656
57.565999999999995,0.0018628258090734437
57.567,0.004800626887115626
57.568,0.0070381982191424185
57.568999999999996,0.007781480423740152
57.57,0.006620133082206833
57.571,0.0036579730107154837
57.571999999999996,0.0004989220045715896
57.573,0.00489885966921941
57.574,0.008504606311818647
57.574999999999996,0.010482460529627272
57.576,0.010434574172681088
57.577,0.008503857894242598
57.577999999999996,0.005318580078442834
57.579,0.0017929475251955164
57.58,0.0011548634522623887
57.580999999999996,0.0028791969018050908
57.582,0.0031909579854795325
57.583,0.0023911615621810263
57.583999999999996,0.001143927649541194
57.585,0.00023069867034500438
57.586,0.00026640063917339506
57.586999999999996,0.0014714981433242777
57.588,0.0035767426643233506
57.589,0.005895040466997581
57.589999999999996,0.007540682585840365
57.591,0.007727580489642962
57.592,0.006050901268998298
57.592999999999996,0.002659609860315147
57.594,0.0017397830795095872
57.595,0.006055700641339661
57.596,0.009112348059815714
57.597,0.009990197678975467
57.598,0.008303787136489786
57.599,0.004332431616928611
57.6,0.001036775848768929
57.601,0.0065383473300435644
57.602,0.010863965833770675
57.603,0.01300764835836562
57.604,0.012522808620031798
57.605,0.009621295216418569
57.606,0.005091961241023002
57.607,6.865743894008029e-05
57.608,0.00428101832865426
57.609,0.0070561240386463765
57.61,0.007830158707220368
57.611,0.00671589304093993
57.612,0.0042807835504656225
57.613,0.0013490910316060237
57.614,0.0012443090772898846
57.615,0.0028757106837057024
57.616,0.0032711800116519284
57.617,0.002532797137101962
57.618,0.0010584251764217138
57.619,0.0006094531192223155
57.62,0.001954272066077084
57.621,0.0026246152333212337
57.622,0.002507061069145167
57.623,0.0017214649513312803
57.624,0.0005515258275236891
57.625,0.0006596031811511715
57.626,0.0016132444544161174
57.626999999999995,0.0021289808662957603
57.628,0.0021723218378186266
57.629,0.0018365637119330872
57.629999999999995,0.0012926125600304492
57.631,0.0007274720219538687
57.632,0.0002914764187227922
57.632999999999996,6.771033642534578e-05
57.634,6.759944000164544e-05
57.635,0.00024791033851149797
57.635999999999996,0.0005389855650535657
57.637,0.0008729727135220605
57.638,0.0012034490317116885
57.638999999999996,0.0015124709324086409
57.64,0.0018057225696675263
57.641,0.0020996459317656857
57.641999999999996,0.0024056734815824394
57.643,0.002716286694582984
57.644,0.0029963856734770583
57.644999999999996,0.0031821174496070746
57.646,0.003188189733429068
57.647,0.0029236242993267176
57.647999999999996,0.0023144796713042482
57.649,0.0013300757209326185
57.65,6.978341439507541e-06
57.650999999999996,0.0015366807858640558
57.652,0.0031039186431692013
57.653,0.004443347884772232
57.653999999999996,0.005294731626465047
57.655,0.005448157165395904
57.656,0.004803043240142897
57.657,0.003409941056799453
57.658,0.0014797925999985248
57.659,0.0006475527381607225
57.66,0.002572618505403628
57.661,0.003928417128310917
57.662,0.004471505285949697
57.663,0.004145685767698634
57.664,0.0030978475423719845
57.665,0.0016384174470592146
57.666,0.00015550346511084237
57.667,0.000993146266580114
57.668,0.0015779185550594827
57.669,0.0015541165852871375
57.67,0.001058980283382358
57.671,0.0003490954367056762
57.672,0.0003016844168335507
57.673,0.0007093402298794379
57.674,0.000853894050633757
57.675,0.000892129276506812
57.676,0.0011000261302051449
57.677,0.0017603277543363962
57.678,0.003031335766310057
57.679,0.004842897749522388
57.68,0.006860471308137977
57.681,0.008538760353779616
57.682,0.009258179184721658
57.683,0.008509063373869884
57.684,0.006069448084774512
57.685,0.0021192417639636896
57.686,0.002751246059717662
57.687,0.007650944420681197
57.688,0.011592991652520035
57.689,0.013741832561626737
57.69,0.01363359093589344
57.690999999999995,0.01130543870733067
57.692,0.007293850455998267
57.693,0.0024986580952646286
57.693999999999996,0.0020511967063460298
57.695,0.005465139927011016
57.696,0.007216222908866631
57.696999999999996,0.007260523527256548
57.698,0.006017738515742528
57.699,0.004220506965051152
57.699999999999996,0.0026782409878524883
57.701,0.002025830579609427
57.702,0.0025312825957048025
57.702999999999996,0.0040182041420031445
57.704,0.005924640149960285
57.705,0.007479485869914305
57.705999999999996,0.007943466312066699
57.707,0.0068434396123132615
57.708,0.004131545753744672
57.708999999999996,0.00022320880461465105
57.71,0.004096786850624793
57.711,0.007873457333165017
57.711999999999996,0.01023035590963445
57.713,0.010599645746583092
57.714,0.008871974764699324
57.714999999999996,0.005427912206510057
57.716,0.0010453815436852734
57.717,0.003289823066592019
57.717999999999996,0.006619530670493341
57.719,0.008234606150741133
57.72,0.007829050204417036
57.721,0.005553461933935094
57.722,0.0019612932982995476
57.723,0.002132492099436326
57.724,0.005841659476349864
57.725,0.008401172376726329
57.726,0.009319099392568907
57.727,0.008458590706953824
57.728,0.006039170584741172
57.729,0.0025653743074759206
57.73,0.001294631260832404
57.731,0.004850077034010753
57.732,0.00751776570086742
57.733,0.008917213570530325
57.734,0.008917012698596603
57.735,0.007630336339939129
57.736,0.005367780474541915
57.737,0.0025626959555886297
57.738,0.000313087631300965
57.739,0.0028266021401503615
57.74,0.004642103986215057
57.741,0.00555457057624722
57.742,0.005498573392127461
57.743,0.004537431787213508
57.744,0.0028398266916304584
57.745,0.0006507757393247923
57.746,0.0017383580046755871
57.747,0.004019154102003993
57.748,0.005895448923605983
57.749,0.007114098614893077
57.75,0.007497195559638783
57.751,0.006972718298339238
57.751999999999995,0.005597275300076282
57.753,0.0035626817639526414
57.754,0.001179023983615576
57.754999999999995,0.001168831055939588
57.756,0.0030873516519589247
57.757,0.004251453270601827
57.757999999999996,0.004475177334356217
57.759,0.0037570546034213148
57.76,0.002285485052373751
57.760999999999996,0.0003988892180895479
57.762,0.0014923135196099845
57.763,0.003003294732844208
57.763999999999996,0.00386638394362488
57.765,0.003991292530455897
57.766,0.003476729945351038
57.766999999999996,0.00256996989206436
57.768,0.001586423459799464
57.769,0.000813532412830774
57.769999999999996,0.0004281825572783427
57.771,0.0004524837224450128
57.772,0.0007603242267903974
57.772999999999996,0.0011305234366531935
57.774,0.0013271724115243562
57.775,0.0011790836996561737
57.775999999999996,0.0006312677877810258
57.777,0.00024817016135850753
57.778,0.0013059000397740966
57.778999999999996,0.0023695908364455825
57.78,0.0033153241884926006
57.781,0.004108264434351621
57.782,0.0047985474636600455
57.783,0.005471724042920895
57.784,0.006171855919376477
57.785,0.006828571518890698
57.786,0.007221701957599391
57.787,0.007006809898133207
57.788,0.005804707038972516
57.789,0.003334382757205238
57.79,0.0004502287663718372
57.791,0.005266464197473363
57.792,0.010490962006923786
57.793,0.015246595096971934
57.794,0.0185760874225999
57.795,0.019662286742213222
57.796,0.018037753374308615
57.797,0.013725489974511264
57.798,0.007269184412464121
57.799,0.0003593180538345852
57.8,0.007954142963362784
57.801,0.01432242228803697
57.802,0.018522146189838603
57.803,0.020033211202650714
57.804,0.018824553250950938
57.805,0.01531008081619068
57.806,0.010215937273520782
57.807,0.004402539687535377
57.808,0.0013087457018141331
57.809,0.006263213797132702
57.81,0.010033431961731683
57.811,0.01241497023097974
57.812,0.013378424343841627
57.813,0.013007810565663146
57.814,0.01145234256365174
57.815,0.008906072220181874
57.815999999999995,0.00561356142786425
57.817,0.0018862532642695386
57.818,0.0018913856547517853
57.818999999999996,0.005282785756821736
57.82,0.007852317012182733
57.821,0.009240953316810812
57.821999999999996,0.009243560289395693
57.823,0.007862936870673552
57.824,0.005321102978529196
57.824999999999996,0.0020210286577180027
57.826,0.0015325664909054903
57.827,0.0048321112289577035
57.827999999999996,0.007459198206601353
57.829,0.009146727307012674
57.83,0.009799098970702823
57.830999999999996,0.009472394812185966
57.832,0.008328430056657518
57.833,0.006582286759564473
57.833999999999996,0.0044608355698135295
57.835,0.0021813025081160024
57.836,5.197927409657676e-05
57.836999999999996,0.0020431733003834617
57.838,0.0036062594057883553
57.839,0.004581294521960825
57.839999999999996,0.004865633580234344
57.841,0.004449967418443394
57.842,0.003442607067778075
57.842999999999996,0.0020660825780603282
57.844,0.0006183517288113477
57.845,0.0005959376626575743
57.846,0.0013455934107371205
57.847,0.0015382845228087212
57.848,0.0012466792407308887
57.849,0.0006820813983184791
57.85,0.00011999689887331375
57.851,0.00019996830155221204
57.852,0.00016594643628466198
57.853,0.00015672090440766075
57.854,0.0005401759109528504
57.855,0.000673307477749851
57.856,0.0002825040533721746
57.857,0.0007464522888144653
57.858,0.002290031448879402
57.859,0.003985607307887138
57.86,0.0053165330654366206
57.861,0.005763600068118168
57.862,0.004977825244446358
57.863,0.0029179312885724605
57.864,9.728958673491225e-05
57.865,0.003447297192201437
57.866,0.0063696943647216
57.867,0.008178362206625125
57.868,0.008474191270770001
57.869,0.007280439230072182
57.87,0.0050543887077612
57.871,0.0025634551642964454
57.872,0.0006563373865216372
57.873,5.101238281045574e-06
57.874,0.0008286605331794197
57.875,0.0028850603071907564
57.876,0.005416618245055226
57.876999999999995,0.0073998879503690195
57.878,0.00783434596348852
57.879,0.006056566477248342
57.879999999999995,0.001976622683821544
57.881,0.0038370810484108205
57.882,0.01025650780982501
57.882999999999996,0.0158558033056185
57.884,0.019268279319265464
57.885,0.01954202985248818
57.885999999999996,0.016396564607365296
57.887,0.010309704791317835
57.888,0.0024109699916388372
57.888999999999996,0.005788902881009037
57.89,0.012758278450432073
57.891,0.017297986314883485
57.891999999999996,0.018795864229595966
57.893,0.017321092818185047
57.894,0.013543422487688124
57.894999999999996,0.008510973556734294
57.896,0.003356901763173176
57.897,0.0009801649202022529
57.897999999999996,0.00394754961926289
57.899,0.0054387196329908774
57.9,0.005720812265630867
57.900999999999996,0.005267115246853843
57.902,0.0045570330432307534
57.903,0.003910133752164826
57.903999999999996,0.003404083237533558
57.905,0.0028950357406107956
57.906,0.0021239294479359224
57.907,0.0008644161766656541
57.908,0.0009437018139451027
57.909,0.003124545114834328
57.91,0.005285712078057816
57.911,0.006922294228343228
57.912,0.007571647234864401
57.913,0.006968040468819504
57.914,0.005145914591860772
57.915,0.0024566397990939573
57.916,0.0005090927117407147
57.917,0.0030716479562828544
57.918,0.004641628321964356
57.919,0.004875463433711801
57.92,0.00376278781740274
57.921,0.0016220960668563704
57.922,0.0009913164478000862
57.923,0.0034358562880556364
57.924,0.0051479073165713995
57.925,0.005773878513546067
57.926,0.005236402317857879
57.927,0.0037225525011582365
57.928,0.0016053971526642848
57.929,0.0006717073638579265
57.93,0.0027110783923888437
57.931,0.004244279332824304
57.932,0.005164532951654696
57.933,0.005507326671867994
57.934,0.005394733848631033
57.935,0.004968187461598293
57.936,0.004334420664435908
57.937,0.0035410320042744167
57.938,0.0025853075976507616
57.939,0.001447401735457765
57.94,0.00013103600865988142
57.940999999999995,0.001306182232494892
57.942,0.0027452299413961516
57.943,0.00402389754799082
57.943999999999996,0.004974112884518889
57.945,0.005465308576409892
57.946,0.005439570920052814
57.946999999999996,0.00492812930707839
57.948,0.004045641946754948
57.949,0.0029658567106832694
57.949999999999996,0.001887009363352755
57.951,0.0009964424671851043
57.952,0.000441688014440667
57.952999999999996,0.0003112683916632099
57.954,0.0006248251833515324
57.955,0.0013304767147420554
57.955999999999996,0.0023079320536107707
57.957,0.003377936671090712
57.958,0.004320365131077981
57.958999999999996,0.00490306229707647
57.96,0.0049206874146904495
57.961,0.004238092300773483
57.961999999999996,0.0028281703724142497
57.963,0.0007920908804977388
57.964,0.0016478481162344497
57.964999999999996,0.004185703941242261
57.966,0.006493175097839675
57.967,0.008289273678550067
57.967999999999996,0.009398297313311071
57.969,0.009777988812429961
57.97,0.009508523732831516
57.971,0.008745972060141416
57.972,0.007656660106431069
57.973,0.0063565324032697065
57.974,0.00487877855509982
57.975,0.0031832043049380377
57.976,0.0012050687810088215
57.977,0.0010750515035782538
57.978,0.003569140220625263
57.979,0.0060560713323208485
57.98,0.008209698110527153
57.981,0.009678579611105357
57.982,0.010194487167493401
57.983,0.009672627625219945
57.984,0.008264918257260345
57.985,0.0063405022407273855
57.986,0.00439157013365762
57.987,0.0028895770398701132
57.988,0.0021373777522328457
57.989,0.0021685160175079874
57.99,0.0027325285596819654
57.991,0.003377663392679821
57.992,0.0036086262708784735
57.993,0.0030685968809403595
57.994,0.0016824446045834952
57.995,0.00029257116510747727
57.996,0.0023331229461834124
57.997,0.003817681966598196
57.998,0.0042432388221877865
57.999,0.0034171809028911444
58.0,0.0015543431068489849
58.001,0.0007620647082349674
58.001999999999995,0.0027518682005934
58.003,0.0036912853965630934
58.004,0.0031659615011296396
58.004999999999995,0.0012362499509046831
58.006,0.0015478552610660751
58.007,0.004296887610866596
58.007999999999996,0.006056402713365774
58.009,0.006120528256248789
58.01,0.004281588871039579
58.010999999999996,0.0009291548560239851
58.012,0.003041858400895153
58.013,0.0064926311303021515
58.013999999999996,0.00839294538861415
58.015,0.00815323263125291
58.016,0.005827408636297106
58.016999999999996,0.002116450946121414
58.018,0.0018345599578563822
58.019,0.004786536670370191
58.019999999999996,0.005795445431292328
58.021,0.0045175284814310355
58.022,0.0013326026420172473
58.022999999999996,0.0027562290848743456
58.024,0.006418012213645808
58.025,0.008394781515745384
58.025999999999996,0.007885136829196384
58.027,0.0047935943734559745
58.028,0.00022914926054335444
58.028999999999996,0.005965276561489827
58.03,0.01097204346792104
58.031,0.013983442563866374
58.032,0.014253222612543267
58.033,0.01174288295189493
58.034,0.007107831788344925
58.035,0.0014957027946907136
58.036,0.0037762609278696475
58.037,0.007568227779282483
58.038,0.009193401990856437
58.039,0.008554626383894098
58.04,0.006118909453422129
58.041,0.0027528718677186734
58.042,0.0005239785880942739
58.043,0.0027975737170559223
58.044,0.0034659772811573633
58.045,0.002353744773812289
58.046,0.00027836564470006995
58.047,0.0038155809578124143
58.048,0.00743457316917455
58.049,0.010278137096212185
58.05,0.011627409586109414
58.051,0.011045775495920814
58.052,0.008474329932064933
58.053,0.004263369351352882
58.054,0.0008705161045798342
58.055,0.005963763253621967
58.056,0.009990097801967916
58.057,0.01208092654266831
58.058,0.011736588117797228
58.059,0.008974541198296849
58.06,0.004366069954811036
58.061,0.0010646982829724005
58.062,0.006070119985438705
58.063,0.009487830746322957
58.064,0.010549456904462332
58.065,0.009099887760627846
58.065999999999995,0.005655329555627459
58.067,0.0012710867847166767
58.068,0.0027534440484255126
58.068999999999996,0.00525217829625813
58.07,0.005540498857002201
58.071,0.003625177498265065
58.071999999999996,0.00020534813205094703
58.073,0.003542619023514652
58.074,0.006334282756306914
58.074999999999996,0.007186201002123288
58.076,0.005734080949459974
58.077,0.002355052935453974
58.077999999999996,0.0019493904611226033
58.079,0.005875429160451615
58.08,0.008241005455053404
58.080999999999996,0.008373090251263414
58.082,0.0063289039997535485
58.083,0.002875063894819724
58.083999999999996,0.0007715514098687773
58.085,0.0033573366087933016
58.086,0.004022676987786531
58.086999999999996,0.002604556106255889
58.088,0.00029354809783279593
58.089,0.003492565967869345
58.089999999999996,0.0056305193965758464
58.091,0.005629395126048158
58.092,0.003081766512399999
58.092999999999996,0.0015730430994757424
58.094,0.007145843336453526
58.095,0.012041324079222053
58.096,0.014741872593093227
58.097,0.014278759709911751
58.098,0.010541720878998314
58.099,0.004329736604964471
58.1,0.0028717305644718996
58.101,0.009315835812761313
58.102,0.013488933774583467
58.103,0.014523661444436644
58.104,0.012409465934786972
58.105,0.007946284030813745
58.106,0.002467960117437092
58.107,0.00256933957497219
58.108,0.006003130577505811
58.109,0.007261732090776783
58.11,0.00646411389230541
58.111,0.004309821501331953
58.112,0.0018106190819723689
58.113,4.1795563413934954e-05
58.114,0.0005679810268849876
58.115,0.0004280246571027904
58.116,0.0026441520660530557
58.117,0.005407702297119142
58.118,0.007890813626022659
58.119,0.0093429061294816
58.12,0.009275809365866227
58.121,0.007561821929063935
58.122,0.004436098862839137
58.123,0.00042115908966791274
58.124,0.0037944469200838337
58.125,0.007490518240827602
58.126,0.01003846763199096
58.126999999999995,0.011000445458747806
58.128,0.010198904447908478
58.129,0.007752762079420577
58.129999999999995,0.004073756338049681
58.131,0.00018522860777756063
58.132,0.004234193890555411
58.132999999999996,0.007295072714033615
58.134,0.008771556844636968
58.135,0.008399988642095804
58.135999999999996,0.006335638417429294
58.137,0.003138073247858257
58.138,0.00035556028790754697
58.138999999999996,0.0032459583698425942
58.14,0.004819813248843636
58.141,0.004756692037909686
58.141999999999996,0.0032260202079155004
58.143,0.0008354672269149393
58.144,0.0015614970085285503
58.144999999999996,0.0031430912258668528
58.146,0.003393465541035752
58.147,0.0022812876437488176
58.147999999999996,0.00027810819927964406
58.149,0.0017960083627522004
58.15,0.0030528766486657703
58.150999999999996,0.0028501489477905013
58.152,0.0010310588381537745
58.153,0.0019958688880086753
58.153999999999996,0.00536993868282133
58.155,0.008050613577923797
58.156,0.009158804532278804
58.157,0.008270556802437047
58.158,0.005560881217661797
58.159,0.0017464107952254388
58.16,0.0021542262859165252
58.161,0.0051587409391914895
58.162,0.0066389503287425265
58.163,0.0065055242118602485
58.164,0.005194973450043552
58.165,0.003466150004247849
58.166,0.002083900706443424
58.167,0.0015102725210147676
58.168,0.0017223141697144237
58.169,0.002229414477069773
58.17,0.002288185048812432
58.171,0.0012362689954126477
58.172,0.001183170696150503
58.173,0.004637462905350182
58.174,0.008245258554714347
58.175,0.010845109351952249
58.176,0.011407540348131205
58.177,0.009445552017123477
58.178,0.0052680105379546175
58.179,3.312568859593522e-05
58.18,0.004881192218593302
58.181,0.0077157511047377
58.182,0.007533923578566941
58.183,0.004284017424633861
58.184,0.0010373824448212607
58.185,0.006639692592704028
58.186,0.010480407623019751
58.187,0.010928807131519535
58.188,0.00733468952266959
58.189,0.00030690047386650705
58.19,0.008404866047118946
58.190999999999995,0.016403279088308687
58.192,0.02136437428357118
58.193,0.021758938610364098
58.193999999999996,0.017340312237753158
58.195,0.00923578685362368
58.196,0.00039448891867279216
58.196999999999996,0.009026144437402258
58.198,0.014553260034824976
58.199,0.015932130194944927
58.199999999999996,0.01347678589056854
58.201,0.00870999186596188
58.202,0.0038190119878770815
58.202999999999996,0.0008955606959273842
58.204,0.0012109308246947992
58.205,0.004766471054844267
58.205999999999996,0.010269766046662203
58.207,0.01554752928903696
58.208,0.018263113276940968
58.208999999999996,0.016706532153797787
58.21,0.010400481175378461
58.211,0.00032459183872511036
58.211999999999996,0.011317532904772488
58.213,0.021718164845590218
58.214,0.028279714573209394
58.214999999999996,0.029371288324785645
58.216,0.02479621343699139
58.217,0.015832289800726755
58.217999999999996,0.0048407878348283384
58.219,0.0054277401491291425
58.22,0.012614341705115018
58.221,0.015384152823979617
58.222,0.013729839262196161
58.223,0.00887283947949321
58.224,0.0028140558008661553
58.225,0.0023117817466734294
58.226,0.004874037623671114
58.227,0.004187649014385146
58.228,0.0006411688109207235
58.229,0.0045032172281174315
58.23,0.00955284554731849
58.231,0.012919903313484938
58.232,0.013582818171000955
58.233,0.011343991252232687
58.234,0.0068264829184829234
58.235,0.0012351311650698386
58.236,0.004025354448403711
58.237,0.007750438317944111
58.238,0.009237654698387197
58.239,0.008416427539339704
58.24,0.0057911307929844
58.241,0.002238649406126627
58.242,0.0012623333443669916
58.243,0.0038853866431465154
58.244,0.005127606802314023
58.245,0.004867486000125582
58.246,0.0033171791915639543
58.247,0.0009058072867397482
58.248,0.0018577638109833026
58.249,0.004500081534218699
58.25,0.006651779043846039
58.251,0.008067258079020968
58.251999999999995,0.008610240724888002
58.253,0.008227628984304798
58.254,0.006931109056080944
58.254999999999995,0.004795540586316178
58.256,0.001970767722676269
58.257,0.0013056332212056496
58.257999999999996,0.004709712629776316
58.259,0.007857258532124548
58.26,0.010356161216533703
58.260999999999996,0.011876287744024813
58.262,0.012220392142248987
58.263,0.011376776679805883
58.263999999999996,0.009537185010681935
58.265,0.0070707999961466175
58.266,0.004455274940844465
58.266999999999996,0.002176155708047546
58.268,0.0006147283253784461
58.269,5.0491984156914954e-05
58.269999999999996,9.694790432753426e-05
58.271,0.000711663496416943
58.272,0.0012554796955958078
58.272999999999996,0.0011290367992070837
58.274,0.00015778852186069492
58.275,0.002815618718920856
58.275999999999996,0.006652481492749151
58.277,0.011041457340874977
58.278,0.01500577119344103
58.278999999999996,0.017419600595789092
58.28,0.017288995494878983
58.281,0.014047341597333911
58.282,0.007783908830077589
58.283,0.0006701373367256644
58.284,0.00984427454342759
58.285,0.01791763229109116
58.286,0.02313792496720351
58.287,0.024268906939240213
58.288,0.020944845030974202
58.289,0.013824379991246473
58.29,0.004483563663361697
58.291,0.004942259222239599
58.292,0.01228495995402752
58.293,0.01590149384008568
58.294,0.015108678707229256
58.295,0.010367785280307134
58.296,0.0031584910023843503
58.297,0.004430335298751709
58.298,0.010282044824552054
58.299,0.012841380507769054
58.3,0.01154104853759566
58.301,0.006940407385214306
58.302,0.0005348353251778285
58.303,0.005707719671231482
58.304,0.009944196975572668
58.305,0.011007998901301011
58.306,0.008748240061594702
58.307,0.004054731325488857
58.308,0.0014371044097274996
58.309,0.005868953057554915
58.31,0.007747663846150262
58.311,0.006416627969677814
58.312,0.0022651365301674534
58.313,0.0033880181335681587
58.314,0.008699390448288484
58.315,0.011867954183617323
58.315999999999995,0.01168903057485172
58.317,0.007925357301275799
58.318,0.0013837643587616972
58.318999999999996,0.006322099993233099
58.32,0.013245904166798675
58.321,0.01767144099915554
58.321999999999996,0.018592112493301734
58.323,0.01596509973814976
58.324,0.010671516652074471
58.324999999999996,0.004206477979998047
58.326,0.0017945431312562895
58.327,0.006040070702778641
58.327999999999996,0.007927586341017073
58.329,0.007649041311669994
58.33,0.006036828614166384
58.330999999999996,0.004213674725446144
58.332,0.0031702998266992465
58.333,0.0034132960505532345
58.333999999999996,0.00479774060671073
58.335,0.006594897954484831
58.336,0.007766635847487053
58.336999999999996,0.00735066440437151
58.338,0.004825918909628145
58.339,0.0003357907646860035
58.339999999999996,0.00530523005571606
58.341,0.010824894220516646
58.342,0.014859011161043096
58.342999999999996,0.01635420159795035
58.344,0.014881673300606637
58.345,0.010765819724075611
58.346,0.004990789706627882
58.347,0.0010824151264931612
58.348,0.006098483345870046
58.349,0.009072649589527618
58.35,0.009630438935223017
58.351,0.008057678063978559
58.352,0.005157099236040718
58.353,0.00196703259596194
58.354,0.0005634553075842687
58.355,0.0018413261424052106
58.356,0.0017615511215638721
58.357,0.0006751886606690899
58.358,0.0007818234931968832
58.359,0.0019322167658695408
58.36,0.0022883988675511608
58.361,0.0016968472413298164
58.362,0.00035609240684919156
58.363,0.0012864834048171648
58.364,0.0027136333296729214
58.365,0.003525436449186682
58.366,0.0035693230359116032
58.367,0.0029720000899291655
58.368,0.002069366038835036
58.369,0.0012666380842152767
58.37,0.0008836270366313369
58.371,0.001042083258484851
58.372,0.0016335792417988852
58.373,0.002374976106984568
58.374,0.0029259695785237533
58.375,0.003021372903797531
58.376,0.0025673103424317814
58.376999999999995,0.0016661480382641788
58.378,0.0005635405059671756
58.379,0.000458486427314715
58.379999999999995,0.0011975229191471186
58.381,0.0016075160253839005
58.382,0.0018035252084952554
58.382999999999996,0.0019906623219956227
58.384,0.0023448220932675108
58.385,0.00289471792876903
58.385999999999996,0.003458230023708123
58.387,0.0036687987679750443
58.388,0.0030948493405318555
58.388999999999996,0.0014183293112935305
58.39,0.0013891212350369715
58.391,0.004961152916114902
58.391999999999996,0.008554384808064726
58.393,0.011202719449740646
58.394,0.011975939669720305
58.394999999999996,0.010270673098157875
58.396,0.006043076451773301
58.397,9.747525816321041e-05
58.397999999999996,0.006977175159557055
58.399,0.01311853293531736
58.4,0.01710842208625769
58.400999999999996,0.017971883744870142
58.402,0.0154430964444406
58.403,0.010051142949872388
58.403999999999996,0.002990625326654608
58.405,0.004189789288239052
58.406,0.009993476895417358
58.407,0.013360522137354633
58.408,0.013920995626326217
58.409,0.012046292477952785
58.41,0.008688664380385097
58.411,0.005062423003655079
58.412,0.0022668266982825026
58.413,0.000966159704642861
58.414,0.0012224325532772323
58.415,0.0025269951265362908
58.416,0.004014644052911802
58.417,0.004787082285234415
58.418,0.004239367777928369
58.419,0.002283330537530096
58.42,0.0006045855119210025
58.421,0.0035276467210216354
58.422,0.005460958759715012
58.423,0.005599923232922853
58.424,0.0036546778625857483
58.425,4.776675579711858e-06
58.426,0.004403770042227833
58.427,0.0082093868848144
58.428,0.010101169503316665
58.429,0.009160700294473623
58.43,0.005166916405055299
58.431,0.0012908789010922627
58.432,0.00891976490148587
58.433,0.01602574416763906
58.434,0.02093333720354654
58.435,0.022410718013140974
58.436,0.019987007779667644
58.437,0.014077523989943266
58.438,0.005884575706883857
58.439,0.0028986700346857104
58.44,0.010502040572813976
58.440999999999995,0.015501082370190208
58.442,0.017139766836035446
58.443,0.015473239950075964
58.443999999999996,0.01130025597132407
58.445,0.005911392964100755
58.446,0.0007271607779685629
58.446999999999996,0.0030730915193543616
58.448,0.004831811016658273
58.449,0.004532173550518613
58.449999999999996,0.002731353774411031
58.451,0.0003369327439620193
58.452,0.0017013485573898514
58.452999999999996,0.0026903745657865337
58.454,0.0023945225609293473
58.455,0.0010815841503755382
58.455999999999996,0.0005953350854182983
58.457,0.0018386968967067001
58.458,0.001991310003587943
58.458999999999996,0.0007726620078487222
58.46,0.0016103907731999745
58.461,0.004516187195917257
58.461999999999996,0.007069497766090019
58.463,0.008448150808232099
58.464,0.008162107759104998
58.464999999999996,0.0062315497994784455
58.466,0.003200452435557202
58.467,2.597150888493284e-05
58.467999999999996,0.0024735628058128642
58.469,0.003429325262183402
58.47,0.002699917712013568
58.471,0.0007067781054034994
58.472,0.0016248442448448864
58.473,0.0031596002698705346
58.474,0.0029426930199312187
58.475,0.0005634924450761014
58.476,0.003631809075469172
58.477,0.008561822694017446
58.478,0.012678767011834891
58.479,0.014418092753908868
58.48,0.012699527358734005
58.481,0.0073245082065874914
58.482,0.0008629098219956428
58.483,0.010119127325333654
58.484,0.01822515361952874
58.485,0.023080931437928352
58.486,0.023301001641726573
58.487,0.01863427336177738
58.488,0.010076415090362287
58.489,0.00036889590287819115
58.49,0.010219665605016432
58.491,0.01718741821359387
58.492,0.019796855851546866
58.493,0.017771603334617903
58.494,0.01207228571342446
58.495,0.004576643641623192
58.496,0.002500967526918799
58.497,0.007274576486362856
58.498,0.008734594735749023
58.499,0.007013567392797271
58.5,0.0032915077807424585
58.501,0.0006260874512609412
58.501999999999995,0.002923303258213459
58.503,0.0023880236137429787
58.504,0.0011682733862797912
58.504999999999995,0.0068183144789787185
58.506,0.01278576213013612
58.507,0.016990442879433954
58.507999999999996,0.017704523863543833
58.509,0.014116599614830482
58.51,0.006627782084009872
58.510999999999996,0.003214717911994403
58.512,0.013130443088659537
58.513,0.020743125005506166
58.513999999999996,0.02425230740932191
58.515,0.022938331261859516
58.516,0.017350526777957564
58.516999999999996,0.00912452434376419
58.518,0.0004865792470820439
58.519,0.006403441790456367
58.519999999999996,0.010071607061380347
58.521,0.010126625976681864
58.522,0.00731784599157949
58.522999999999996,0.003242747974923064
58.524,0.00020102669475013978
58.525,0.0014469314228680702
58.525999999999996,0.00022240207062768812
58.527,0.004431028324756813
58.528,0.009815750587331912
58.528999999999996,0.014451041511563342
58.53,0.016463451533839987
58.531,0.01464727684149027
58.532,0.00889131323336874
58.533,0.0002820909850365266
58.534,0.009154574849336947
58.535,0.017003430555159113
58.536,0.021142690205393194
58.537,0.020360336352591667
58.538,0.014721921848833351
58.539,0.005579659304515258
58.54,0.0047830269020367
58.541,0.013771084547977566
58.542,0.019184442859438787
58.543,0.019809874939968993
58.544,0.01573076508279538
58.545,0.008270450928172687
58.546,0.0004084052205151936
58.547,0.007927109874036855
58.548,0.012353741771164016
58.549,0.012715229403317105
58.55,0.009217372743408718
58.551,0.0031208226722887395
58.552,0.00367664843016579
58.553,0.009216878261963296
58.554,0.012040851858023689
58.555,0.011567648882234842
58.556,0.008191063093010036
58.557,0.0030823302218710644
58.558,0.002222598995085863
58.559,0.006310910286335232
58.56,0.008300190907783259
58.561,0.00804375486031434
58.562,0.006084065980289476
58.563,0.003388461364023334
58.564,0.0009705571378673661
58.565,0.0004672400398872198
58.565999999999995,0.0007491657553668444
58.567,0.00023322636134542516
58.568,0.0003809105388383803
58.568999999999996,0.00036444884941144604
58.57,0.00072675034133712
58.571,0.0028538562285461656
58.571999999999996,0.0054852145725737675
58.573,0.007778701603558478
58.574,0.008889879617401706
58.574999999999996,0.008293291654809111
58.576,0.005998289203774827
58.577,0.0025774195086386265
58.577999999999996,0.001008135194080222
58.579,0.003728646271691519
58.58,0.004840513767989458
58.580999999999996,0.0041497591712034935
58.582,0.0020882728447229344
58.583,0.00042883631042261246
58.583999999999996,0.002319562070909776
58.585,0.002717395277321097
58.586,0.001286610429445987
58.586999999999996,0.0016418697062099204
58.588,0.005165574799418348
58.589,0.008108115705031062
58.589999999999996,0.009419488838628547
58.591,0.00854154946544064
58.592,0.00561097835544972
58.592999999999996,0.0014266535399807567
58.594,0.0028107699535674198
58.595,0.005899985776050037
58.596,0.007043809600319884
58.597,0.00611767293976474
58.598,0.0037076729925562533
58.599,0.0009029728315121369
58.6,0.001087667951387262
58.601,0.0013639459465369737
58.602,0.0003411117606663111
58.603,0.003552647546375846
58.604,0.007201156888701676
58.605,0.009976905413983092
58.606,0.010771841183468548
58.607,0.009059116812574706
58.608,0.005081711273224991
58.609,0.0002129838769804384
58.61,0.005469148422546081
58.611,0.009347826336911213
58.612,0.010938044477579045
58.613,0.010017799389297647
58.614,0.007082939766623054
58.615,0.00314297470870871
58.616,0.0006377560154003
58.617,0.0033249269627834135
58.618,0.0044924106655842636
58.619,0.004303573930247647
58.62,0.003378346423963991
58.621,0.0025054776507232985
58.622,0.0023125870255677893
58.623,0.0030177394840434526
58.624,0.004352296387892809
58.625,0.0056789636086150945
58.626,0.006255847463783018
58.626999999999995,0.0055437493987530425
58.628,0.0034391861785198607
58.629,0.00034457003533890437
58.629999999999995,0.0029515824875678423
58.631,0.0055406301322202
58.632,0.0067080665042819326
58.632999999999996,0.006180670267490087
58.634,0.004216504297380408
58.635,0.0015062154042705994
58.635999999999996,0.0010761671957726193
58.637,0.0027796901849235275
58.638,0.003226988437231124
58.638999999999996,0.0025180469231690585
58.64,0.001152623680072744
58.641,0.00019439424777600465
58.641999999999996,0.0009548563236907821
58.643,0.0008953207659151784
58.644,0.00020126820876613169
58.644999999999996,0.0006162997285759675
58.646,0.0009559363181524698
58.647,0.0004094406780793055
58.647999999999996,0.001021227795659214
58.649,0.002867358846354033
58.65,0.004331825811237776
58.650999999999996,0.00458212319873028
58.652,0.003094954946357821
58.653,7.76716728748885e-05
58.653999999999996,0.004230252044452816
58.655,0.008160432129882777
58.656,0.010524398737436595
58.657,0.010280706312234303
58.658,0.007073962602112874
58.659,0.0014224082311842584
58.66,0.005365897653273683
58.661,0.011534748351079297
58.662,0.015379022128896126
58.663,0.015746460860755686
58.664,0.012383469468581279
58.665,0.006015691327381866
58.666,0.001860435916521824
58.667,0.00940633944642639
58.668,0.014952889452429272
58.669,0.017435830872466442
58.67,0.016627159008300297
58.671,0.013106502525673204
58.672,0.008003520957129586
58.673,0.0026140022460637577
58.674,0.0019751311865426765
58.675,0.005132612270244634
58.676,0.006738264552522707
58.677,0.007058082548394162
58.678,0.006514299875267879
58.679,0.005457202811064971
58.68,0.004033846723581623
58.681,0.0022005563743147274
58.682,0.0001388303181203616
58.683,0.002942632093891362
58.684,0.005886894043777992
58.685,0.008348182262358905
58.686,0.00954350993192356
58.687,0.008790948976222969
58.688,0.005799142012242708
58.689,0.0008718608536393114
58.69,0.005064975592776254
58.690999999999995,0.01064796272671033
58.692,0.014431442604629165
58.693,0.01530745494671118
58.693999999999996,0.012854552623370735
58.695,0.0074965495021681264
58.696,0.00041154893053510635
58.696999999999996,0.00678669888931008
58.698,0.012497263846171952
58.699,0.015569182306710871
58.699999999999996,0.015590652080991868
58.701,0.012944443794503303
58.702,0.00862290496958486
58.702999999999996,0.0038757065521387553
58.704,0.0001840249404563558
58.705,0.0028822166213172055
58.705999999999996,0.0041014318019460955
58.707,0.004190912358241812
58.708,0.003722645069350447
58.708999999999996,0.003200582992978404
58.71,0.0028419117223615416
58.711,0.002515607704387181
58.711999999999996,0.0018577537506142786
58.713,0.0005103485108503515
58.714,0.0016215164905453295
58.714999999999996,0.004210116067432011
58.716,0.0065241916923173
58.717,0.007639154699171175
58.717999999999996,0.006773996491831983
58.719,0.003634341910090587
58.72,0.0013722609607022677
58.721,0.007146280415274308
58.722,0.012153755228366685
58.723,0.014865783065851767
58.724,0.014244476998468876
58.725,0.010114193714722157
58.726,0.0032861070503896117
58.727,0.004619658036750033
58.728,0.011611868179131665
58.729,0.015896251702324074
58.73,0.016397728126357106
58.731,0.013071885511628842
58.732,0.0069065744668633374
58.733,0.0003865308406550892
58.734,0.0068911747293222796
58.735,0.011050614027739616
58.736,0.012098631023952927
58.737,0.010225924624649711
58.738,0.006439138141127365
58.739,0.0021709400069276886
58.74,0.0012207675995497694
58.741,0.0028944720724066245
58.742,0.0027629723044829955
58.743,0.0014563288976461855
58.744,3.395405401236622e-05
58.745,0.00044518755157542286
58.746,0.0006605536472169207
58.747,0.003318465390430307
58.748,0.006813132920895822
58.749,0.009988216605170951
58.75,0.01165304788216847
58.751,0.011012253633228832
58.752,0.007969104093536891
58.753,0.0031966442675979974
58.754,0.0020503725529560954
58.754999999999995,0.006322206657690242
58.756,0.008432363943545693
58.757,0.007836535200862568
58.757999999999996,0.004808069419143055
58.759,0.00035321960675079955
58.76,0.004105268928027489
58.760999999999996,0.007172777974330156
58.762,0.00791215357495749
58.763,0.006121526360850135
58.763999999999996,0.0023756319509843278
58.765,0.002176704500479975
58.766,0.006188008733077333
58.766999999999996,0.008536133873907633
58.768,0.008660366827290161
58.769,0.006705523321180112
58.769999999999996,0.003434846531902201
58.771,5.1686766752482225e-05
58.772,0.002695206350995846
58.772999999999996,0.0038252174714451517
58.774,0.003363164772010444
58.775,0.0018191762167173416
58.775999999999996,8.829775716726886e-05
58.777,0.0008815217699154972
58.778,0.00043623550437616614
58.778999999999996,0.0015397236455651966
58.78,0.004563439013378874
58.781,0.007699202008316864
58.782,0.00986324089357503
58.783,0.01018834002647236
58.784,0.008328771941068404
58.785,0.004604040242454249
58.786,6.927251692131379e-05
58.787,0.0044408443745829005
58.788,0.007305713248225619
58.789,0.0078815163263983
58.79,0.006064762782261683
58.791,0.002482984788204232
58.792,0.0016779462917862035
58.793,0.005022384103098352
58.794,0.006365145249115877
58.795,0.005095699415891147
58.796,0.001374413979443228
58.797,0.0039004407906079322
58.798,0.009346256180912024
58.799,0.013493826447249738
58.8,0.015208511159452074
58.801,0.014007087173678845
58.802,0.010175412219459582
58.803,0.004654618077798564
58.804,0.001263729067427837
58.805,0.006333298890493982
58.806,0.00971171677826011
58.807,0.011168296292210216
58.808,0.011077702980489226
58.809,0.01020832239730622
58.81,0.00938338248930995
58.811,0.009136470565216284
58.812,0.009485880020911318
58.813,0.009912360581583946
58.814,0.009554744726961776
58.815,0.007560592949392135
58.815999999999995,0.0034706874084889823
58.817,0.0025023374374234853
58.818,0.009411669754071067
58.818999999999996,0.015771581516827896
58.82,0.019964360132806933
58.821,0.02073674909054256
58.821999999999996,0.01762503134389505
58.823,0.011161787824223184
58.824,0.0027817731189520773
58.824999999999996,0.005560039960932443
58.826,0.011949143844235451
58.827,0.015077613861627641
58.827999999999996,0.014633026104478503
58.829,0.011378562886104658
58.83,0.006889515065104933
58.830999999999996,0.0030234703982797814
58.832,0.001291950125028535
58.833,0.002339107387178064
58.833999999999996,0.005703824630527813
58.835,0.009952621562351128
58.836,0.01314992586050374
58.836999999999996,0.013518782231901885
58.838,0.010077066108245407
58.839,0.0030357519058334466
58.839999999999996,0.006181752358550782
58.841,0.015318944589492626
58.842,0.02195301563223573
58.842999999999996,0.024240446937269077
58.844,0.02150201549693853
58.845,0.01445526360458559
58.846,0.0050139272160247645
58.847,0.004286593040300601
58.848,0.01105667487454257
58.849,0.013768040835655389
58.85,0.012188829283724664
58.851,0.0074009456625126965
58.852,0.0013992486544232498
58.853,0.0035909477361428708
58.854,0.005850080878414955
58.855,0.0047108137168152256
58.856,0.0007370987564496574
58.857,0.004516957375186513
58.858,0.009079294368964774
58.859,0.011262997572925714
58.86,0.010257533731050839
58.861,0.006405571159741514
58.862,0.0010720770941684164
58.863,0.003846661440830716
58.864,0.0066020110730662315
58.865,0.00622265062293378
58.866,0.002874116894063883
58.867,0.0021797399877497743
58.868,0.007003890605497912
58.869,0.00966334779691503
58.87,0.00890797382048165
58.871,0.004633304393436029
58.872,0.0020453426504182665
58.873,0.009136636832654048
58.874,0.014422581766274279
58.875,0.01619501677351702
58.876,0.0138288328222338
58.877,0.00799513577538171
58.878,0.0004392233877389506
58.879,0.006603342978132626
58.879999999999995,0.011154779642438314
58.881,0.012151738228481156
58.882,0.009784568007870366
58.882999999999996,0.005400562900067611
58.884,0.0010018559911479069
58.885,0.0014908788924679246
58.885999999999996,0.0009542409292407223
58.887,0.0024945032087441876
58.888,0.007489122544471475
58.888999999999996,0.011857263945474887
58.89,0.013375389366643698
58.891,0.01058563290728736
58.891999999999996,0.0033954868497269412
58.893,0.006754322427275779
58.894,0.017230516475939373
58.894999999999996,0.024966542071921994
58.896,0.027409632113309653
58.897,0.02335657092185774
58.897999999999996,0.01340672320310573
58.899,0.00012338840743701232
58.9,0.01381234701718703
58.900999999999996,0.02409572152560226
58.902,0.02828927848853711
58.903,0.025364067271010093
58.903999999999996,0.01623919088309912
58.905,0.0035057036099268774
58.906,0.009331670722942768
58.907,0.01886366114484129
58.908,0.022733465204984888
58.909,0.0202609055214484
58.91,0.012560036016489475
58.911,0.0021333116855695162
58.912,0.007917605186052345
58.913,0.014815320081603923
58.914,0.016885950049943355
58.915,0.013971633419233336
58.916,0.007374493831908843
58.917,0.0006242099308164761
58.918,0.007501297075904927
58.919,0.011249931005400197
58.92,0.010931926195548046
58.921,0.0068737126201835275
58.922,0.00047300155757705193
58.923,0.006297099545562042
58.924,0.011514669797845056
58.925,0.013867731841013736
58.926,0.012982603327957403
58.927,0.009442297732720924
58.928,0.004516485253040141
58.929,0.0002890025627169927
58.93,0.003708936742623944
58.931,0.005072812661992311
58.932,0.004438456619469641
58.933,0.002484449779081569
58.934,0.00021782577391334213
58.935,0.0013935905335534184
58.936,0.0017407153668936354
58.937,0.0007469880306844013
58.938,0.0011468428011915989
58.939,0.0031667735666695766
58.94,0.004486539774937689
58.940999999999995,0.004508805996555552
58.942,0.003057355432994802
58.943,0.00042586786993706967
58.943999999999996,0.0027223199345158965
58.945,0.005562654812534857
58.946,0.007355304576632357
58.946999999999996,0.0076522272849645166
58.948,0.0064070346212213875
58.949,0.0039632481869122365
58.949999999999996,0.0009345311625054443
58.951,0.0019793387468730952
58.952,0.004182792540639904
58.952999999999996,0.00532734897503898
58.954,0.00537256585112801
58.955,0.0045574186314531
58.955999999999996,0.003300144654790705
58.957,0.0020619080152636427
58.958,0.0012148576799176367
58.958999999999996,0.0009486122524522166
58.96,0.001234579702247482
58.961,0.0018501568835740526
58.961999999999996,0.0024498886645503808
58.963,0.0026615445282768516
58.964,0.0021828734971212336
58.964999999999996,0.0008584557144448156
58.966,0.0012767895011832054
58.967,0.003992846268353542
58.967999999999996,0.006897008996042945
58.969,0.009496769649210061
58.97,0.011283194174124695
58.971,0.011822693032703285
58.972,0.010843704620432194
58.973,0.008304160810366728
58.974,0.004426274850545669
58.975,0.00031196307411795435
58.976,0.005233566337506547
58.977,0.009564309196415982
58.978,0.012566381814566315
58.979,0.013681672855898648
58.98,0.012656359901277399
58.981,0.009617882090989772
58.982,0.0050814999273626265
58.983,0.000123772309760173
58.984,0.005003100726761719
58.985,0.008593042808067499
58.986,0.010169064223315418
58.987,0.00941749547862429
58.988,0.006529345052836839
58.989,0.002187315762999776
58.99,0.0025602155991312193
58.991,0.006518182929178337
58.992,0.0086126280956147
58.993,0.008147599627274738
58.994,0.004989220254660793
58.995,0.0003719906251806847
58.996,0.006903065321303481
58.997,0.01324315752210484
58.998,0.01800532710649034
58.999,0.020095673907568817
59.0,0.01897196998367269
59.001,0.014775752247216646
59.002,0.008301615489222695
59.003,0.0008082622819876332
59.004,0.006282768160287234
59.004999999999995,0.011724190918106291
59.006,0.014728575657703698
59.007,0.01512797361156017
59.007999999999996,0.013366847596477303
59.009,0.0103333951332899
59.01,0.00707945605729393
59.010999999999996,0.00451052173276631
59.012,0.003135444302540406
59.013,0.0029474099570908673
59.013999999999996,0.0034684485902063264
59.015,0.0039405999217288065
59.016,0.0036025160189721668
59.016999999999996,0.0019642951570738843
59.018,0.0010060897334067567
59.019,0.004844116765617562
59.019999999999996,0.008711252445914247
59.021,0.01164171408645665
59.022,0.012837172046359794
59.022999999999996,0.011917385967830011
59.024,0.00904780566825261
59.025,0.004903125503260465
59.025999999999996,0.000476894024645375
59.027,0.003204510518780904
59.028,0.005375203835405374
59.028999999999996,0.005739852223873978
59.03,0.004536268143217395
59.031,0.002433009706643691
59.032,0.0002965646753627939
59.033,0.0010963380382670892
59.034,0.0013089897760950912
59.035,0.0003779744923024913
59.036,0.0012120581808056116
59.037,0.002702551019139384
59.038,0.0033268639992072102
59.039,0.00258140827702784
59.04,0.000414378823254793
59.041,0.0027290743703898735
59.042,0.006020705977669672
59.043,0.0084874552703402
59.044,0.009300966946390212
59.045,0.008030040176482242
59.046,0.004780206073604394
59.047,0.00018013938667519965
59.048,0.004778658342116315
59.049,0.008999386674215192
59.05,0.011558850575760138
59.051,0.011929582948048056
59.052,0.010088017804680475
59.053,0.006487906087322216
59.054,0.001917669763554641
59.055,0.0027092468154324813
59.056,0.006569112315956985
59.057,0.009092502364991551
59.058,0.010045350455714306
59.059,0.009521239758573066
59.06,0.007864505123836662
59.061,0.005557800196611008
59.062,0.003108588221406311
59.063,0.0009590195898862955
59.064,0.0005711391045105546
59.065,0.0013116859925468962
59.065999999999995,0.0012485305227546055
59.067,0.0005172333204325562
59.068,0.0006153351677916507
59.068999999999996,0.001786358327565897
59.07,0.0025957839111347327
59.071,0.0026886115266165685
59.071999999999996,0.0018493063117550708
59.073,8.471525777314837e-05
59.074,0.00233436883360256
59.074999999999996,0.004898214738838191
59.076,0.006958495425433749
59.077,0.007888498870455573
59.077999999999996,0.007263797340966265
59.079,0.005009649170954691
59.08,0.0014637582341003807
59.080999999999996,0.002676275488740848
59.082,0.0065173711948990016
59.083,0.009206775237154515
59.083999999999996,0.010171532481155612
59.085,0.009286881667398229
59.086,0.006916327449582101
59.086999999999996,0.0038041312980797827
59.088,0.0008479756544587219
59.089,0.001179827175282056
59.089999999999996,0.0018741860731597282
59.091,0.001322252555644866
59.092,6.731735628550923e-05
59.092999999999996,0.0010808305572402822
59.094,0.0013301865175751853
59.095,0.0001931854099190206
59.096,0.002320079944443392
59.097,0.005669458261038534
59.098,0.008928818839891214
59.099,0.011064100431909857
59.1,0.011257637994637035
59.101,0.009174324705646077
59.102,0.005082914481936669
59.103,0.0002075405897675698
59.104,0.0055759490746811
59.105,0.009908485830447443
59.106,0.01240652860181805
59.107,0.012786402973375246
59.108,0.011311963806078561
59.109,0.008657981335197785
59.11,0.005658636493582939
59.111,0.003031789794909962
59.112,0.001173782867331393
59.113,9.046015741318803e-05
59.114,0.0005213492306617128
59.115,0.0010828206270561468
59.116,0.0019125398165630643
59.117,0.0030651269890728237
59.118,0.004293489844060526
59.119,0.005150481280534904
59.12,0.005190769948762887
59.121,0.004192853403815089
59.122,0.0023098885602190204
59.123,8.13046277865037e-05
59.124,0.001712673661549926
59.125,0.0023121658833859682
59.126,0.0012661633492995065
59.127,0.0013565186617587068
59.128,0.004918011196181019
59.129,0.008355659143860439
59.129999999999995,0.010485091405907329
59.131,0.010369889069774641
59.132,0.007637706734512358
59.132999999999996,0.0026351486199208515
59.134,0.003636485821787981
59.135,0.009791402222800963
59.135999999999996,0.014453792053813164
59.137,0.016652466826106736
59.138,0.016089960453767368
59.138999999999996,0.013200828341735804
59.14,0.0089829787447185
59.141,0.00466047986400051
59.141999999999996,0.0012911916715450387
59.143,0.0005507922593748018
59.144,0.000915074987010868
59.144999999999996,0.0003959962395443865
59.146,0.00013166422112504504
59.147,0.00013374351034493658
59.147999999999996,0.0016029529850029145
59.149,0.004124719999753938
59.15,0.007020457872022764
59.150999999999996,0.009311899773153129
59.152,0.010062559880876558
59.153,0.008715034454748376
59.153999999999996,0.00530821283876507
59.155,0.0005000390017662795
59.156,0.004612188095840441
59.157,0.008813896397255931
59.158,0.011131032282877361
59.159,0.011107224863871643
59.16,0.008913698603954114
59.161,0.005263276043696085
59.162,0.0011654762495371782
59.163,0.0023895786996574837
59.164,0.004711828971378281
59.165,0.005568103599956852
59.166,0.00517427380019286
59.167,0.004041091176292858
59.168,0.0027416525524542354
59.169,0.0016912945452265229
59.17,0.0010198154285490661
59.171,0.0005765089802614159
59.172,5.593568166763521e-05
59.173,0.0008136586010775555
59.174,0.0021000262197244475
59.175,0.003586861937059571
59.176,0.0048200553092642906
59.177,0.005266491955311369
59.178,0.004526880679841465
59.179,0.0025211194528279393
59.18,0.00042778905747002893
59.181,0.003649858543632056
59.182,0.006312359702933395
59.183,0.007673034292227091
59.184,0.0073164449190735005
59.185,0.005291366138811064
59.186,0.0021002493801590616
59.187,0.0014573241637406101
59.188,0.004534687055165317
59.189,0.0064967668752811585
59.19,0.007099955787607978
59.190999999999995,0.006533795123896142
59.192,0.005313871750449543
59.193,0.0040674968916251
59.193999999999996,0.0032908694031253756
59.195,0.003165457370593385
59.196,0.0034992020589769625
59.196999999999996,0.0038128302118812
59.198,0.0035391944849395116
59.199,0.002262714084654192
59.199999999999996,8.891049518951651e-05
59.201,0.0031722515681227126
59.202,0.0063048151427573555
59.202999999999996,0.008668187917802918
59.204,0.00957022158561675
59.205,0.008677256417532303
59.205999999999996,0.006136588223616734
59.207,0.002546095270808802
59.208,0.0012205729645177528
59.208999999999996,0.004276318446906414
59.21,0.005984489601508191
59.211,0.006138596187779559
59.211999999999996,0.005001064826775503
59.213,0.0031918030523443793
59.214,0.0014671066810262887
59.214999999999996,0.00046463427083894053
59.216,0.0004992733187965714
59.217,0.0014753095784790535
59.217999999999996,0.0029396460817752434
59.219,0.004253138942162467
59.22,0.0048186172055268515
59.221,0.00428744633924454
59.222,0.002676454305468715
59.223,0.00035940592780812154
59.224,0.0020596605499980923
59.225,0.003944872232472012
59.226,0.004830318168044704
59.227,0.004558433941835689
59.228,0.0033120457565370457
59.229,0.001534296811531378
59.23,0.00023182228067386947
59.231,0.0015272852270762046
59.232,0.0021218598028583924
59.233,0.002073273948806402
59.234,0.0016844550334696674
59.235,0.001377041632591047
59.236,0.0015263485005809541
59.237,0.0023140044691906904
59.238,0.0036467998797226017
59.239,0.00516735080234443
59.24,0.006352212275030636
59.241,0.006665989359467049
59.242,0.005724128543123773
59.243,0.0034165682410851115
59.244,4.174398243472047e-05
59.245,0.004144721657106463
59.246,0.008200674025184877
59.247,0.011478808709923845
59.248,0.013358592596579372
59.249,0.013447743000754723
59.25,0.011646970585136595
59.251,0.008155425876080778
59.252,0.0034249107953347874
59.253,0.0019203628344837817
59.254,0.007179518373035393
59.254999999999995,0.011670411414571336
59.256,0.014814377416489999
59.257,0.016205045832009445
59.257999999999996,0.015658486471912876
59.259,0.013241796576836407
59.26,0.009275706604119032
59.260999999999996,0.0043060177182286195
59.262,0.0009594321142288589
59.263,0.005746328855404196
59.263999999999996,0.009332282313309957
59.265,0.011170364174591815
59.266,0.010994617681224344
59.266999999999996,0.008883861097883061
59.268,0.0052656600130387135
59.269,0.0008533155567572633
59.269999999999996,0.003477190629796265
59.271,0.006849477267806072
59.272,0.008557266146202823
59.272999999999996,0.00820828972836287
59.274,0.0058105591228349955
59.275,0.0017807591779736233
59.275999999999996,0.0031297739473509856
59.277,0.0079787532175881
59.278,0.011818394261731554
59.278999999999996,0.013884952333518582
59.28,0.013752671309066867
59.281,0.011418976298004736
59.282,0.0073017334100124965
59.283,0.002148175592025895
59.284,0.003125305270006781
59.285,0.007627318958239009
59.286,0.0106760006721489
59.287,0.0119319189864709
59.288,0.011449180920208439
59.289,0.009634107311180798
59.29,0.007123566071675451
59.291,0.004615143439884907
59.292,0.0026933663792938476
59.293,0.001696631956494337
59.294,0.0016578901476918774
59.295,0.0023314190417258315
59.296,0.0032939313627184806
59.297,0.004087656148843293
59.298,0.004362005570650735
59.299,0.003972289532515867
59.3,0.003008147967091915
59.301,0.0017465924323340656
59.302,0.0005479067481958621
59.303,0.00027013268520799605
59.304,0.0005385557578075304
59.305,0.0002903522331094919
59.306,0.00025506372736023924
59.307,0.0007688941324158313
59.308,0.0009244722049262922
59.309,0.0005057294219633553
59.31,0.0005227485251260484
59.311,0.0020056081318428837
59.312,0.0036474837780848626
59.313,0.005105296254633493
59.314,0.006089750290065417
59.315,0.006442177804728386
59.315999999999995,0.006163072931250305
59.317,0.005386676119280439
59.318,0.004315210489340792
59.318999999999996,0.003139957186760054
59.32,0.001979528090809935
59.321,0.0008575415790172674
59.321999999999996,0.00027433933609591484
59.323,0.0014802080881352842
59.324,0.0027759719758303335
59.324999999999996,0.004086336987805858
59.326,0.005243374490572856
59.327,0.0060309522513490215
59.327999999999996,0.006260691918171096
59.329,0.005851323297987571
59.33,0.004879776029008886
59.330999999999996,0.003580818459121985
59.332,0.0022898303783485618
59.333,0.00134414153030982
59.333999999999996,0.0009746949625716353
59.335,0.0012254122752625887
59.336,0.0019300490393273854
59.336999999999996,0.002757738217875621
59.338,0.003315065612373078
59.339,0.0032725363883212865
59.339999999999996,0.0024738360818957355
59.341,0.000990976003839607
59.342,0.0008940514960835889
59.342999999999996,0.002775933188066764
59.344,0.004252668830377665
59.345,0.005050092629252974
59.346,0.005102731791191529
59.347,0.0045642057117778086
59.348,0.003744339859396015
59.349,0.0029951268519748863
59.35,0.002585013529686473
59.351,0.002604751601786693
59.352,0.0029369537838540086
59.353,0.003299426625261748
59.354,0.0033469692273888204
59.355,0.0027964010901676806
59.356,0.0015319280787217749
59.357,0.000344918983014747
59.358,0.0025372670556665037
59.359,0.004638687081591214
59.36,0.006253272551241616
59.361,0.007109632383254511
59.362,0.007131606724277687
59.363,0.006444332396252338
59.364,0.005316946893163238
59.365,0.0040646817864181195
59.366,0.002945923754770175
59.367,0.0020897907983601733
59.368,0.0014772896365304188
59.369,0.0009789798348831097
59.37,0.00043165200853060806
59.371,0.00027687926841090136
59.372,0.0011475613335008722
59.373,0.002057016324151321
59.374,0.0027960186764980073
59.375,0.0031446568430250365
59.376,0.0029558257554026736
59.377,0.0022158625234853825
59.378,0.001059784379598669
59.379,0.0002646345319271987
59.379999999999995,0.0014710596303226706
59.381,0.0023204983944469125
59.382,0.0026885656382254408
59.382999999999996,0.0025911376479557423
59.384,0.0021610772208498453
59.385,0.0015867837193301972
59.385999999999996,0.0010371073338894803
59.387,0.0006015965281486093
59.388,0.0002685430409271847
59.388999999999996,5.167154421175236e-05
59.39,0.00046822306305315854
59.391,0.0010407331638295765
59.391999999999996,0.0017284554352733747
59.393,0.002380536823975316
59.394,0.0027749093402112536
59.394999999999996,0.002694689473757585
59.396,0.002015693222568637
59.397,0.0007725676263915783
59.397999999999996,0.0008233624972260807
59.399,0.0024257662362921367
59.4,0.0036452801757730427
59.400999999999996,0.00416444108086437
59.402,0.003838863064258433
59.403,0.002750810299229832
59.403999999999996,0.0011957084136211907
59.405,0.0003966301492342675
59.406,0.0015832762417058478
59.407,0.0020353640491617485
59.408,0.0016325773252850895
59.409,0.0004966760513595619
59.41,0.0010450516964886501
59.411,0.002553961200927547
59.412,0.0036024393204007943
59.413,0.0038880332110026086
59.414,0.003307460194217989
59.415,0.001972798479497186
59.416,0.00017067072955751457
59.417,0.0017182179671479997
59.418,0.00331245491016803
59.419,0.004309656836076052
59.42,0.004534636266522968
59.421,0.003951133525773106
59.422,0.002644556727291868
59.423,0.0007902760912370278
59.424,0.0013781123726566806
59.425,0.0035924818654549722
59.426,0.005566777212512219
59.427,0.007014643156073951
59.428,0.007677885877127664
59.429,0.007370587945219578
59.43,0.006033851442484917
59.431,0.0037856487920205615
59.432,0.0009441034011659786
59.433,0.001995540525312646
59.434,0.004439089885989765
59.435,0.005818304571234775
59.436,0.005736033395331892
59.437,0.004092712403648762
59.438,0.0011539755018837778
59.439,0.002469256914061813
59.44,0.005934525952558907
59.440999999999995,0.008354838248134511
59.442,0.009015035698704307
59.443,0.0075615114754485025
59.443999999999996,0.004112799752172472
59.445,0.0007424225647221116
59.446,0.006063942863733492
59.446999999999996,0.010767779362816091
59.448,0.013871354437642777
59.449,0.014714313531048104
59.449999999999996,0.013100356990844254
59.451,0.009327418240726002
59.452,0.0041036622782752484
59.452999999999996,0.0016237906618447571
59.454,0.006880104611060057
59.455,0.010860455406078866
59.455999999999996,0.013069524923039895
59.457,0.013377896387997058
59.458,0.011994622368608885
59.458999999999996,0.009376191693547682
59.46,0.006104202315430956
59.461,0.0027650000595866964
59.461999999999996,0.00014405237783354964
59.463,0.002270674760920998
59.464,0.0034283389667511925
59.464999999999996,0.0035919549654091485
59.466,0.002880367494760304
59.467,0.0015330096112854792
59.467999999999996,0.00011876555052889478
59.469,0.0016901960144309735
59.47,0.0027961637553738285
59.471,0.0031181321674328463
59.472,0.002475512123417411
59.473,0.0008838067966956041
59.474,0.0014213332491433668
59.475,0.004010426881826995
59.476,0.00634080963808099
59.477,0.007878775108067577
59.478,0.008234642696545936
59.479,0.007273436795778003
59.48,0.005166222837319589
59.481,0.002361243116880068
59.482,0.0005235914267496085
59.483,0.00286118530683294
59.484,0.004185008268406836
59.485,0.0043187680676320585
59.486,0.0034261065410999565
59.487,0.0019628148307862902
59.488,0.0005429490848207739
59.489,0.00024327178442905682
59.49,6.264292844695512e-06
59.491,0.001324438750274191
