Czas,AbsSum,Sum
145.542,0.03156031653286284,0.03156031653286284
145.543,0.006143608011545565,0.006143608011545565
145.544,0.023672673811932055,-0.023672673811932055
145.54500000000002,0.051917168852100626,-0.051917168852100626
145.54600000000002,0.07362101688392331,-0.07362101688392331
145.547,0.08552246040292089,-0.08552246040292089
145.548,0.0864883855406311,-0.0864883855406311
145.549,0.07760250419870407,-0.07760250419870407
145.55,0.06188879061910435,-0.06188879061910435
145.55100000000002,0.043681320858985684,-0.043681320858985684
145.55200000000002,0.027720834043758358,-0.027720834043758358
145.553,0.018138089617690145,-0.018138089617690145
145.554,0.017543850841801656,-0.017543850841801656
145.555,0.026452754514579402,-0.026452754514579402
145.556,0.043205098905435335,-0.043205098905435335
145.55700000000002,0.0644240102108371,-0.0644240102108371
145.55800000000002,0.08589026642892184,-0.08589026642892184
145.559,0.10358536279428454,-0.10358536279428454
145.56,0.11459574961891528,-0.11459574961891528
145.561,0.11761586514273759,-0.11761586514273759
145.562,0.11292662903400363,-0.11292662903400363
145.56300000000002,0.10191428567892513,-0.10191428567892513
145.56400000000002,0.08636353712190592,-0.08636353712190592
145.565,0.06784194099229035,-0.06784194099229035
145.566,0.047450769841329676,-0.047450769841329676
145.567,0.02605816801808969,-0.02605816801808969
145.568,0.004908301331334131,-0.004908301331334131
145.56900000000002,0.013699393100218504,0.013699393100218504
145.57000000000002,0.026058553990696787,0.026058553990696787
145.571,0.027361981599258067,0.027361981599258067
145.572,0.012774503540119442,0.012774503540119442
145.573,0.020925872429738535,-0.020925872429738535
145.574,0.07362180056137113,-0.07362180056137113
145.57500000000002,0.14067663363280702,-0.14067663363280702
145.57600000000002,0.21286644885875816,-0.21286644885875816
145.577,0.27770499627877765,-0.27770499627877765
145.578,0.32201203344796314,-0.32201203344796314
145.579,0.3351344643941735,-0.3351344643941735
145.58,0.311931545837568,-0.311931545837568
145.58100000000002,0.2545989924242946,-0.2545989924242946
145.582,0.17267123463123757,-0.17267123463123757
145.583,0.08104542905887657,-0.08104542905887657
145.584,0.003532571916878169,0.003532571916878169
145.585,0.06658106967066524,0.06658106967066524
145.586,0.09942349588296406,0.09942349588296406
145.58700000000002,0.10111393621741493,0.10111393621741493
145.588,0.07816619037223127,0.07816619037223127
145.589,0.04216802265202002,0.04216802265202002
145.59,0.006017666895286933,0.006017666895286933
145.591,0.020045078387356696,-0.020045078387356696
145.592,0.031373106632178405,-0.031373106632178405
145.59300000000002,0.029901854444463805,-0.029901854444463805
145.594,0.022913137938368466,-0.022913137938368466
145.595,0.020016453190390027,-0.020016453190390027
145.596,0.02937626914479685,-0.02937626914479685
145.597,0.05446416626369022,-0.05446416626369022
145.598,0.0924437235447414,-0.0924437235447414
145.59900000000002,0.13475614892144294,-0.13475614892144294
145.6,0.16974152480271987,-0.16974152480271987
145.601,0.1864461764550277,-0.1864461764550277
145.602,0.17835906433017334,-0.17835906433017334
145.603,0.14582686529331168,-0.14582686529331168
145.604,0.09631903053414415,-0.09631903053414415
145.60500000000002,0.042412946883186864,-0.042412946883186864
145.606,0.0018849942670839948,0.0018849942670839948
145.607,0.025320491977602888,0.025320491977602888
145.608,0.022746246934593373,0.022746246934593373
145.609,0.0034104953688138817,-0.0034104953688138817
145.61,0.04401815880338378,-0.04401815880338378
145.61100000000002,0.0861477932071949,-0.0861477932071949
145.612,0.11707132913050511,-0.11707132913050511
145.613,0.12807746537248277,-0.12807746537248277
145.614,0.11692117560443438,-0.11692117560443438
145.615,0.08819216426621468,-0.08819216426621468
145.616,0.05157376218116527,-0.05157376218116527
145.61700000000002,0.01863597459663957,-0.01863597459663957
145.618,0.0007553401825275419,0.0007553401825275419
145.619,0.0012627684873764977,0.0012627684873764977
145.62,0.01670541726212804,-0.01670541726212804
145.621,0.04765567818078664,-0.04765567818078664
145.622,0.08318897236701306,-0.08318897236701306
145.62300000000002,0.11486681003651766,-0.11486681003651766
145.624,0.13676243504069774,-0.13676243504069774
145.625,0.14687627646531054,-0.14687627646531054
145.626,0.14704436376363073,-0.14704436376363073
145.627,0.1415187174331749,-0.1415187174331749
145.628,0.1348536375766165,-0.1348536375766165
145.62900000000002,0.12993666892753386,-0.12993666892753386
145.63,0.12689723921720808,-0.12689723921720808
145.631,0.12326095131112558,-0.12326095131112558
145.632,0.11523465348434825,-0.11523465348434825
145.633,0.09958504144382041,-0.09958504144382041
145.634,0.07536236544914532,-0.07536236544914532
145.63500000000002,0.04479102624959752,-0.04479102624959752
145.636,0.012967372201117655,-0.012967372201117655
145.637,0.013549815373678165,0.013549815373678165
145.638,0.0287631627445184,0.0287631627445184
145.639,0.02915896459120737,0.02915896459120737
145.64,0.014850719834434534,0.014850719834434534
145.64100000000002,0.010451588346262364,-0.010451588346262364
145.642,0.04062338261639331,-0.04062338261639331
145.643,0.06903275969930867,-0.06903275969930867
145.644,0.09050451083169753,-0.09050451083169753
145.645,0.10267272809801753,-0.10267272809801753
145.64600000000002,0.10629174650779638,-0.10629174650779638
145.64700000000002,0.10445946703034592,-0.10445946703034592
145.648,0.10109609336570391,-0.10109609336570391
145.649,0.09927484728134406,-0.09927484728134406
145.65,0.10003121012916483,-0.10003121012916483
145.651,0.10207832767567526,-0.10207832767567526
145.65200000000002,0.10250601368016665,-0.10250601368016665
145.65300000000002,0.09817007537386635,-0.09817007537386635
145.654,0.0872230343983067,-0.0872230343983067
145.655,0.0701879418708643,-0.0701879418708643
145.656,0.05014859434053687,-0.05014859434053687
145.657,0.03195640168947733,-0.03195640168947733
145.65800000000002,0.020715701061808867,-0.020715701061808867
145.65900000000002,0.020074279952607355,-0.020074279952607355
145.66,0.03092016234421391,-0.03092016234421391
145.661,0.050945411059292955,-0.050945411059292955
145.662,0.07523617276974459,-0.07523617276974459
145.663,0.09769516717414117,-0.09769516717414117
145.66400000000002,0.11282369268272863,-0.11282369268272863
145.66500000000002,0.11728077404045045,-0.11728077404045045
145.666,0.11073013351138417,-0.11073013351138417
145.667,0.09574138425041157,-0.09574138425041157
145.668,0.07683450784621126,-0.07683450784621126
145.669,0.05903107677313213,-0.05903107677313213
145.67000000000002,0.04640920831290429,-0.04640920831290429
145.67100000000002,0.04111415552932307,-0.04111415552932307
145.672,0.04308086677880418,-0.04308086677880418
145.673,0.05045914976428434,-0.05045914976428434
145.674,0.06049667132620007,-0.06049667132620007
145.675,0.07051219541445475,-0.07051219541445475
145.67600000000002,0.07861575894600004,-0.07861575894600004
145.67700000000002,0.08398051142741658,-0.08398051142741658
145.678,0.08667370883769054,-0.08667370883769054
145.679,0.08722666104407362,-0.08722666104407362
145.68,0.08619838039177097,-0.08619838039177097
145.681,0.08394261741533915,-0.08394261741533915
145.68200000000002,0.08065190073390849,-0.08065190073390849
145.68300000000002,0.0765920174031447,-0.0765920174031447
145.684,0.07233175572349704,-0.07233175572349704
145.685,0.0687675811223375,-0.0687675811223375
145.686,0.06684661425474314,-0.06684661425474314
145.687,0.06705925956728187,-0.06705925956728187
145.68800000000002,0.06892820222352958,-0.06892820222352958
145.68900000000002,0.07078607938948667,-0.07078607938948667
145.69,0.0700662351477177,-0.0700662351477177
145.691,0.06414099569652243,-0.06414099569652243
145.692,0.051496407989143345,-0.051496407989143345
145.693,0.032830227795168754,-0.032830227795168754
145.69400000000002,0.011594356673468753,-0.011594356673468753
145.69500000000002,0.006377286926664061,0.006377286926664061
145.696,0.014229293369482976,0.014229293369482976
145.697,0.006144952147149274,0.006144952147149274
145.698,0.02049384160110168,-0.02049384160110168
145.699,0.063582697460558,-0.063582697460558
145.70000000000002,0.11603087948682278,-0.11603087948682278
145.70100000000002,0.16703395995364612,-0.16703395995364612
145.702,0.20467449570126506,-0.20467449570126506
145.703,0.21917664816811733,-0.21917664816811733
145.704,0.2058577048596899,-0.2058577048596899
145.705,0.16683141469598373,-0.16683141469598373
145.70600000000002,0.11084322073087571,-0.11084322073087571
145.707,0.05116790801792692,-0.05116790801792692
145.708,0.002106040250298258,-0.002106040250298258
145.709,0.02492076236389007,0.02492076236389007
145.71,0.024513279178702385,0.024513279178702385
145.711,0.0012816656455351128,-0.0012816656455351128
145.71200000000002,0.04371050086124151,-0.04371050086124151
145.713,0.08999115833975968,-0.08999115833975968
145.714,0.12710158535784888,-0.12710158535784888
145.715,0.14550543499674318,-0.14550543499674318
145.716,0.1416727579431778,-0.1416727579431778
145.717,0.11865195156005393,-0.11865195156005393
145.71800000000002,0.08458559092511153,-0.08458559092511153
145.719,0.049727768461329314,-0.049727768461329314
145.72,0.022994655509183115,-0.022994655509183115
145.721,0.009206920169325006,-0.009206920169325006
145.722,0.007922132817372307,-0.007922132817372307
145.723,0.014196924807345912,-0.014196924807345912
145.72400000000002,0.020951877537780272,-0.020951877537780272
145.725,0.022062493896686908,-0.022062493896686908
145.726,0.015052840035276627,-0.015052840035276627
145.727,0.002407740444430151,-0.002407740444430151
145.728,0.009002545018468311,0.009002545018468311
145.729,0.010236209955032827,0.010236209955032827
145.73000000000002,0.006426960851697472,-0.006426960851697472
145.731,0.044331368023000306,-0.044331368023000306
145.732,0.10053316298701753,-0.10053316298701753
145.733,0.16584563130015417,-0.16584563130015417
145.734,0.22692664123760897,-0.22692664123760897
145.735,0.2698237637807772,-0.2698237637807772
145.73600000000002,0.2839072559015725,-0.2839072559015725
145.737,0.26497812167485923,-0.26497812167485923
145.738,0.21658423236850888,-0.21658423236850888
145.739,0.14913125447563624,-0.14913125447563624
145.74,0.07705699652340703,-0.07705699652340703
145.741,0.014928705102026374,-0.014928705102026374
145.74200000000002,0.026363528963030625,0.026363528963030625
145.743,0.04220166668170555,0.04220166668170555
145.744,0.03490927215706319,0.03490927215706319
145.745,0.01239242162573495,0.01239242162573495
145.746,0.014730916182180698,-0.014730916182180698
145.747,0.03656059510333254,-0.03656059510333254
145.74800000000002,0.0468299134784711,-0.0468299134784711
145.749,0.04445241575549186,-0.04445241575549186
145.75,0.03331877377566228,-0.03331877377566228
145.751,0.02053002744290877,-0.02053002744290877
145.752,0.013730838116249644,-0.013730838116249644
145.753,0.018447547431306832,-0.018447547431306832
145.75400000000002,0.03627714415483363,-0.03627714415483363
145.755,0.06445011800772227,-0.06445011800772227
145.756,0.0968206398172412,-0.0968206398172412
145.757,0.12587995719658995,-0.12587995719658995
145.758,0.14508898967429107,-0.14508898967429107
145.759,0.1507704953552449,-0.1507704953552449
145.76000000000002,0.14299278662468473,-0.14299278662468473
145.761,0.12523872053028207,-0.12523872053028207
145.762,0.10305797140779305,-0.10305797140779305
145.763,0.08221353104481965,-0.08221353104481965
145.764,0.06695872178802409,-0.06695872178802409
145.765,0.05898939662800173,-0.05898939662800173
145.76600000000002,0.05735089728310805,-0.05735089728310805
145.767,0.05923887722720733,-0.05923887722720733
145.768,0.061335014870582905,-0.061335014870582905
145.769,0.06116057716313794,-0.06116057716313794
145.77,0.05795902142283205,-0.05795902142283205
145.77100000000002,0.052815229432968236,-0.052815229432968236
145.77200000000002,0.048009644759801295,-0.048009644759801295
145.773,0.0458873479659494,-0.0458873479659494
145.774,0.04769765374491641,-0.04769765374491641
145.775,0.05286987341148719,-0.05286987341148719
145.776,0.059033091407455496,-0.059033091407455496
145.77700000000002,0.06281665717554208,-0.06281665717554208
145.77800000000002,0.061176465369292776,-0.061176465369292776
145.779,0.052780538337356964,-0.052780538337356964
145.78,0.03893118674486107,-0.03893118674486107
145.781,0.02362521195539613,-0.02362521195539613
145.782,0.01262421395406832,-0.01262421395406832
145.78300000000002,0.011740647744591826,-0.011740647744591826
145.78400000000002,0.024834427587611785,-0.024834427587611785
145.785,0.05216175065814277,-0.05216175065814277
145.786,0.08966547236431843,-0.08966547236431843
145.787,0.12954845196221798,-0.12954845196221798
145.788,0.16209358093983295,-0.16209358093983295
145.78900000000002,0.17829712873761894,-0.17829712873761894
145.79000000000002,0.17258868983159736,-0.17258868983159736
145.791,0.14481984816939408,-0.14481984816939408
145.792,0.1008568608473267,-0.1008568608473267
145.793,0.05147996105378683,-0.05147996105378683
145.794,0.009775676861357718,-0.009775676861357718
145.79500000000002,0.012330310507003395,0.012330310507003395
145.79600000000002,0.0074545772782930175,0.0074545772782930175
145.797,0.024928093329684264,-0.024928093329684264
145.798,0.07795952136453987,-0.07795952136453987
145.799,0.13890569836588806,-0.13890569836588806
145.8,0.1923595440204,-0.1923595440204
145.80100000000002,0.2242941538178128,-0.2242941538178128
145.80200000000002,0.2258424380180828,-0.2258424380180828
145.803,0.19572110570690082,-0.19572110570690082
145.804,0.14058088463839868,-0.14058088463839868
145.805,0.07315325448944998,-0.07315325448944998
145.806,0.008707063650989166,-0.008707063650989166
145.80700000000002,0.039166591476308854,0.039166591476308854
145.80800000000002,0.06221303199367334,0.06221303199367334
145.809,0.059544699733829365,0.059544699733829365
145.81,0.0374558071810982,0.0374558071810982
145.811,0.007100893012819576,0.007100893012819576
145.812,0.019233067083774813,-0.019233067083774813
145.81300000000002,0.032101705221271426,-0.032101705221271426
145.81400000000002,0.02789317555964055,-0.02789317555964055
145.815,0.009910878743879081,-0.009910878743879081
145.816,0.012773893433678296,0.012773893433678296
145.817,0.02832150566981162,0.02832150566981162
145.818,0.026017258834748258,0.026017258834748258
145.81900000000002,0.000175181866987284,-0.000175181866987284
145.82000000000002,0.04951532055833363,-0.04951532055833363
145.821,0.11448413602593566,-0.11448413602593566
145.822,0.18284708429811602,-0.18284708429811602
145.823,0.24109520833888354,-0.24109520833888354
145.824,0.2781560421253514,-0.2781560421253514
145.82500000000002,0.28821303660774233,-0.28821303660774233
145.82600000000002,0.2718008142159284,-0.2718008142159284
145.827,0.23493856832966253,-0.23493856832966253
145.828,0.18672095919206477,-0.18672095919206477
145.829,0.1362805818270626,-0.1362805818270626
145.83,0.09020107656773946,-0.09020107656773946
145.83100000000002,0.051242725451931426,-0.051242725451931426
145.832,0.018724185244957003,-0.018724185244957003
145.833,0.009727664156584215,0.009727664156584215
145.834,0.035864287559141506,0.035864287559141506
145.835,0.05895511170084711,0.05895511170084711
145.836,0.07522272648713924,0.07522272648713924
145.83700000000002,0.07891292570857122,0.07891292570857122
145.838,0.06468495888974957,0.06468495888974957
145.839,0.03044204610356882,0.03044204610356882
145.84,0.0205390457897221,-0.0205390457897221
145.841,0.07916430647649231,-0.07916430647649231
145.842,0.13220905137350292,-0.13220905137350292
145.84300000000002,0.165828207182243,-0.165828207182243
145.844,0.16988098838025967,-0.16988098838025967
145.845,0.1416611394120888,-0.1416611394120888
145.846,0.0876892107584426,-0.0876892107584426
145.847,0.02276054543774564,-0.02276054543774564
145.848,0.03370473178754585,0.03370473178754585
145.84900000000002,0.06306833347683449,0.06306833347683449
145.85,0.05305833054982356,0.05305833054982356
145.851,0.00179943068766808,0.00179943068766808
145.852,0.08104013824307787,-0.08104013824307787
145.853,0.1764653732836674,-0.1764653732836674
145.854,0.2611821391602799,-0.2611821391602799
145.85500000000002,0.31399573616675547,-0.31399573616675547
145.856,0.3216884830959603,-0.3216884830959603
145.857,0.28262056769172494,-0.28262056769172494
145.858,0.2069862696085334,-0.2069862696085334
145.859,0.1136815044908267,-0.1136815044908267
145.86,0.024773010128192774,-0.024773010128192774
145.86100000000002,0.040724563372015465,0.040724563372015465
145.862,0.07188471427430976,0.07188471427430976
145.863,0.0682575636008147,0.0682575636008147
145.864,0.039015377153367004,0.039015377153367004
145.865,0.0007136010957594641,-0.0007136010957594641
145.866,0.03503626054876352,-0.03503626054876352
145.86700000000002,0.05230874848918876,-0.05230874848918876
145.868,0.048415626260968514,-0.048415626260968514
145.869,0.027392199407643925,-0.027392199407643925
145.87,0.0006293133860031386,0.0006293133860031386
145.871,0.023305500000290857,0.023305500000290857
145.872,0.030411475103686803,0.030411475103686803
145.87300000000002,0.017167168718179804,0.017167168718179804
145.874,0.014466340975331837,-0.014466340975331837
145.875,0.056809529128600045,-0.056809529128600045
145.876,0.099304104750494,-0.099304104750494
145.877,0.13209174502111976,-0.13209174502111976
145.878,0.14907678345137798,-0.14907678345137798
145.87900000000002,0.14947813886342542,-0.14947813886342542
145.88,0.13746081009682298,-0.13746081009682298
145.881,0.12012765628489863,-0.12012765628489863
145.882,0.10470275820343178,-0.10470275820343178
145.883,0.09596377284023361,-0.09596377284023361
145.884,0.09482021419273812,-0.09482021419273812
145.88500000000002,0.09846452020530361,-0.09846452020530361
145.886,0.1019262347147657,-0.1019262347147657
145.887,0.10035659505895611,-0.10035659505895611
145.888,0.09113817150165715,-0.09113817150165715
145.889,0.07502413914326056,-0.07502413914326056
145.89,0.05590970281897245,-0.05590970281897245
145.89100000000002,0.039367047410939326,-0.039367047410939326
145.892,0.030535759672563945,-0.030535759672563945
145.893,0.032185462318472746,-0.032185462318472746
145.894,0.043680726599285125,-0.043680726599285125
145.895,0.06122134947157565,-0.06122134947157565
145.89600000000002,0.07924357758433542,-0.07924357758433542
145.89700000000002,0.09243439782165563,-0.09243439782165563
145.898,0.09759194714885211,-0.09759194714885211
145.899,0.09463793606950499,-0.09463793606950499
145.9,0.08642037503278666,-0.08642037503278666
145.901,0.07740850165346935,-0.07740850165346935
145.90200000000002,0.07180129724994844,-0.07180129724994844
145.90300000000002,0.07178959611817692,-0.07178959611817692
145.904,0.07664917045503616,-0.07664917045503616
145.905,0.08302331659685147,-0.08302331659685147
145.906,0.08629855668467767,-0.08629855668467767
145.907,0.08255634589799066,-0.08255634589799066
145.90800000000002,0.07035428953840228,-0.07035428953840228
145.90900000000002,0.05163853106115668,-0.05163853106115668
145.91,0.03139850386046006,-0.03139850386046006
145.911,0.016133865057820884,-0.016133865057820884
145.912,0.01164409000055422,-0.01164409000055422
145.913,0.02091311271944396,-0.02091311271944396
145.91400000000002,0.04284840853455474,-0.04284840853455474
145.91500000000002,0.0723490696420267,-0.0723490696420267
145.916,0.10172134881754347,-0.10172134881754347
145.917,0.12299428692518233,-0.12299428692518233
145.918,0.13037640521178195,-0.13037640521178195
145.919,0.12204512067014428,-0.12204512067014428
145.92000000000002,0.10068803239421487,-0.10068803239421487
145.92100000000002,0.07263679227806696,-0.07263679227806696
145.922,0.04590101283192205,-0.04590101283192205
145.923,0.027760480909107876,-0.027760480909107876
145.924,0.022692575123527292,-0.022692575123527292
145.925,0.031266376764980786,-0.031266376764980786
145.92600000000002,0.050286480175431136,-0.050286480175431136
145.92700000000002,0.07404680834680999,-0.07404680834680999
145.928,0.09620633559142211,-0.09620633559142211
145.929,0.11163924926781443,-0.11163924926781443
145.93,0.11768358920373212,-0.11768358920373212
145.931,0.1144725871475557,-0.1144725871475557
145.93200000000002,0.10437536267900327,-0.10437536267900327
145.93300000000002,0.09086994973497253,-0.09086994973497253
145.934,0.07731978065575262,-0.07731978065575262
145.935,0.06608508691248294,-0.06608508691248294
145.936,0.05820683001336502,-0.05820683001336502
145.937,0.053642339778167014,-0.053642339778167014
145.93800000000002,0.05181644224999371,-0.05181644224999371
145.93900000000002,0.05216205182356337,-0.05216205182356337
145.94,0.054385977369036165,-0.054385977369036165
145.941,0.058370658090156735,-0.058370658090156735
145.942,0.06382619959702152,-0.06382619959702152
145.943,0.06994539290320612,-0.06994539290320612
145.94400000000002,0.07532373396142011,-0.07532373396142011
145.94500000000002,0.07828066198261108,-0.07828066198261108
145.946,0.07751181672058793,-0.07751181672058793
145.947,0.072808060395545,-0.072808060395545
145.948,0.06548785333108087,-0.06548785333108087
145.949,0.05825735762763318,-0.05825735762763318
145.95000000000002,0.054424157810927576,-0.054424157810927576
145.95100000000002,0.05666850542501933,-0.05666850542501933
145.952,0.06580717752187848,-0.06580717752187848
145.953,0.08006448761757912,-0.08006448761757912
145.954,0.09524035599825398,-0.09524035599825398
145.955,0.10586279746147564,-0.10586279746147564
145.95600000000002,0.10703274776034577,-0.10703274776034577
145.957,0.09635505141535128,-0.09635505141535128
145.958,0.07523165865735992,-0.07523165865735992
145.959,0.04893931683858155,-0.04893931683858155
145.96,0.025297096346222347,-0.025297096346222347
145.961,0.012229179483210006,-0.012229179483210006
145.96200000000002,0.01497060566388464,-0.01497060566388464
145.963,0.03387906529015072,-0.03387906529015072
145.964,0.06370416700007686,-0.06370416700007686
145.965,0.09473748242079816,-0.09473748242079816
145.966,0.11564777643629653,-0.11564777643629653
145.967,0.11719969761050086,-0.11719969761050086
145.96800000000002,0.09567473767104506,-0.09567473767104506
145.969,0.05480959987987155,-0.05480959987987155
145.97,0.005467243236607411,-0.005467243236607411
145.971,0.03705000886598908,0.03705000886598908
145.972,0.057364703912004655,0.057364703912004655
145.973,0.0447916741173533,0.0447916741173533
145.97400000000002,0.0029742932414703604,-0.0029742932414703604
145.975,0.07847007387308547,-0.07847007387308547
145.976,0.1659257005874052,-0.1659257005874052
145.977,0.24525503927041237,-0.24525503927041237
145.978,0.29745744414680875,-0.29745744414680875
145.979,0.3098474622555757,-0.3098474622555757
145.98000000000002,0.2795535518649749,-0.2795535518649749
145.981,0.21423887790983775,-0.21423887790983775
145.982,0.12983907162317554,-0.12983907162317554
145.983,0.04601748184539034,-0.04601748184539034
145.984,0.019278966054992352,0.019278966054992352
145.985,0.054534908307725116,0.054534908307725116
145.98600000000002,0.057288483893021436,0.057288483893021436
145.987,0.03397733265716196,0.03397733265716196
145.988,0.0028000672574794994,-0.0028000672574794994
145.989,0.03863177936733242,-0.03863177936733242
145.99,0.06182365516744692,-0.06182365516744692
145.991,0.06670782987672264,-0.06670782987672264
145.99200000000002,0.05478374478547732,-0.05478374478547732
145.993,0.033486311356104026,-0.033486311356104026
145.994,0.013142576701332565,-0.013142576701332565
145.995,0.0032234235487363927,-0.0032234235487363927
145.996,0.009154343639870555,-0.009154343639870555
145.997,0.030687467389881817,-0.030687467389881817
145.99800000000002,0.06226347208953198,-0.06226347208953198
145.999,0.09511203153293324,-0.09511203153293324
146.0,0.12028338695634189,-0.12028338695634189
146.001,0.13154864153972834,-0.13154864153972834
146.002,0.12721988807845552,-0.12721988807845552
146.003,0.1103635864996163,-0.1103635864996163
146.00400000000002,0.08745153089962687,-0.08745153089962687
146.005,0.06601202776896553,-0.06601202776896553
146.006,0.05213776210499743,-0.05213776210499743
146.007,0.048690935018893766,-0.048690935018893766
146.008,0.05474623015641766,-0.05474623015641766
146.009,0.06634957665521135,-0.06634957665521135
146.01000000000002,0.0782156567128609,-0.0782156567128609
146.011,0.08569655707203538,-0.08569655707203538
146.012,0.08631759872307398,-0.08631759872307398
146.013,0.0803891295134962,-0.0803891295134962
146.014,0.07057229587327574,-0.07057229587327574
146.015,0.06066014643682338,-0.06066014643682338
146.01600000000002,0.0540943224209971,-0.0540943224209971
146.017,0.05278686746257766,-0.05278686746257766
146.018,0.056652411881744746,-0.056652411881744746
146.019,0.0639526966302354,-0.0639526966302354
146.02,0.07223494676703912,-0.07223494676703912
146.02100000000002,0.07943002575033287,-0.07943002575033287
146.02200000000002,0.08464256603205267,-0.08464256603205267
146.023,0.08831831487382358,-0.08831831487382358
146.024,0.09174731083405652,-0.09174731083405652
146.025,0.09614455582858772,-0.09614455582858772
146.026,0.10173063593721643,-0.10173063593721643
146.02700000000002,0.10724252012266478,-0.10724252012266478
146.02800000000002,0.11013623383999993,-0.11013623383999993
146.029,0.10746307531309351,-0.10746307531309351
146.03,0.09711760867004526,-0.09711760867004526
146.031,0.07897939026925249,-0.07897939026925249
146.032,0.05547270577920893,-0.05547270577920893
146.03300000000002,0.03125480687652138,-0.03125480687652138
146.03400000000002,0.012049739331017939,-0.012049739331017939
146.035,0.0029622000911294633,-0.0029622000911294633
146.036,0.006817759767574039,-0.006817759767574039
146.037,0.02310169460364453,-0.02310169460364453
146.038,0.047893225295577824,-0.047893225295577824
146.03900000000002,0.07487126312282055,-0.07487126312282055
146.04000000000002,0.09711021223738725,-0.09711021223738725
146.041,0.10911288752511328,-0.10911288752511328
146.042,0.10843667266397938,-0.10843667266397938
146.043,0.0963917496903639,-0.0963917496903639
146.044,0.07758674317409142,-0.07758674317409142
146.04500000000002,0.05846848493968426,-0.05846848493968426
146.04600000000002,0.04532484888908006,-0.04532484888908006
146.047,0.04238611931045877,-0.04238611931045877
146.048,0.05061782803243298,-0.05061782803243298
146.049,0.06756367212884484,-0.06756367212884484
146.05,0.08825181046677943,-0.08825181046677943
146.05100000000002,0.10683751227357241,-0.10683751227357241
146.05200000000002,0.11843130372475952,-0.11843130372475952
146.053,0.12052431320314005,-0.12052431320314005
146.054,0.11357756350558135,-0.11357756350558135
146.055,0.10063176264138074,-0.10063176264138074
146.056,0.0861184584806689,-0.0861184584806689
146.05700000000002,0.07430434672124508,-0.07430434672124508
146.05800000000002,0.06789866051528737,-0.06789866051528737
146.059,0.067273284194875,-0.067273284194875
146.06,0.070520930353966,-0.070520930353966
146.061,0.0742888485376546,-0.0742888485376546
146.062,0.07507185200980782,-0.07507185200980782
146.06300000000002,0.0705108393408238,-0.0705108393408238
146.06400000000002,0.060261134469387634,-0.060261134469387634
146.065,0.04615535047139219,-0.04615535047139219
146.066,0.031628570049664795,-0.031628570049664795
146.067,0.020615938943924772,-0.020615938943924772
146.068,0.016295568584363318,-0.016295568584363318
146.06900000000002,0.020084490757104945,-0.020084490757104945
146.07000000000002,0.031198113883988632,-0.031198113883988632
146.071,0.0468928637718673,-0.0468928637718673
146.072,0.06329362688011697,-0.06329362688011697
146.073,0.07653268407545122,-0.07653268407545122
146.074,0.08384678264838763,-0.08384678264838763
146.07500000000002,0.08431181694454026,-0.08431181694454026
146.07600000000002,0.07902151762560816,-0.07902151762560816
146.077,0.07069125124252318,-0.07069125124252318
146.078,0.0628337614339135,-0.0628337614339135
146.079,0.058762107986453316,-0.058762107986453316
146.08,0.06070041511095792,-0.06070041511095792
146.08100000000002,0.06922749260625805,-0.06922749260625805
146.082,0.08316785954416073,-0.08316785954416073
146.083,0.09991764328708763,-0.09991764328708763
146.084,0.11608662836167438,-0.11608662836167438
146.085,0.12827747500396136,-0.12827747500396136
146.086,0.13381618561657638,-0.13381618561657638
146.08700000000002,0.13128520558248014,-0.13128520558248014
146.088,0.12077301454387224,-0.12077301454387224
146.089,0.10382094765782646,-0.10382094765782646
146.09,0.08310381799258282,-0.08310381799258282
146.091,0.0619187313584737,-0.0619187313584737
146.092,0.04357687847142433,-0.04357687847142433
146.09300000000002,0.030800351134689374,-0.030800351134689374
146.094,0.02522378889920507,-0.02522378889920507
146.095,0.027089232018262632,-0.027089232018262632
146.096,0.035199206857788656,-0.035199206857788656
146.097,0.04715493339846655,-0.04715493339846655
146.098,0.05985451702828892,-0.05985451702828892
146.09900000000002,0.07016746639227434,-0.07016746639227434
146.1,0.07565061528563966,-0.07565061528563966
146.101,0.07514310080768805,-0.07514310080768805
146.102,0.06908802305616968,-0.06908802305616968
146.103,0.05948033637296424,-0.05948033637296424
146.104,0.04942632255087953,-0.04942632255087953
146.10500000000002,0.04239950765366984,-0.04239950765366984
146.106,0.041363871315969525,-0.041363871315969525
146.107,0.047981476605643,-0.047981476605643
146.108,0.06211166750936148,-0.06211166750936148
146.109,0.08174187654006304,-0.08174187654006304
146.11,0.10338197125919835,-0.10338197125919835
146.11100000000002,0.12283388722836819,-0.12283388722836819
146.112,0.13614940845045653,-0.13614940845045653
146.113,0.1405391434034392,-0.1405391434034392
146.114,0.13500882467165987,-0.13500882467165987
146.115,0.12057083918475253,-0.12057083918475253
146.116,0.09998868400858829,-0.09998868400858829
146.11700000000002,0.07712914666075521,-0.07712914666075521
146.118,0.056090011613769586,-0.056090011613769586
146.119,0.04031690644343655,-0.04031690644343655
146.12,0.03191279238785194,-0.03191279238785194
146.121,0.03128455182834167,-0.03128455182834167
146.122,0.03718242271170413,-0.03718242271170413
146.12300000000002,0.04709463058191765,-0.04709463058191765
146.124,0.057884549828508436,-0.057884549828508436
146.125,0.06651629782360746,-0.06651629782360746
146.126,0.07071137475348721,-0.07071137475348721
146.127,0.06940846834282777,-0.06940846834282777
146.128,0.06294911475246712,-0.06294911475246712
146.12900000000002,0.05296997538945414,-0.05296997538945414
146.13,0.04203651519301965,-0.04203651519301965
146.131,0.03309535063784208,-0.03309535063784208
146.132,0.028849935558315054,-0.028849935558315054
146.133,0.031175513120552556,-0.031175513120552556
146.134,0.04068412097278573,-0.04068412097278573
146.13500000000002,0.05652863444939926,-0.05652863444939926
146.136,0.07649671581575679,-0.07649671581575679
146.137,0.09739371704506172,-0.09739371704506172
146.138,0.11565462579305419,-0.11565462579305419
146.139,0.12807005157859974,-0.12807005157859974
146.14,0.13247387831434732,-0.13247387831434732
146.14100000000002,0.12823362935814775,-0.12823362935814775
146.142,0.11641637870195987,-0.11641637870195987
146.143,0.09957121780581835,-0.09957121780581835
146.144,0.08116069388024039,-0.08116069388024039
146.145,0.06476591135056264,-0.06476591135056264
146.14600000000002,0.053257112233546566,-0.053257112233546566
146.14700000000002,0.048141565971174916,-0.048141565971174916
146.148,0.04926313615834721,-0.04926313615834721
146.149,0.054938866368859474,-0.054938866368859474
146.15,0.06249946092233383,-0.06249946092233383
146.151,0.06908559606830555,-0.06908559606830555
146.15200000000002,0.07247501036400272,-0.07247501036400272
146.15300000000002,0.07170149847253227,-0.07170149847253227
146.154,0.06728368273200813,-0.06728368273200813
146.155,0.06099486484472627,-0.06099486484472627
146.156,0.055243207762315394,-0.055243207762315394
146.157,0.05225259570194918,-0.05225259570194918
146.15800000000002,0.053300683588043074,-0.053300683588043074
146.15900000000002,0.05825919805808988,-0.05825919805808988
146.16,0.06559306508870444,-0.06559306508870444
146.161,0.07283409930335838,-0.07283409930335838
146.162,0.07739387207394433,-0.07739387207394433
146.163,0.07746595775881315,-0.07746595775881315
146.16400000000002,0.07272739297035069,-0.07272739297035069
146.16500000000002,0.06459854423677003,-0.06459854423677003
146.166,0.05594795620873805,-0.05594795620873805
146.167,0.05029771890896406,-0.05029771890896406
146.168,0.05074475581730975,-0.05074475581730975
146.169,0.058914446224318406,-0.058914446224318406
146.17000000000002,0.07427171783333097,-0.07427171783333097
146.17100000000002,0.0940248177088473,-0.0940248177088473
146.172,0.11369183545501971,-0.11369183545501971
146.173,0.12820664193016862,-0.12820664193016862
146.174,0.1332760272754927,-0.1332760272754927
146.175,0.1266132878788755,-0.1266132878788755
146.17600000000002,0.10869308934036792,-0.10869308934036792
146.17700000000002,0.0827951782969486,-0.0827951782969486
146.178,0.0542971830388852,-0.0542971830388852
146.179,0.02938519850160881,-0.02938519850160881
146.18,0.013515737077968493,-0.013515737077968493
146.181,0.010036615671558002,-0.010036615671558002
146.18200000000002,0.019335889102283677,-0.019335889102283677
146.18300000000002,0.03874744622128201,-0.03874744622128201
146.184,0.06323862259366964,-0.06323862259366964
146.185,0.08669584199508118,-0.08669584199508118
146.186,0.10346670138008718,-0.10346670138008718
146.187,0.109753660098035,-0.109753660098035
146.18800000000002,0.10450125696484314,-0.10450125696484314
146.18900000000002,0.08956050590174713,-0.08956050590174713
146.19,0.06911001166852626,-0.06911001166852626
146.191,0.04850892133332152,-0.04850892133332152
146.192,0.03289942229145415,-0.03289942229145415
146.193,0.02592969775471332,-0.02592969775471332
146.19400000000002,0.028921237237298003,-0.028921237237298003
146.19500000000002,0.040673839517163635,-0.040673839517163635
146.196,0.05792594462311429,-0.05792594462311429
146.197,0.07631582824750194,-0.07631582824750194
146.198,0.09156612902578964,-0.09156612902578964
146.199,0.10057029543726015,-0.10057029543726015
146.20000000000002,0.10210244344594466,-0.10210244344594466
146.20100000000002,0.09698608930309438,-0.09698608930309438
146.202,0.08770865142684103,-0.08770865142684103
146.203,0.07761581424686981,-0.07761581424686981
146.204,0.0699243921772843,-0.0699243921772843
146.205,0.06682887291644024,-0.06682887291644024
146.20600000000002,0.0689389403998042,-0.0689389403998042
146.207,0.07518618415073808,-0.07518618415073808
146.208,0.08320638925557466,-0.08320638925557466
146.209,0.09007509398096758,-0.09007509398096758
146.21,0.09318222730233894,-0.09318222730233894
146.211,0.09099971464203038,-0.09099971464203038
146.21200000000002,0.0835309036174976,-0.0835309036174976
146.213,0.07232187606412199,-0.07232187606412199
146.214,0.06003698623625353,-0.06003698623625353
146.215,0.049721181426936156,-0.049721181426936156
146.216,0.0439573932364834,-0.0439573932364834
146.217,0.044155289766032335,-0.044155289766032335
146.21800000000002,0.050170134453437654,-0.050170134453437654
146.219,0.06035736951501358,-0.06035736951501358
146.22,0.07204527045461329,-0.07204527045461329
146.221,0.08228894988163515,-0.08228894988163515
146.222,0.08868808829925556,-0.08868808829925556
146.223,0.09003200306142445,-0.09003200306142445
146.22400000000002,0.0865857435215891,-0.0865857435215891
146.225,0.0799366050512712,-0.0799366050512712
146.226,0.07245166683966353,-0.07245166683966353
146.227,0.06651486671510176,-0.06651486671510176
146.228,0.06378053513921522,-0.06378053513921522
146.229,0.06467681480902565,-0.06467681480902565
146.23000000000002,0.06831595983979344,-0.06831595983979344
146.231,0.07284085143502694,-0.07284085143502694
146.232,0.0760969369141894,-0.0760969369141894
146.233,0.0764105374173728,-0.0764105374173728
146.234,0.07321410094838365,-0.07321410094838365
146.235,0.06730217913513947,-0.06730217913513947
146.23600000000002,0.06061789349678581,-0.06061789349678581
146.237,0.055623361328856924,-0.055623361328856924
146.238,0.05444989061750316,-0.05444989061750316
146.239,0.05810709277224968,-0.05810709277224968
146.24,0.0660240380343281,-0.0660240380343281
146.241,0.07609803527902836,-0.07609803527902836
146.24200000000002,0.08526572114335262,-0.08526572114335262
146.243,0.09043747561223936,-0.09043747561223936
146.244,0.08950693661884279,-0.08950693661884279
146.245,0.08210757257325707,-0.08210757257325707
146.246,0.06985510673734341,-0.06985510673734341
146.247,0.05597051399409714,-0.05597051399409714
146.24800000000002,0.044375396706256454,-0.044375396706256454
146.249,0.03852629256271367,-0.03852629256271367
146.25,0.040348455304741404,-0.040348455304741404
146.251,0.04960927109224167,-0.04960927109224167
146.252,0.06394001189360743,-0.06394001189360743
146.253,0.0795123050139116,-0.0795123050139116
146.25400000000002,0.09216726157246935,-0.09216726157246935
146.255,0.09864887086172769,-0.09864887086172769
146.256,0.09755792866065582,-0.09755792866065582
146.257,0.08973121470887557,-0.08973121470887557
146.258,0.07793464413811435,-0.07793464413811435
146.259,0.06597838952738655,-0.06597838952738655
146.26000000000002,0.05754413201838715,-0.05754413201838715
146.261,0.05509961293049659,-0.05509961293049659
146.262,0.059236283908081666,-0.059236283908081666
146.263,0.06861704524760892,-0.06861704524760892
146.264,0.08051485575120465,-0.08051485575120465
146.265,0.09173051862131631,-0.09173051862131631
146.26600000000002,0.09956467074781972,-0.09956467074781972
146.267,0.10252189481264784,-0.10252189481264784
146.268,0.10053951791234572,-0.10053951791234572
146.269,0.09471602724173234,-0.09471602724173234
146.27,0.0866964202575713,-0.0866964202575713
146.27100000000002,0.07798737943802492,-0.07798737943802492
146.27200000000002,0.06948234397594566,-0.06948234397594566
146.273,0.061374410096048826,-0.061374410096048826
146.274,0.053463869230093275,-0.053463869230093275
146.275,0.04569407938713621,-0.04569407938713621
146.276,0.038643086700919094,-0.038643086700919094
146.27700000000002,0.033703556807110235,-0.033703556807110235
146.27800000000002,0.03280276638692625,-0.03280276638692625
146.279,0.03770578559171378,-0.03770578559171378
146.28,0.0491363181401232,-0.0491363181401232
146.281,0.06606445578173781,-0.06606445578173781
146.282,0.08549695688614123,-0.08549695688614123
146.28300000000002,0.10295735016317797,-0.10295735016317797
146.28400000000002,0.11360472801927801,-0.11360472801927801
146.285,0.11369334416823496,-0.11369334416823496
146.286,0.1019111892885507,-0.1019111892885507
146.287,0.08012209542159365,-0.08012209542159365
146.288,0.05319039498399025,-0.05319039498399025
146.28900000000002,0.027848277815340272,-0.027848277815340272
146.29000000000002,0.010884377622900288,-0.010884377622900288
146.291,0.007179546637708145,-0.007179546637708145
146.292,0.018202370375004162,-0.018202370375004162
146.293,0.04146371092241585,-0.04146371092241585
146.294,0.07114434407179004,-0.07114434407179004
146.29500000000002,0.09974070382686173,-0.09974070382686173
146.29600000000002,0.12024127974601728,-0.12024127974601728
146.297,0.12816282740966456,-0.12816282740966456
146.298,0.12280701600002897,-0.12280701600002897
146.299,0.10733958569201363,-0.10733958569201363
146.3,0.08766977301750889,-0.08766977301750889
146.30100000000002,0.07049514345735308,-0.07049514345735308
146.30200000000002,0.0611473979382301,-0.0611473979382301
146.303,0.06193702199455842,-0.06193702199455842
146.304,0.07152664018044486,-0.07152664018044486
146.305,0.08551980423542649,-0.08551980423542649
146.306,0.09804823734371593,-0.09804823734371593
146.30700000000002,0.103811717312563,-0.103811717312563
146.30800000000002,0.09988116425609483,-0.09988116425609483
146.309,0.08666469883129291,-0.08666469883129291
146.31,0.06772694369405807,-0.06772694369405807
146.311,0.048543776982152176,-0.048543776982152176
146.312,0.034634112977310116,-0.034634112977310116
146.31300000000002,0.029714951717900062,-0.029714951717900062
146.31400000000002,0.034507516757576795,-0.034507516757576795
146.315,0.046589406901900055,-0.046589406901900055
146.316,0.061322568862671734,-0.061322568862671734
146.317,0.0735166084568798,-0.0735166084568798
146.318,0.07923916943742415,-0.07923916943742415
146.31900000000002,0.07714393658524077,-0.07714393658524077
146.32000000000002,0.06886402944070869,-0.06886402944070869
146.321,0.05835009469849617,-0.05835009469849617
146.322,0.05040134053615408,-0.05040134053615408
146.323,0.04891542562442097,-0.04891542562442097
146.324,0.055474051034614225,-0.055474051034614225
146.32500000000002,0.06875596450600274,-0.06875596450600274
146.32600000000002,0.08497419745624546,-0.08497419745624546
146.327,0.09917469704180526,-0.09917469704180526
146.328,0.1069353729802065,-0.1069353729802065
146.329,0.10587112772629437,-0.10587112772629437
146.33,0.09642593290843704,-0.09642593290843704
146.33100000000002,0.08168805794065692,-0.08168805794065692
146.332,0.06630739972446076,-0.06630739972446076
146.333,0.05490345253514495,-0.05490345253514495
146.334,0.05052133399473557,-0.05052133399473557
146.335,0.053665082293933186,-0.053665082293933186
146.336,0.06222585158147509,-0.06222585158147509
146.33700000000002,0.0723053796516866,-0.0723053796516866
146.338,0.07962543151079693,-0.07962543151079693
146.339,0.08102003315072304,-0.08102003315072304
146.34,0.07549427826120814,-0.07549427826120814
146.341,0.06450115562218783,-0.06450115562218783
146.342,0.051372243988830446,-0.051372243988830446
146.34300000000002,0.04013556717481548,-0.04013556717481548
146.344,0.03415873134283931,-0.03415873134283931
146.345,0.03509774721688186,-0.03509774721688186
146.346,0.04250165439231812,-0.04250165439231812
146.347,0.054172341022538206,-0.054172341022538206
146.348,0.06710192435967455,-0.06710192435967455
146.34900000000002,0.07860798658187318,-0.07860798658187318
146.35,0.08723143093125818,-0.08723143093125818
146.351,0.09306924277260942,-0.09306924277260942
146.352,0.09744144925372389,-0.09744144925372389
146.353,0.1020513709176134,-0.1020513709176134
146.354,0.10799340329768803,-0.10799340329768803
146.35500000000002,0.11502074674810481,-0.11502074674810481
146.356,0.12138582234532203,-0.12138582234532203
146.357,0.12434630171641381,-0.12434630171641381
146.358,0.1211718178068425,-0.1211718178068425
146.359,0.1102865684342147,-0.1102865684342147
146.36,0.09211594534111867,-0.09211594534111867
146.36100000000002,0.0692972127594883,-0.0692972127594883
146.362,0.04613328085425106,-0.04613328085425106
146.363,0.02743656777687009,-0.02743656777687009
146.364,0.017130667692653923,-0.017130667692653923
146.365,0.017071684265098752,-0.017071684265098752
146.366,0.02648455655562043,-0.02648455655562043
146.36700000000002,0.04220564845132735,-0.04220564845132735
146.368,0.059653028445853296,-0.059653028445853296
146.369,0.07420458715452882,-0.07420458715452882
146.37,0.08253465998675935,-0.08253465998675935
146.371,0.08348495417027879,-0.08348495417027879
146.372,0.0782132771193923,-0.0782132771193923
146.37300000000002,0.06961227917006796,-0.06961227917006796
146.374,0.06123197467944852,-0.06123197467944852
146.375,0.05609120746933571,-0.05609120746933571
146.376,0.05577588987448556,-0.05577588987448556
146.377,0.060097709529502,-0.060097709529502
146.378,0.06737613164159995,-0.06737613164159995
146.37900000000002,0.07518752710206122,-0.07518752710206122
146.38,0.08127602351532981,-0.08127602351532981
146.381,0.08429038112214293,-0.08429038112214293
146.382,0.08410365050601043,-0.08410365050601043
146.383,0.08164649961164516,-0.08164649961164516
146.384,0.0783718608443481,-0.0783718608443481
146.38500000000002,0.07559758535524697,-0.07559758535524697
146.386,0.07399967795156637,-0.07399967795156637
146.387,0.07344704392774726,-0.07344704392774726
146.388,0.07321638907119721,-0.07321638907119721
146.389,0.07246574456766552,-0.07246574456766552
146.39,0.07074088014811541,-0.07074088014811541
146.39100000000002,0.06828085426783437,-0.06828085426783437
146.392,0.06597858265247303,-0.06597858265247303
146.393,0.06500224247343867,-0.06500224247343867
146.394,0.06623239776334755,-0.06623239776334755
146.395,0.0697570317198749,-0.0697570317198749
146.39600000000002,0.07465550434041324,-0.07465550434041324
146.39700000000002,0.07919489649480871,-0.07919489649480871
146.398,0.08139871528687526,-0.08139871528687526
146.399,0.07979209946120425,-0.07979209946120425
146.4,0.07404179270403888,-0.07404179270403888
146.401,0.06523005604391707,-0.06523005604391707
146.40200000000002,0.055625833985996076,-0.055625833985996076
146.40300000000002,0.04800033616323063,-0.04800033616323063
146.404,0.0447098127078176,-0.0447098127078176
146.405,0.04686854448187039,-0.04686854448187039
146.406,0.05391901120671849,-0.05391901120671849
146.407,0.06377523313719269,-0.06377523313719269
146.40800000000002,0.0735137167901817,-0.0735137167901817
146.40900000000002,0.08038612289842184,-0.08038612289842184
146.41,0.08280220159740725,-0.08280220159740725
146.411,0.08092882690391234,-0.08092882690391234
146.412,0.0766757037305813,-0.0766757037305813
146.413,0.07304904836994008,-0.07304904836994008
146.41400000000002,0.07307793822289166,-0.07307793822289166
146.41500000000002,0.07867486996713369,-0.07867486996713369
146.416,0.08982561149688217,-0.08982561149688217
146.417,0.10439994163113087,-0.10439994163113087
146.418,0.11866884505563735,-0.11866884505563735
146.419,0.12837591603434673,-0.12837591603434673
146.42000000000002,0.13002317471861313,-0.13002317471861313
146.42100000000002,0.12195863797515694,-0.12195863797515694
146.422,0.10491905248103883,-0.10491905248103883
146.423,0.08186209112435583,-0.08186209112435583
146.424,0.05715462906886193,-0.05715462906886193
146.425,0.03538756059240755,-0.03538756059240755
146.42600000000002,0.020194889419948403,-0.020194889419948403
146.42700000000002,0.013432767305622262,-0.013432767305622262
146.428,0.014935858732472718,-0.014935858732472718
146.429,0.022866761179541895,-0.022866761179541895
146.43,0.034481831619544656,-0.034481831619544656
146.431,0.0470194981566866,-0.0470194981566866
146.43200000000002,0.058410797415005544,-0.058410797415005544
146.43300000000002,0.06761069231672245,-0.06761069231672245
146.434,0.07450924697031314,-0.07450924697031314
146.435,0.07954046825272654,-0.07954046825272654
146.436,0.08320442492593794,-0.08320442492593794
146.437,0.0857223049507847,-0.0857223049507847
146.43800000000002,0.08695925629285028,-0.08695925629285028
146.43900000000002,0.08661553063352678,-0.08661553063352678
146.44,0.08456009764537742,-0.08456009764537742
146.441,0.08111513531028369,-0.08111513531028369
146.442,0.07712160498743004,-0.07712160498743004
146.443,0.07371625178776664,-0.07371625178776664
146.44400000000002,0.07188704789572742,-0.07188704789572742
146.44500000000002,0.07198948848661457,-0.07198948848661457
146.446,0.07344939188728605,-0.07344939188728605
146.447,0.07482571874753696,-0.07482571874753696
146.448,0.07427410108473687,-0.07427410108473687
146.449,0.07028659281268801,-0.07028659281268801
146.45000000000002,0.06245005229835887,-0.06245005229835887
146.45100000000002,0.051920658926357444,-0.051920658926357444
146.452,0.0413809557507705,-0.0413809557507705
146.453,0.03441212160201024,-0.03441212160201024
146.454,0.034423451638279756,-0.034423451638279756
146.455,0.04345905736277167,-0.04345905736277167
146.45600000000002,0.061281049640721896,-0.061281049640721896
146.457,0.08507312445933057,-0.08507312445933057
146.458,0.1099289085518329,-0.1099289085518329
146.459,0.13004055479064514,-0.13004055479064514
146.46,0.14026672112992766,-0.14026672112992766
146.461,0.13761622844440446,-0.13761622844440446
146.46200000000002,0.122186392271593,-0.122186392271593
146.463,0.09724757458547229,-0.09724757458547229
146.464,0.06842195439135668,-0.06842195439135668
146.465,0.042183357872658256,-0.042183357872658256
146.466,0.024116166595224198,-0.024116166595224198
146.467,0.017446336519279293,-0.017446336519279293
146.46800000000002,0.02227231914057426,-0.02227231914057426
146.469,0.03570632218987635,-0.03570632218987635
146.47,0.052857504792994225,-0.052857504792994225
146.471,0.06833764311243595,-0.06833764311243595
146.472,0.0778248168394089,-0.0778248168394089
146.473,0.07922374601824267,-0.07922374601824267
146.47400000000002,0.0731056706559241,-0.0731056706559241
146.475,0.06234439399738456,-0.06234439399738456
146.476,0.051110488277716914,-0.051110488277716914
146.477,0.0435653671540942,-0.0435653671540942
146.478,0.042659297074248204,-0.042659297074248204
146.479,0.04937176157394518,-0.04937176157394518
146.48000000000002,0.0625699916718685,-0.0625699916718685
146.481,0.07946159140738329,-0.07946159140738329
146.482,0.0964463797322287,-0.0964463797322287
146.483,0.11008136911353317,-0.11008136911353317
146.484,0.11788051202263938,-0.11788051202263938
146.485,0.1187621034255516,-0.1187621034255516
146.48600000000002,0.11309031394750269,-0.11309031394750269
146.487,0.10238320292900116,-0.10238320292900116
146.488,0.08883737048752138,-0.08883737048752138
146.489,0.07483169619087238,-0.07483169619087238
146.49,0.06252832815842047,-0.06252832815842047
146.491,0.0536168913468098,-0.0536168913468098
146.49200000000002,0.04918259686144677,-0.04918259686144677
146.493,0.049646851225346844,-0.049646851225346844
146.494,0.05473786915546597,-0.05473786915546597
146.495,0.06348633930435854,-0.06348633930435854
146.496,0.07428186145269577,-0.07428186145269577
146.497,0.08504328720931253,-0.08504328720931253
146.49800000000002,0.09353540454291065,-0.09353540454291065
146.499,0.09780955968321348,-0.09780955968321348
146.5,0.09667865993565694,-0.09667865993565694
146.501,0.09008851966602904,-0.09008851966602904
146.502,0.07924462971739221,-0.07924462971739221
146.503,0.06640683270060954,-0.06640683270060954
146.50400000000002,0.05436233290087944,-0.05436233290087944
146.505,0.04569843094191128,-0.04569843094191128
146.506,0.04207985368246203,-0.04207985368246203
146.507,0.043757215464671595,-0.043757215464671595
146.508,0.04947856453549093,-0.04947856453549093
146.509,0.05685758028496313,-0.05685758028496313
146.51000000000002,0.06310634357092926,-0.06310634357092926
146.511,0.06591646237047832,-0.06591646237047832
146.512,0.06421368730788712,-0.06421368730788712
146.513,0.05854123593360938,-0.05854123593360938
146.514,0.05093924981762976,-0.05093924981762976
146.515,0.04434696066951216,-0.04434696066951216
146.51600000000002,0.041707988926704576,-0.041707988926704576
146.517,0.04505620181870251,-0.04505620181870251
146.518,0.0548667603868086,-0.0548667603868086
146.519,0.06987161171843093,-0.06987161171843093
146.52,0.08738930399950318,-0.08738930399950318
146.52100000000002,0.10405576959474938,-0.10405576959474938
146.52200000000002,0.11672007472502444,-0.11672007472502444
146.523,0.12322705232650877,-0.12322705232650877
146.524,0.12285912387394426,-0.12285912387394426
146.525,0.11633259401644092,-0.11633259401644092
146.526,0.10539501423456255,-0.10539501423456255
146.52700000000002,0.09219707309502756,-0.09219707309502756
146.52800000000002,0.07867216324627513,-0.07867216324627513
146.529,0.06613141010440371,-0.06613141010440371
146.53,0.055184220274093865,-0.055184220274093865
146.531,0.04596243109873632,-0.04596243109873632
146.532,0.03850932831892373,-0.03850932831892373
146.53300000000002,0.03313592907522733,-0.03313592907522733
146.53400000000002,0.030566841546450507,-0.030566841546450507
146.535,0.031788334951667885,-0.031788334951667885
146.536,0.03763767335406987,-0.03763767335406987
146.537,0.04828759699123164,-0.04828759699123164
146.538,0.06283930260711157,-0.06283930260711157
146.53900000000002,0.07921735298197208,-0.07921735298197208
146.54000000000002,0.09446512120331307,-0.09446512120331307
146.541,0.10540127991172721,-0.10540127991172721
146.542,0.10946429719768691,-0.10946429719768691
146.543,0.10549023852591322,-0.10549023852591322
146.544,0.09416974773349907,-0.09416974773349907
146.54500000000002,0.07801562254255445,-0.07801562254255445
146.54600000000002,0.06081690850117949,-0.06081690850117949
146.547,0.04671285538197145,-0.04671285538197145
146.548,0.039139714808535064,-0.039139714808535064
146.549,0.03994668391981204,-0.03994668391981204
146.55,0.04893050386545206,-0.04893050386545206
146.55100000000002,0.0639163513959764,-0.0639163513959764
146.55200000000002,0.08135421800531073,-0.08135421800531073
146.553,0.09725400877823176,-0.09725400877823176
146.554,0.10819282148235942,-0.10819282148235942
146.555,0.11211906929862936,-0.11211906929862936
146.556,0.10874921007003435,-0.10874921007003435
146.55700000000002,0.09947853863513612,-0.09947853863513612
146.55800000000002,0.08686748069063965,-0.08686748069063965
146.559,0.07387717245831671,-0.07387717245831671
146.56,0.06308225788389576,-0.06308225788389576
146.561,0.05607403054079252,-0.05607403054079252
146.562,0.05319391297797327,-0.05319391297797327
146.56300000000002,0.05363256985190801,-0.05363256985190801
146.56400000000002,0.05582687117899909,-0.05582687117899909
146.565,0.05801435681641731,-0.05801435681641731
146.566,0.05877928588061765,-0.05877928588061765
146.567,0.057446571605096364,-0.057446571605096364
146.568,0.05423700477436333,-0.05423700477436333
146.56900000000002,0.05016851479436035,-0.05016851479436035
146.57000000000002,0.04675279531123411,-0.04675279531123411
146.571,0.04557923671640807,-0.04557923671640807
146.572,0.047892556448215884,-0.047892556448215884
146.573,0.054259258982451875,-0.054259258982451875
146.574,0.06438922294408533,-0.06438922294408533
146.57500000000002,0.07714210296490798,-0.07714210296490798
146.57600000000002,0.09071201184829192,-0.09071201184829192
146.577,0.10295312891295472,-0.10295312891295472
146.578,0.11178573023189187,-0.11178573023189187
146.579,0.11560772147043008,-0.11560772147043008
146.58,0.11363243201059514,-0.11363243201059514
146.58100000000002,0.1060812726674858,-0.1060812726674858
146.582,0.09418165594866301,-0.09418165594866301
146.583,0.07995588802045395,-0.07995588802045395
146.584,0.06583110427828764,-0.06583110427828764
146.585,0.054144788206131,-0.054144788206131
146.586,0.04665311731462174,-0.04665311731462174
146.58700000000002,0.04415895190960151,-0.04415895190960151
146.588,0.04635605794889486,-0.04635605794889486
146.589,0.05193755151532442,-0.05193755151532442
146.59,0.05895010114777788,-0.05895010114777788
146.591,0.0653086736983286,-0.0653086736983286
146.592,0.06933923682350596,-0.06933923682350596
146.59300000000002,0.07020441181212,-0.07020441181212
146.594,0.06809559709433188,-0.06809559709433188
146.595,0.06413824370733656,-0.06413824370733656
146.596,0.06003734641661107,-0.06003734641661107
146.597,0.05756428361394428,-0.05756428361394428
146.598,0.058031505921864346,-0.058031505921864346
146.59900000000002,0.061904186999265254,-0.061904186999265254
146.6,0.0686567889181301,-0.0686567889181301
146.601,0.07691010173807322,-0.07691010173807322
146.602,0.08480290905341481,-0.08480290905341481
146.603,0.09048681414847537,-0.09048681414847537
146.604,0.09260238988733482,-0.09260238988733482
146.60500000000002,0.09060764428295609,-0.09060764428295609
146.606,0.08487996627001237,-0.08487996627001237
146.607,0.0765828333159414,-0.0765828333159414
146.608,0.06735571189508505,-0.06735571189508505
146.609,0.05892903836847019,-0.05892903836847019
146.61,0.052774130154637944,-0.052774130154637944
146.61100000000002,0.0498709770815694,-0.0498709770815694
146.612,0.050627330255413217,-0.050627330255413217
146.613,0.054929389891953395,-0.054929389891953395
146.614,0.06226659942155077,-0.06226659942155077
146.615,0.07186267641744482,-0.07186267641744482
146.616,0.08276330206640448,-0.08276330206640448
146.61700000000002,0.09386821654319522,-0.09386821654319522
146.618,0.10393520493199915,-0.10393520493199915
146.619,0.11160837078682884,-0.11160837078682884
146.62,0.11552187331945718,-0.11552187331945718
146.621,0.11450192014930027,-0.11450192014930027
146.622,0.10784410582941195,-0.10784410582941195
146.62300000000002,0.0955974949976569,-0.0955974949976569
146.624,0.0787597797562104,-0.0787597797562104
146.625,0.0592924587698348,-0.0592924587698348
146.626,0.03990375810899116,-0.03990375810899116
146.627,0.023610349258026075,-0.023610349258026075
146.628,0.013157874510463574,-0.013157874510463574
146.62900000000002,0.010432595757426832,-0.010432595757426832
146.63,0.01601389828732591,-0.01601389828732591
146.631,0.028991909685676664,-0.028991909685676664
146.632,0.04711136658473547,-0.04711136658473547
146.633,0.06721925971899767,-0.06721925971899767
146.634,0.08591367809825157,-0.08591367809825157
146.63500000000002,0.10023802065004439,-0.10023802065004439
146.636,0.10825387410767162,-0.10825387410767162
146.637,0.10936029248467294,-0.10936029248467294
146.638,0.10429648436683836,-0.10429648436683836
146.639,0.09484853388586578,-0.09484853388586578
146.64,0.08335466748013376,-0.08335466748013376
146.64100000000002,0.07214741963879656,-0.07214741963879656
146.642,0.06307428083961986,-0.06307428083961986
146.643,0.057202958014383465,-0.057202958014383465
146.644,0.05475643336252378,-0.05475643336252378
146.645,0.05525635812054064,-0.05525635812054064
146.64600000000002,0.05780086624789593,-0.05780086624789593
146.64700000000002,0.06137850698422431,-0.06137850698422431
146.648,0.06512764107204083,-0.06512764107204083
146.649,0.06848393084082205,-0.06848393084082205
146.65,0.07120364974916515,-0.07120364974916515
146.651,0.07329133119274667,-0.07329133119274667
146.65200000000002,0.07488393138010507,-0.07488393138010507
146.65300000000002,0.07614469540449598,-0.07614469540449598
146.654,0.07720138912379437,-0.07720138912379437
146.655,0.07813536127379084,-0.07813536127379084
146.656,0.07900252620318893,-0.07900252620318893
146.657,0.0798550487589883,-0.0798550487589883
146.65800000000002,0.08073742924557847,-0.08073742924557847
146.65900000000002,0.08164951671206788,-0.08164951671206788
146.66,0.08249246476767991,-0.08249246476767991
146.661,0.08303042689854068,-0.08303042689854068
146.662,0.08290212130323782,-0.08290212130323782
146.663,0.08169992288204975,-0.08169992288204975
146.66400000000002,0.07910524999279289,-0.07910524999279289
146.66500000000002,0.07503913825030517,-0.07503913825030517
146.666,0.06976926286984797,-0.06976926286984797
146.667,0.06391901300962044,-0.06391901300962044
146.668,0.058352395387455736,-0.058352395387455736
146.669,0.05395286970224955,-0.05395286970224955
146.67000000000002,0.05135937872778662,-0.05135937872778662
146.67100000000002,0.05075095969619248,-0.05075095969619248
146.672,0.051768620071917404,-0.051768620071917404
146.673,0.053625765517835156,-0.053625765517835156
146.674,0.05539522327013824,-0.05539522327013824
146.675,0.05639171276914057,-0.05639171276914057
146.67600000000002,0.05651848810584503,-0.05651848810584503
146.67700000000002,0.05643737906884383,-0.05643737906884383
146.678,0.05746237082550676,-0.05746237082550676
146.679,0.06116109126133973,-0.06116109126133973
146.68,0.06875248512565935,-0.06875248512565935
146.681,0.08047862352466462,-0.08047862352466462
146.68200000000002,0.09517043288752536,-0.09517043288752536
146.68300000000002,0.11019960751884883,-0.11019960751884883
146.684,0.1219115555630026,-0.1219115555630026
146.685,0.12649007223628983,-0.12649007223628983
146.686,0.12105531363984978,-0.12105531363984978
146.687,0.10469105403621715,-0.10469105403621715
146.68800000000002,0.07907496147867055,-0.07907496147867055
146.68900000000002,0.04846379303340109,-0.04846379303340109
146.69,0.018950422458217764,-0.018950422458217764
146.691,0.002881309424042744,0.002881309424042744
146.692,0.01158568211707478,0.01158568211707478
146.693,0.004335545731875889,0.004335545731875889
146.69400000000002,0.018173021833584158,-0.018173021833584158
146.69500000000002,0.05168598906485933,-0.05168598906485933
146.696,0.08929120048348693,-0.08929120048348693
146.697,0.12305431504804298,-0.12305431504804298
146.698,0.14597289462927454,-0.14597289462927454
146.699,0.1537228308031896,-0.1537228308031896
146.70000000000002,0.14571256161907165,-0.14571256161907165
146.70100000000002,0.12514463820894417,-0.12514463820894417
146.702,0.09806118466861535,-0.09806118466861535
146.703,0.07163971727180485,-0.07163971727180485
146.704,0.05222238903637999,-0.05222238903637999
146.705,0.04363884949011143,-0.04363884949011143
146.70600000000002,0.04629546135877327,-0.04629546135877327
146.707,0.05727622073309602,-0.05727622073309602
146.708,0.07140102890234878,-0.07140102890234878
146.709,0.08290531308469484,-0.08290531308469484
146.71,0.08722668109565046,-0.08722668109565046
146.711,0.08236301299646465,-0.08236301299646465
146.71200000000002,0.06940736802968939,-0.06940736802968939
146.713,0.05212337354034502,-0.05212337354034502
146.714,0.035719381772159275,-0.035719381772159275
146.715,0.025219171882391977,-0.025219171882391977
146.716,0.023938258497311682,-0.023938258497311682
146.717,0.032526140413291715,-0.032526140413291715
146.71800000000002,0.04884513502580767,-0.04884513502580767
146.719,0.06868891820387779,-0.06868891820387779
146.72,0.08708484999655697,-0.08708484999655697
146.721,0.09975505938042695,-0.09975505938042695
146.722,0.10428256820196313,-0.10428256820196313
146.723,0.10064438474081305,-0.10064438474081305
146.72400000000002,0.09099075408653057,-0.09099075408653057
146.725,0.07879439472528893,-0.07879439472528893
146.726,0.0676850943269578,-0.0676850943269578
146.727,0.06036345382125108,-0.06036345382125108
146.728,0.05793255882202242,-0.05793255882202242
146.729,0.059822861038752784,-0.059822861038752784
146.73000000000002,0.06427389591876731,-0.06427389591876731
146.731,0.06915078348590509,-0.06915078348590509
146.732,0.07277598032164823,-0.07277598032164823
146.733,0.07447679417452446,-0.07447679417452446
146.734,0.07467404329311556,-0.07467404329311556
146.735,0.07451791478552727,-0.07451791478552727
146.73600000000002,0.0752464466353997,-0.0752464466353997
146.737,0.07753916864349553,-0.07753916864349553
146.738,0.08113006326179306,-0.08113006326179306
146.739,0.08483601212733816,-0.08483601212733816
146.74,0.086991445248631,-0.086991445248631
146.741,0.08611967923031738,-0.08611967923031738
146.74200000000002,0.08157654132226233,-0.08157654132226233
146.743,0.07390791595168722,-0.07390791595168722
146.744,0.0647678828870083,-0.0647678828870083
146.745,0.05640937257439227,-0.05640937257439227
146.746,0.05092329147533081,-0.05092329147533081
146.747,0.04950324454972144,-0.04950324454972144
146.74800000000002,0.052012246842770726,-0.052012246842770726
146.749,0.05702336432717858,-0.05702336432717858
146.75,0.06233469120438606,-0.06233469120438606
146.751,0.06578264611991036,-0.06578264611991036
146.752,0.06606154184254442,-0.06606154184254442
146.753,0.0632461743463617,-0.0632461743463617
146.75400000000002,0.058814592396178145,-0.058814592396178145
146.755,0.055146137952316265,-0.055146137952316265
146.756,0.05466188109945047,-0.05466188109945047
146.757,0.05891058122035131,-0.05891058122035131
146.758,0.06793197513166083,-0.06793197513166083
146.759,0.08013726458688708,-0.08013726458688708
146.76000000000002,0.09276473130048268,-0.09276473130048268
146.761,0.1027607736169105,-0.1027607736169105
146.762,0.10777872838836366,-0.10777872838836366
146.763,0.10693876742141917,-0.10693876742141917
146.764,0.10107275148155881,-0.10107275148155881
146.765,0.09236195943091752,-0.09236195943091752
146.76600000000002,0.08349807127857178,-0.08349807127857178
146.767,0.07667754947508454,-0.07667754947508454
146.768,0.07280867517999323,-0.07280867517999323
146.769,0.071239565107591,-0.071239565107591
146.77,0.07012584972764346,-0.07012584972764346
146.77100000000002,0.06731442101735574,-0.06731442101735574
146.77200000000002,0.061413061592645035,-0.061413061592645035
146.773,0.05262385591788399,-0.05262385591788399
146.774,0.042981394202770695,-0.042981394202770695
146.775,0.03584006126067463,-0.03584006126067463
146.776,0.0347309550603383,-0.0347309550603383
146.77700000000002,0.04196058068575448,-0.04196058068575448
146.77800000000002,0.05745627825972588,-0.05745627825972588
146.779,0.07832091521542184,-0.07832091521542184
146.78,0.09934518741460052,-0.09934518741460052
146.781,0.11440520929679587,-0.11440520929679587
146.782,0.11835295519008249,-0.11835295519008249
146.78300000000002,0.1088005459297744,-0.1088005459297744
146.78400000000002,0.0871858442190524,-0.0871858442190524
146.785,0.05870282286500628,-0.05870282286500628
146.786,0.031030478122095917,-0.031030478122095917
146.787,0.012187607092859487,-0.012187607092859487
146.788,0.008146502348581386,-0.008146502348581386
146.78900000000002,0.020949632546287233,-0.020949632546287233
146.79000000000002,0.047944333788443205,-0.047944333788443205
146.791,0.08241525667663785,-0.08241525667663785
146.792,0.11545691325816676,-0.11545691325816676
146.793,0.13853048618436103,-0.13853048618436103
146.794,0.14592206505738392,-0.14592206505738392
146.79500000000002,0.1363416853680981,-0.1363416853680981
146.79600000000002,0.11317073230823271,-0.11317073230823271
146.797,0.08329454009830806,-0.08329454009830806
146.798,0.05490794858720638,-0.05490794858720638
146.799,0.035006176163863145,-0.035006176163863145
146.8,0.027364510594155123,-0.027364510594155123
146.80100000000002,0.03163800300820374,-0.03163800300820374
146.80200000000002,0.04383427279298002,-0.04383427279298002
146.803,0.05795516879925944,-0.05795516879925944
146.804,0.06821936182389343,-0.06821936182389343
146.805,0.07109597869434015,-0.07109597869434015
146.806,0.06645894699853727,-0.06645894699853727
146.80700000000002,0.05748415594179346,-0.05748415594179346
146.80800000000002,0.049349442409454936,-0.049349442409454936
146.809,0.047211083213875016,-0.047211083213875016
146.81,0.05417884060579681,-0.05417884060579681
146.811,0.07001024752900464,-0.07001024752900464
146.812,0.09099471562181116,-0.09099471562181116
146.81300000000002,0.11108521949224859,-0.11108521949224859
146.81400000000002,0.12390140344964473,-0.12390140344964473
146.815,0.12492184463238587,-0.12492184463238587
146.816,0.11311011632082346,-0.11311011632082346
146.817,0.0914048660321809,-0.0914048660321809
146.818,0.06588567472301321,-0.06588567472301321
146.81900000000002,0.043874437607168915,-0.043874437607168915
146.82000000000002,0.031594205554491994,-0.031594205554491994
146.821,0.03216088279768581,-0.03216088279768581
146.822,0.044575921635115145,-0.044575921635115145
146.823,0.06405664257993282,-0.06405664257993282
146.824,0.08359716831012132,-0.08359716831012132
146.82500000000002,0.0962465756443327,-0.0962465756443327
146.82600000000002,0.09735755347058561,-0.09735755347058561
146.827,0.0860750331856659,-0.0860750331856659
146.828,0.06559174759692987,-0.06559174759692987
146.829,0.04210743585504517,-0.04210743585504517
146.83,0.02285169444438495,-0.02285169444438495
146.83100000000002,0.013826388859230265,-0.013826388859230265
146.832,0.017996627102856433,-0.017996627102856433
146.833,0.03449085530961038,-0.03449085530961038
146.834,0.059023400854174235,-0.059023400854174235
146.835,0.08534781381414025,-0.08534781381414025
146.836,0.10722356159523161,-0.10722356159523161
146.83700000000002,0.12023792845092351,-0.12023792845092351
146.838,0.12290917144522318,-0.12290917144522318
146.839,0.11676825449351158,-0.11676825449351158
146.84,0.10547478458567294,-0.10547478458567294
146.841,0.09334227705088805,-0.09334227705088805
146.842,0.08382119119858689,-0.08382119119858689
146.84300000000002,0.07846285262897734,-0.07846285262897734
146.844,0.07668214229634196,-0.07668214229634196
146.845,0.07633245496237973,-0.07633245496237973
146.846,0.07481510218051979,-0.07481510218051979
146.847,0.07026993360300882,-0.07026993360300882
146.848,0.062391855309598676,-0.062391855309598676
146.84900000000002,0.05258211103790822,-0.05258211103790822
146.85,0.04340689035918166,-0.04340689035918166
146.851,0.03759849157863193,-0.03759849157863193
146.852,0.03699904007056343,-0.03699904007056343
146.853,0.04185567705269144,-0.04185567705269144
146.854,0.050730365061581906,-0.050730365061581906
146.85500000000002,0.0610455686857857,-0.0610455686857857
146.856,0.07004226531551838,-0.07004226531551838
146.857,0.07577173914563284,-0.07577173914563284
146.858,0.07773516478086273,-0.07773516478086273
146.859,0.0769266845288219,-0.0769266845288219
146.86,0.07527172377842895,-0.07527172377842895
146.86100000000002,0.0746921761422985,-0.0746921761422985
146.862,0.07618156057296332,-0.07618156057296332
146.863,0.07927690032075618,-0.07927690032075618
146.864,0.08216590217564546,-0.08216590217564546
146.865,0.08242155396641548,-0.08242155396641548
146.866,0.07810334574546696,-0.07810334574546696
146.86700000000002,0.06880145136566618,-0.06880145136566618
146.868,0.05619268630790575,-0.05619268630790575
146.869,0.04383406654104249,-0.04383406654104249
146.87,0.03618964171896477,-0.03618964171896477
146.871,0.037173846259979326,-0.037173846259979326
146.872,0.04869498282265372,-0.04869498282265372
146.87300000000002,0.06971877146188643,-0.06971877146188643
146.874,0.0962238939372364,-0.0962238939372364
146.875,0.12213420764355654,-0.12213420764355654
146.876,0.14098177476268126,-0.14098177476268126
146.877,0.14779510787279737,-0.14779510787279737
146.878,0.14061040272145287,-0.14061040272145287
146.87900000000002,0.12110781311959262,-0.12110781311959262
146.88,0.09414914938872265,-0.09414914938872265
146.881,0.06634787314073798,-0.06634787314073798
146.882,0.04411834191735331,-0.04411834191735331
146.883,0.031822171710259695,-0.031822171710259695
146.884,0.03059708905191383,-0.03059708905191383
146.88500000000002,0.038228129332840366,-0.038228129332840366
146.886,0.050078104652515165,-0.050078104652515165
146.887,0.06074893155464556,-0.06074893155464556
146.888,0.06591289907297337,-0.06591289907297337
146.889,0.06370960275744275,-0.06370960275744275
146.89,0.05526196407520012,-0.05526196407520012
146.89100000000002,0.04416760482771309,-0.04416760482771309
146.892,0.03516596061063837,-0.03516596061063837
146.893,0.03245087750590614,-0.03245087750590614
146.894,0.038204372616631344,-0.038204372616631344
146.895,0.05183795111452438,-0.05183795111452438
146.89600000000002,0.0701780648324224,-0.0701780648324224
146.89700000000002,0.08850999752574806,-0.08850999752574806
146.898,0.10210996995385013,-0.10210996995385013
146.899,0.10774321674383214,-0.10774321674383214
146.9,0.10463349069154992,-0.10463349069154992
146.901,0.09460207789028519,-0.09460207789028519
146.90200000000002,0.08136180877861199,-0.08136180877861199
146.90300000000002,0.06923369897095333,-0.06923369897095333
146.904,0.061735746789942536,-0.061735746789942536
146.905,0.060517210263178245,-0.060517210263178245
146.906,0.06497516039386775,-0.06497516039386775
146.907,0.07264552857278861,-0.07264552857278861
146.90800000000002,0.08019530210297565,-0.08019530210297565
146.90900000000002,0.08464693274287938,-0.08464693274287938
146.91,0.08440410974587309,-0.08440410974587309
146.911,0.07973554186026299,-0.07973554186026299
146.912,0.07257450362368045,-0.07257450362368045
146.913,0.0657335164209093,-0.0657335164209093
146.91400000000002,0.06183161554382144,-0.06183161554382144
146.91500000000002,0.06232032379974972,-0.06232032379974972
146.916,0.06694770178544629,-0.06694770178544629
146.917,0.07383874252013611,-0.07383874252013611
146.918,0.0801539306589012,-0.0801539306589012
146.919,0.08309130132116449,-0.08309130132116449
146.92000000000002,0.08088622955485236,-0.08088622955485236
146.92100000000002,0.07347138499683903,-0.07347138499683903
146.922,0.06257932989729409,-0.06257932989729409
146.923,0.05125781685667963,-0.05125781685667963
146.924,0.04295849804936158,-0.04295849804936158
146.925,0.040491367301167425,-0.040491367301167425
146.92600000000002,0.04517038740635815,-0.04517038740635815
146.92700000000002,0.05640518037051323,-0.05640518037051323
146.928,0.07184776490925326,-0.07184776490925326
146.929,0.08803248611665704,-0.08803248611665704
146.93,0.10130592024808227,-0.10130592024808227
146.931,0.10877238123209187,-0.10877238123209187
146.93200000000002,0.1089950645157477,-0.1089950645157477
146.93300000000002,0.10228052792983733,-0.10228052792983733
146.934,0.0905020223672851,-0.0905020223672851
146.935,0.07654400126420569,-0.07654400126420569
146.936,0.06354047522473583,-0.06354047522473583
146.937,0.054113897954515267,-0.054113897954515267
146.93800000000002,0.0497982386109308,-0.0497982386109308
146.93900000000002,0.05076498654372008,-0.05076498654372008
146.94,0.05588748410859723,-0.05588748410859723
146.941,0.0631002567618244,-0.0631002567618244
146.942,0.06995218406008163,-0.06995218406008163
146.943,0.07422250419186216,-0.07422250419186216
146.94400000000002,0.07446608355762407,-0.07446608355762407
146.94500000000002,0.07037426807599956,-0.07037426807599956
146.946,0.06287441757787504,-0.06287441757787504
146.947,0.053940212423721046,-0.053940212423721046
146.948,0.04614138641652621,-0.04614138641652621
146.949,0.04201902518571832,-0.04201902518571832
146.95000000000002,0.0434207302155889,-0.0434207302155889
146.95100000000002,0.050955659304927736,-0.050955659304927736
146.952,0.06372027643992284,-0.06372027643992284
146.953,0.079395288140925,-0.079395288140925
146.954,0.09472763394053274,-0.09472763394053274
146.955,0.10630668310978031,-0.10630668310978031
146.95600000000002,0.11144946260787247,-0.11144946260787247
146.957,0.10895688121223757,-0.10895688121223757
146.958,0.09951465321245057,-0.09951465321245057
146.959,0.08559450664161039,-0.08559450664161039
146.96,0.07084639952679206,-0.07084639952679206
146.961,0.0591240899260308,-0.0591240899260308
146.96200000000002,0.053407876480620176,-0.053407876480620176
146.963,0.0549379211822989,-0.0549379211822989
146.964,0.06282717649453573,-0.06282717649453573
146.965,0.0742914281566528,-0.0742914281566528
146.966,0.08545134667152576,-0.08545134667152576
146.967,0.09248303954880543,-0.09248303954880543
146.96800000000002,0.0927768700154541,-0.0927768700154541
146.969,0.08574979896342427,-0.08574979896342427
146.97,0.07305340724299503,-0.07305340724299503
146.971,0.05810130998042795,-0.05810130998042795
146.972,0.04505049185593002,-0.04505049185593002
146.973,0.03754438606496946,-0.03754438606496946
146.97400000000002,0.037604792882964144,-0.037604792882964144
146.975,0.04501768871884959,-0.04501768871884959
146.976,0.05740616851166802,-0.05740616851166802
146.977,0.07096951492085246,-0.07096951492085246
146.978,0.08165875174010129,-0.08165875174010129
146.979,0.08642270191915902,-0.08642270191915902
146.98000000000002,0.08413802326504549,-0.08413802326504549
146.981,0.07593800244646565,-0.07593800244646565
146.982,0.06484483525099505,-0.06484483525099505
146.983,0.05482733243190785,-0.05482733243190785
146.984,0.049581233830521376,-0.049581233830521376
146.985,0.05140812310706311,-0.05140812310706311
146.98600000000002,0.060528978058507765,-0.060528978058507765
146.987,0.07502588382308006,-0.07502588382308006
146.988,0.09140872201713368,-0.09140872201713368
146.989,0.10561641955702739,-0.10561641955702739
146.99,0.11414241706091621,-0.11414241706091621
146.991,0.11495492840161825,-0.11495492840161825
146.99200000000002,0.10796397363339638,-0.10796397363339638
146.993,0.09493695248683975,-0.09493695248683975
146.994,0.07893123297306559,-0.07893123297306559
146.995,0.06344316448219867,-0.06344316448219867
146.996,0.05153140848404636,-0.05153140848404636
146.997,0.04514846706757836,-0.04514846706757836
146.99800000000002,0.04482516238416223,-0.04482516238416223
146.999,0.0497348042737602,-0.0497348042737602
147.0,0.058057701387048244,-0.058057701387048244
147.001,0.0675035140857827,-0.0675035140857827
147.002,0.07584043297595777,-0.07584043297595777
147.003,0.08131727094561225,-0.08131727094561225
147.00400000000002,0.08292384974271072,-0.08292384974271072
147.005,0.0804897669004021,-0.0804897669004021
147.006,0.07465271961460784,-0.07465271961460784
147.007,0.0667305127877037,-0.0667305127877037
147.008,0.05851563610715704,-0.05851563610715704
147.009,0.051995910173486704,-0.051995910173486704
147.01000000000002,0.0490056285804239,-0.0490056285804239
147.011,0.05083501536531432,-0.05083501536531432
147.012,0.05786367500636003,-0.05786367500636003
147.013,0.0693166834167841,-0.0693166834167841
147.014,0.08324780854010183,-0.08324780854010183
147.015,0.09681858816866118,-0.09681858816866118
147.01600000000002,0.1068662721675201,-0.1068662721675201
147.017,0.11065790649838714,-0.11065790649838714
147.018,0.10664491703043055,-0.10664491703043055
147.019,0.09499659568439345,-0.09499659568439345
147.02,0.07772387447031448,-0.07772387447031448
147.02100000000002,0.05830621468803754,-0.05830621468803754
147.02200000000002,0.040878698258727364,-0.040878698258727364
147.023,0.02917926170771068,-0.02917926170771068
147.024,0.025548804820330395,-0.025548804820330395
147.025,0.030283589022883084,-0.030283589022883084
147.026,0.0415503420204304,-0.0415503420204304
147.02700000000002,0.05591212323323702,-0.05591212323323702
147.02800000000002,0.0693259708827717,-0.0693259708827717
147.029,0.07832159187730436,-0.07832159187730436
147.03,0.08100519215785917,-0.08100519215785917
147.031,0.0775788021895164,-0.0775788021895164
147.032,0.07021191841024066,-0.07021191841024066
147.03300000000002,0.062304148559188754,-0.062304148559188754
147.03400000000002,0.0573703994686966,-0.0573703994686966
147.035,0.05790102312176326,-0.05790102312176326
147.036,0.06455785095606603,-0.06455785095606603
147.037,0.0759592949842618,-0.0759592949842618
147.038,0.08911810105406093,-0.08911810105406093
147.03900000000002,0.10038559191877594,-0.10038559191877594
147.04000000000002,0.10659491876498584,-0.10659491876498584
147.041,0.10603558262578561,-0.10603558262578561
147.042,0.09895139013288234,-0.09895139013288234
147.043,0.08741330120520874,-0.08741330120520874
147.044,0.07462376050790898,-0.07462376050790898
147.04500000000002,0.0638918586948134,-0.0638918586948134
147.04600000000002,0.05761910736652831,-0.05761910736652831
147.047,0.056622079061049546,-0.056622079061049546
147.048,0.05999755424985842,-0.05999755424985842
147.049,0.06555069719593942,-0.06555069719593942
147.05,0.070620474554278,-0.070620474554278
147.05100000000002,0.07301137063730434,-0.07301137063730434
147.05200000000002,0.07171671547198155,-0.07171671547198155
147.053,0.06720162227238746,-0.06720162227238746
147.054,0.06117139987751463,-0.06117139987751463
147.055,0.055928367879966134,-0.055928367879966134
147.056,0.05355523501155768,-0.05355523501155768
147.05700000000002,0.05521164092074926,-0.05521164092074926
147.05800000000002,0.060778337051392683,-0.060778337051392683
147.059,0.06895225968112328,-0.06895225968112328
147.06,0.07773385717825554,-0.07773385717825554
147.061,0.08511335025218059,-0.08511335025218059
147.062,0.089701935813016,-0.089701935813016
147.06300000000002,0.09108673648038124,-0.09108673648038124
147.06400000000002,0.0898002172240131,-0.0898002172240131
147.065,0.08694334165958939,-0.08694334165958939
147.066,0.08363180391371705,-0.08363180391371705
147.067,0.08049841267315794,-0.08049841267315794
147.068,0.07745877527549516,-0.07745877527549516
147.06900000000002,0.07384138738143098,-0.07384138738143098
147.07000000000002,0.06883618519019685,-0.06883618519019685
147.071,0.06208227484530515,-0.06208227484530515
147.072,0.05414659857091286,-0.05414659857091286
147.073,0.04666897410939286,-0.04666897410939286
147.074,0.04206041416491435,-0.04206041416491435
147.07500000000002,0.0428039256808439,-0.0428039256808439
147.07600000000002,0.05056336862313038,-0.05056336862313038
147.077,0.06539951588938209,-0.06539951588938209
147.078,0.08538621358628073,-0.08538621358628073
147.079,0.10681001053442907,-0.10681001053442907
147.08,0.12495608629979016,-0.12495608629979016
147.08100000000002,0.13528976044365582,-0.13528976044365582
147.082,0.1347009416931294,-0.1347009416931294
147.083,0.12243806351339903,-0.12243806351339903
147.084,0.10043563167056124,-0.10043563167056124
147.085,0.07291403451921175,-0.07291403451921175
147.086,0.04534794408899456,-0.04534794408899456
147.08700000000002,0.02309159495843316,-0.02309159495843316
147.088,0.010054006177238839,-0.010054006177238839
147.089,0.007800982465102635,-0.007800982465102635
147.09,0.015328518696436144,-0.015328518696436144
147.091,0.02954634998820549,-0.02954634998820549
147.092,0.04629659911942707,-0.04629659911942707
147.09300000000002,0.061578450388355965,-0.061578450388355965
147.094,0.07260305356570207,-0.07260305356570207
147.095,0.07837553516221063,-0.07837553516221063
147.096,0.0796662760126885,-0.0796662760126885
147.097,0.07843523450111745,-0.07843523450111745
147.098,0.07694435389537113,-0.07694435389537113
147.09900000000002,0.07687909930692338,-0.07687909930692338
147.1,0.07877580576590948,-0.07877580576590948
147.101,0.08192915551378543,-0.08192915551378543
147.102,0.08477860803801662,-0.08477860803801662
147.103,0.08560548243611721,-0.08560548243611721
147.104,0.08327054910538179,-0.08327054910538179
147.10500000000002,0.07771843725704075,-0.07771843725704075
147.106,0.0700681866550037,-0.0700681866550037
147.107,0.06226367547905398,-0.06226367547905398
147.108,0.05641756764210426,-0.05641756764210426
147.109,0.05409107956444503,-0.05409107956444503
147.11,0.055771500707114896,-0.055771500707114896
147.11100000000002,0.06073430139973035,-0.06073430139973035
147.112,0.06733488357892625,-0.06733488357892625
147.113,0.0736182179895124,-0.0736182179895124
147.114,0.07801951009996066,-0.07801951009996066
147.115,0.07989722803208699,-0.07989722803208699
147.116,0.07970283861591654,-0.07970283861591654
147.11700000000002,0.07872669061120874,-0.07872669061120874
147.118,0.07851765124044774,-0.07851765124044774
147.119,0.0801975454064342,-0.0801975454064342
147.12,0.0839343709189111,-0.0839343709189111
147.121,0.08878360138849117,-0.08878360138849117
147.122,0.09297292490460751,-0.09297292490460751
147.12300000000002,0.09454012734154782,-0.09454012734154782
147.124,0.09209678700883783,-0.09209678700883783
147.125,0.08543332854150765,-0.08543332854150765
147.126,0.07572732673772009,-0.07572732673772009
147.127,0.06525324031525026,-0.06525324031525026
147.128,0.05667128151620271,-0.05667128151620271
147.12900000000002,0.052131908652623515,-0.052131908652623515
147.13,0.05251180045974091,-0.05251180045974091
147.131,0.05706512435415001,-0.05706512435415001
147.132,0.06363750401744872,-0.06363750401744872
147.133,0.0693942408232554,-0.0693942408232554
147.134,0.07182701919890422,-0.07182701919890422
147.13500000000002,0.06969203562464776,-0.06969203562464776
147.136,0.06354016118752326,-0.06354016118752326
147.137,0.05562856971884789,-0.05562856971884789
147.138,0.04921248595669159,-0.04921248595669159
147.139,0.0474345851338579,-0.0474345851338579
147.14,0.05218134768768978,-0.05218134768768978
147.14100000000002,0.06330443459204971,-0.06330443459204971
147.142,0.07849620353126374,-0.07849620353126374
147.143,0.093894828326193,-0.093894828326193
147.144,0.10524673109589466,-0.10524673109589466
147.145,0.10925688720146487,-0.10925688720146487
147.14600000000002,0.10468067596544162,-0.10468067596544162
147.14700000000002,0.09278429911310848,-0.09278429911310848
147.148,0.07700322512036928,-0.07700322512036928
147.149,0.06189345443671357,-0.06189345443671357
147.15,0.05170929676347502,-0.05170929676347502
147.151,0.0490717087312702,-0.0490717087312702
147.15200000000002,0.05416669938724339,-0.05416669938724339
147.15300000000002,0.06473989230360555,-0.06473989230360555
147.154,0.07688821579473193,-0.07688821579473193
147.155,0.08638225413161804,-0.08638225413161804
147.156,0.09007422173286261,-0.09007422173286261
147.157,0.08691840102161286,-0.08691840102161286
147.15800000000002,0.07826364346998116,-0.07826364346998116
147.15900000000002,0.06732638999714602,-0.06732638999714602
147.16,0.05803265401433377,-0.05803265401433377
147.161,0.053632458934745886,-0.053632458934745886
147.162,0.05556631031371162,-0.05556631031371162
147.163,0.06297414971384907,-0.06297414971384907
147.16400000000002,0.07301365456914011,-0.07301365456914011
147.16500000000002,0.0818740223917005,-0.0818740223917005
147.166,0.0861306370720597,-0.0861306370720597
147.167,0.0839685256564654,-0.0839685256564654
147.168,0.07584875125111168,-0.07584875125111168
147.169,0.0643854760932453,-0.0643854760932453
147.17000000000002,0.05347488736921602,-0.05347488736921602
147.17100000000002,0.04697548380291228,-0.04697548380291228
147.172,0.04739295164820845,-0.04739295164820845
147.173,0.055019314485541315,-0.055019314485541315
147.174,0.06781744669575696,-0.06781744669575696
147.175,0.08208448215022723,-0.08208448215022723
147.17600000000002,0.09366118125083112,-0.09366118125083112
147.17700000000002,0.09927129136267432,-0.09927129136267432
147.178,0.09753772706433894,-0.09753772706433894
147.179,0.08934189451574293,-0.08934189451574293
147.18,0.07742480999425116,-0.07742480999425116
147.181,0.06539116447540338,-0.06539116447540338
147.18200000000002,0.056478203207762645,-0.056478203207762645
147.18300000000002,0.05252136982464617,-0.05252136982464617
147.184,0.05346625620349155,-0.05346625620349155
147.185,0.05757364886165217,-0.05757364886165217
147.186,0.062215333724338406,-0.062215333724338406
147.187,0.06495177416492603,-0.06495177416492603
147.18800000000002,0.06449101805869761,-0.06449101805869761
147.18900000000002,0.06118134063548586,-0.06118134063548586
147.19,0.056866258028761885,-0.056866258028761885
147.191,0.054164387518934154,-0.054164387518934154
147.192,0.0554436230568125,-0.0554436230568125
147.193,0.06186589721890956,-0.06186589721890956
147.19400000000002,0.07284926493088917,-0.07284926493088917
147.19500000000002,0.08614140608631538,-0.08614140608631538
147.196,0.09847978986487849,-0.09847978986487849
147.197,0.10660792759220838,-0.10660792759220838
147.198,0.10829710356822564,-0.10829710356822564
147.199,0.1030290184169177,-0.1030290184169177
147.20000000000002,0.09212111951143565,-0.09212111951143565
147.20100000000002,0.07827444885856905,-0.07827444885856905
147.202,0.06472093483387586,-0.06472093483387586
147.203,0.05427336654555348,-0.05427336654555348
147.204,0.0485950321240739,-0.0485950321240739
147.205,0.047907678090178596,-0.047907678090178596
147.20600000000002,0.051187199155064755,-0.051187199155064755
147.207,0.056721524376843746,-0.056721524376843746
147.208,0.06278887144258638,-0.06278887144258638
147.209,0.06819646329211926,-0.06819646329211926
147.21,0.07250081021411559,-0.07250081021411559
147.211,0.07587398008249824,-0.07587398008249824
147.21200000000002,0.07872678679769951,-0.07872678679769951
147.213,0.08129150186891321,-0.08129150186891321
147.214,0.08336911873390807,-0.08336911873390807
147.215,0.08436149058742715,-0.08436149058742715
147.216,0.08357397077114881,-0.08357397077114881
147.217,0.08064648507287897,-0.08064648507287897
147.21800000000002,0.07590414419424307,-0.07590414419424307
147.219,0.07044171302924229,-0.07044171302924229
147.22,0.06586200128369357,-0.06586200128369357
147.221,0.06373494932455381,-0.06373494932455381
147.222,0.06497231396297498,-0.06497231396297498
147.223,0.06936842861410863,-0.06936842861410863
147.22400000000002,0.07551387791065722,-0.07551387791065722
147.225,0.08115825037314595,-0.08115825037314595
147.226,0.08392783186099395,-0.08392783186099395
147.227,0.08215934513420142,-0.08215934513420142
147.228,0.07554958464625727,-0.07554958464625727
147.229,0.06537090229610576,-0.06537090229610576
147.23000000000002,0.05414986021232715,-0.05414986021232715
147.231,0.04489892372138926,-0.04489892372138926
147.232,0.04015760500119203,-0.04015760500119203
147.233,0.041176317824752395,-0.041176317824752395
147.234,0.047531816636397606,-0.047531816636397606
147.235,0.05731098253289724,-0.05731098253289724
147.23600000000002,0.0677945189039516,-0.0677945189039516
147.237,0.07638983026695412,-0.07638983026695412
147.238,0.0814719289661272,-0.0814719289661272
147.239,0.08282811491326203,-0.08282811491326203
147.24,0.08155410012787945,-0.08155410012787945
147.241,0.07945974797826716,-0.07945974797826716
147.24200000000002,0.0782316711522495,-0.0782316711522495
147.243,0.0786942030081248,-0.0786942030081248
147.244,0.08047137207024879,-0.08047137207024879
147.245,0.08219287173420486,-0.08219287173420486
147.246,0.08216642703821775,-0.08216642703821775
147.247,0.07924288488402531,-0.07924288488402531
147.24800000000002,0.07350758483615172,-0.07350758483615172
147.249,0.0664833346185808,-0.0664833346185808
147.25,0.06071277060662461,-0.06071277060662461
147.251,0.05883517381528913,-0.05883517381528913
147.252,0.06249033803326587,-0.06249033803326587
147.253,0.07148186088780728,-0.07148186088780728
147.25400000000002,0.08356728755415166,-0.08356728755415166
147.255,0.09502723206098285,-0.09502723206098285
147.256,0.10187340294608771,-0.10187340294608771
147.257,0.10129408388542493,-0.10129408388542493
147.258,0.09280784653801244,-0.09280784653801244
147.259,0.07866058797340247,-0.07866058797340247
147.26000000000002,0.0632468542696063,-0.0632468542696063
147.261,0.05168417905944067,-0.05168417905944067
147.262,0.04799581422221655,-0.04799581422221655
147.263,0.05353967569745899,-0.05353967569745899
147.264,0.06628204271313787,-0.06628204271313787
147.265,0.08125277793839913,-0.08125277793839913
147.26600000000002,0.09211523681525868,-0.09211523681525868
147.267,0.09337579301496879,-0.09337579301496879
147.268,0.0824920373404191,-0.0824920373404191
147.269,0.061119500001728944,-0.061119500001728944
147.27,0.034986106309681686,-0.034986106309681686
147.27100000000002,0.01232907493726576,-0.01232907493726576
147.27200000000002,0.0013250339871960781,-0.0013250339871960781
147.273,0.0073201295139512235,-0.0073201295139512235
147.274,0.030786045667833828,-0.030786045667833828
147.275,0.06673647774151947,-0.06673647774151947
147.276,0.1058880976458797,-0.1058880976458797
147.27700000000002,0.13728292421245059,-0.13728292421245059
147.27800000000002,0.1515927918157357,-0.1515927918157357
147.279,0.14407087486805048,-0.14407087486805048
147.28,0.11619311790031439,-0.11619311790031439
147.281,0.07542705313647213,-0.07542705313647213
147.282,0.03315330077974821,-0.03315330077974821
147.28300000000002,0.0013556334698221484,-0.0013556334698221484
147.28400000000002,0.010905252846231006,0.010905252846231006
147.285,0.00014381316573652825,0.00014381316573652825
147.286,0.03058798790722328,-0.03058798790722328
147.287,0.0727078925285286,-0.0727078925285286
147.288,0.1147387438280425,-0.1147387438280425
147.28900000000002,0.14572633569064652,-0.14572633569064652
147.29000000000002,0.15836872422762815,-0.15836872422762815
147.291,0.1509079826311781,-0.1509079826311781
147.292,0.12725740396489615,-0.12725740396489615
147.293,0.09541423376767555,-0.09541423376767555
147.294,0.0647475761089541,-0.0647475761089541
147.29500000000002,0.04307832208385198,-0.04307832208385198
147.29600000000002,0.034483643606087244,-0.034483643606087244
147.297,0.03847035344974892,-0.03847035344974892
147.298,0.05067771099520213,-0.05067771099520213
147.299,0.06476052016322476,-0.06476052016322476
147.3,0.07473871892502781,-0.07473871892502781
147.30100000000002,0.07699480648786472,-0.07699480648786472
147.30200000000002,0.07127693808289115,-0.07127693808289115
147.303,0.060448188699758765,-0.060448188699758765
147.304,0.049169368341428266,-0.049169368341428266
147.305,0.042056854786180486,-0.042056854786180486
147.306,0.04200113860536947,-0.04200113860536947
147.30700000000002,0.049227928388386966,-0.049227928388386966
147.30800000000002,0.06138212381224695,-0.06138212381224695
147.309,0.0745329976950051,-0.0745329976950051
147.31,0.08467629528996612,-0.08467629528996612
147.311,0.08915737829515524,-0.08915737829515524
147.312,0.08750417483540762,-0.08750417483540762
147.31300000000002,0.08140493240506153,-0.08140493240506153
147.31400000000002,0.07389510285519196,-0.07389510285519196
147.315,0.06810596158728244,-0.06810596158728244
147.316,0.06607102425126077,-0.06607102425126077
147.317,0.06803858503362925,-0.06803858503362925
147.318,0.07252552308998983,-0.07252552308998983
147.31900000000002,0.07705477681788775,-0.07705477681788775
147.32000000000002,0.07925890034684568,-0.07925890034684568
147.321,0.0779013788122519,-0.0779013788122519
147.322,0.07341130057144518,-0.07341130057144518
147.323,0.06772448187520641,-0.06772448187520641
147.324,0.06349716908226732,-0.06349716908226732
147.32500000000002,0.06300236462788278,-0.06300236462788278
147.32600000000002,0.06714190840304868,-0.06714190840304868
147.327,0.0749647639718134,-0.0749647639718134
147.328,0.08389124126008096,-0.08389124126008096
147.329,0.09057689186917317,-0.09057689186917317
147.33,0.09210845191148898,-0.09210845191148898
147.33100000000002,0.0870971055331432,-0.0870971055331432
147.332,0.07626781911277658,-0.07626781911277658
147.333,0.06232407035902776,-0.06232407035902776
147.334,0.04912751703356033,-0.04912751703356033
147.335,0.04047622026668918,-0.04047622026668918
147.336,0.038904455368103275,-0.038904455368103275
147.33700000000002,0.044913056281895236,-0.044913056281895236
147.338,0.056879656228078335,-0.056879656228078335
147.339,0.07165396752575326,-0.07165396752575326
147.34,0.08560473216119047,-0.08560473216119047
147.341,0.09573823126360059,-0.09573823126360059
147.342,0.1005035257854221,-0.1005035257854221
147.34300000000002,0.1000337048332719,-0.1000337048332719
147.344,0.09579112910084286,-0.09579112910084286
147.345,0.08980406495709614,-0.08980406495709614
147.346,0.0838205128464018,-0.0838205128464018
147.347,0.07871341487238182,-0.07871341487238182
147.348,0.07435110167018777,-0.07435110167018777
147.34900000000002,0.06994796903957567,-0.06994796903957567
147.35,0.06471210559374041,-0.06471210559374041
147.351,0.05848652906717844,-0.05848652906717844
147.352,0.052085290203787715,-0.052085290203787715
147.353,0.04715272890629163,-0.04715272890629163
147.354,0.04557370610943823,-0.04557370610943823
147.35500000000002,0.048656239513417465,-0.048656239513417465
147.356,0.05641864077666725,-0.05641864077666725
147.357,0.06729495695687271,-0.06729495695687271
147.358,0.07842815999922426,-0.07842815999922426
147.359,0.08650153799450022,-0.08650153799450022
147.36,0.08884639892825152,-0.08884639892825152
147.36100000000002,0.08443952326160742,-0.08443952326160742
147.362,0.07441718673312037,-0.07441718673312037
147.363,0.061884413582015685,-0.061884413582015685
147.364,0.05103770606898217,-0.05103770606898217
147.365,0.04586272450679851,-0.04586272450679851
147.366,0.048827910012461784,-0.048827910012461784
147.36700000000002,0.06001189555425068,-0.06001189555425068
147.368,0.07696780738970899,-0.07696780738970899
147.369,0.09538601388142365,-0.09538601388142365
147.37,0.11035144829105048,-0.11035144829105048
147.371,0.1177940384864451,-0.1177940384864451
147.372,0.11566907107501756,-0.11566907107501756
147.37300000000002,0.10449890430057707,-0.10449890430057707
147.374,0.08712415459630751,-0.08712415459630751
147.375,0.06777507980406139,-0.06777507980406139
147.376,0.050791385103544306,-0.050791385103544306
147.377,0.039417602864572854,-0.039417602864572854
147.378,0.03505116779224626,-0.03505116779224626
147.37900000000002,0.03714395141666238,-0.03714395141666238
147.38,0.043721827043657124,-0.043721827043657124
147.381,0.05227652144982531,-0.05227652144982531
147.382,0.06067342298486589,-0.06067342298486589
147.383,0.06774387537584514,-0.06774387537584514
147.384,0.07337631199452177,-0.07337631199452177
147.38500000000002,0.07812898804085378,-0.07812898804085378
147.386,0.08257788584934922,-0.08257788584934922
147.387,0.0867144430379031,-0.0867144430379031
147.388,0.08968147206845134,-0.08968147206845134
147.389,0.08999263157195625,-0.08999263157195625
147.39,0.08617589633101363,-0.08617589633101363
147.39100000000002,0.07759342127519175,-0.07759342127519175
147.392,0.06509265114388885,-0.06509265114388885
147.393,0.051177665759942426,-0.051177665759942426
147.394,0.039548536801927714,-0.039548536801927714
147.395,0.034086266129625176,-0.034086266129625176
147.39600000000002,0.03757990694783753,-0.03757990694783753
147.39700000000002,0.05061969853372128,-0.05061969853372128
147.398,0.07106424319308569,-0.07106424319308569
147.399,0.0943285114245066,-0.0943285114245066
147.4,0.11448136469402148,-0.11448136469402148
147.401,0.12587034790733365,-0.12587034790733365
147.40200000000002,0.12479909969859593,-0.12479909969859593
147.40300000000002,0.11073659634605426,-0.11073659634605426
147.404,0.0866583278414711,-0.0866583278414711
147.405,0.05837338102940315,-0.05837338102940315
147.406,0.03299995973117309,-0.03299995973117309
147.407,0.017017713037060456,-0.017017713037060456
147.40800000000002,0.014463464724326469,-0.014463464724326469
147.40900000000002,0.025802601867135788,-0.025802601867135788
147.41,0.0478109568590801,-0.0478109568590801
147.411,0.07450220499590698,-0.07450220499590698
147.412,0.0988260042764667,-0.0988260042764667
147.413,0.11463707559018033,-0.11463707559018033
147.41400000000002,0.11836262197974612,-0.11836262197974612
147.41500000000002,0.10989459138277313,-0.10989459138277313
147.416,0.09247107761379159,-0.09247107761379159
147.417,0.07161297868816785,-0.07161297868816785
147.418,0.05345578060261502,-0.05345578060261502
147.419,0.042981061784985064,-0.042981061784985064
147.42000000000002,0.04266248794319827,-0.04266248794319827
147.42100000000002,0.05189914845885446,-0.05189914845885446
147.422,0.0673630168660293,-0.0673630168660293
147.423,0.08411432134065622,-0.08411432134065622
147.424,0.09712079853805877,-0.09712079853805877
147.425,0.10271635632971898,-0.10271635632971898
147.42600000000002,0.09957609653047128,-0.09957609653047128
147.42700000000002,0.08894913042901753,-0.08894913042901753
147.428,0.0741235730641776,-0.0741235730641776
147.429,0.05932705586112741,-0.05932705586112741
147.43,0.04842307945407465,-0.04842307945407465
147.431,0.04380509031553903,-0.04380509031553903
147.43200000000002,0.045809220537142425,-0.045809220537142425
147.43300000000002,0.052792989142307234,-0.052792989142307234
147.434,0.06181720168804006,-0.06181720168804006
147.435,0.06968670194230575,-0.06968670194230575
147.436,0.07400634739861822,-0.07400634739861822
147.437,0.07391865755966898,-0.07391865755966898
147.43800000000002,0.0703021146691426,-0.0703021146691426
147.43900000000002,0.0653863409672446,-0.0653863409672446
147.44,0.061925990762002,-0.061925990762002
147.441,0.06221171129415337,-0.06221171129415337
147.442,0.0672427823016003,-0.0672427823016003
147.443,0.07632939003424022,-0.07632939003424022
147.44400000000002,0.08725220107086629,-0.08725220107086629
147.44500000000002,0.09692787111528667,-0.09692787111528667
147.446,0.10236782666125377,-0.10236782666125377
147.447,0.10162463140196043,-0.10162463140196043
147.448,0.09442445360428098,-0.09442445360428098
147.449,0.08228397762093531,-0.08228397762093531
147.45000000000002,0.06807385060564519,-0.06807385060564519
147.45100000000002,0.05516649266548812,-0.05516649266548812
147.452,0.04643794420442471,-0.04643794420442471
147.453,0.04343922380231979,-0.04343922380231979
147.454,0.04599751477681313,-0.04599751477681313
147.455,0.0523687343835042,-0.0523687343835042
147.45600000000002,0.05988502392263284,-0.05988502392263284
147.45700000000002,0.06588080064834823,-0.06588080064834823
147.458,0.06859120650297568,-0.06859120650297568
147.459,0.06772670919926416,-0.06772670919926416
147.46,0.06453462152678935,-0.06453462152678935
147.461,0.06132795720186868,-0.06132795720186868
147.46200000000002,0.06063898378968613,-0.06063898378968613
147.463,0.06428077089143602,-0.06428077089143602
147.464,0.07263294132079035,-0.07263294132079035
147.465,0.08439607203665722,-0.08439607203665722
147.466,0.09690571833402062,-0.09690571833402062
147.467,0.10691215695181122,-0.10691215695181122
147.46800000000002,0.11157683714172761,-0.11157683714172761
147.469,0.1093629149377977,-0.1093629149377977
147.47,0.10053001129141004,-0.10053001129141004
147.471,0.08707199084114314,-0.08707199084114314
147.472,0.07211853485643749,-0.07211853485643749
147.473,0.05899606720352968,-0.05899606720352968
147.47400000000002,0.050253023522559226,-0.050253023522559226
147.475,0.04696231693948416,-0.04696231693948416
147.476,0.048518112682940706,-0.048518112682940706
147.477,0.052977475320778566,-0.052977475320778566
147.478,0.05781653712155921,-0.05781653712155921
147.479,0.06083641319089661,-0.06083641319089661
147.48000000000002,0.06091075134008195,-0.06091075134008195
147.481,0.058327836710163394,-0.058327836710163394
147.482,0.05462330347324029,-0.05462330347324029
147.483,0.051974880884906205,-0.051974880884906205
147.484,0.052378133780739966,-0.052378133780739966
147.485,0.05689222844569175,-0.05689222844569175
147.48600000000002,0.06521504784018184,-0.06521504784018184
147.487,0.07572968119138834,-0.07572968119138834
147.488,0.08600129083564556,-0.08600129083564556
147.489,0.09355117800749813,-0.09355117800749813
147.49,0.09664500932122555,-0.09664500932122555
147.491,0.09483343126527233,-0.09483343126527233
147.49200000000002,0.08907250876030082,-0.08907250876030082
147.493,0.08139544775594154,-0.08139544775594154
147.494,0.07425522636519721,-0.07425522636519721
147.495,0.06975996783566862,-0.06975996783566862
147.496,0.06904692567211079,-0.06904692567211079
147.497,0.07198287491386879,-0.07198287491386879
147.49800000000002,0.07726288419883953,-0.07726288419883953
147.499,0.08284860759692736,-0.08284860759692736
147.5,0.08658646799212522,-0.08658646799212522
147.501,0.08680681033889681,-0.08680681033889681
147.502,0.08273474435177852,-0.08273474435177852
147.503,0.07462448582866643,-0.07462448582866643
147.50400000000002,0.06362731461702809,-0.06362731461702809
147.505,0.051481755188710454,-0.051481755188710454
147.506,0.04014755641147527,-0.04014755641147527
147.507,0.031487122366206766,-0.031487122366206766
147.508,0.027044715763809624,-0.027044715763809624
147.509,0.02791360647589436,-0.02791360647589436
147.51000000000002,0.03464331510991958,-0.03464331510991958
147.511,0.04714004888545387,-0.04714004888545387
147.512,0.06455096965359497,-0.06455096965359497
147.513,0.08517659637756103,-0.08517659637756103
147.514,0.10649577306556235,-0.10649577306556235
147.515,0.12538852881118556,-0.12538852881118556
147.51600000000002,0.1385940540220666,-0.1385940540220666
147.517,0.14335588646222408,-0.14335588646222408
147.518,0.13811489482015116,-0.13811489482015116
147.519,0.12305098744650567,-0.12305098744650567
147.52,0.10027733539150052,-0.10027733539150052
147.52100000000002,0.0735661276270636,-0.0735661276270636
147.52200000000002,0.047615416858301174,-0.047615416858301174
147.523,0.027012474156892008,-0.027012474156892008
147.524,0.01516039264914959,-0.01516039264914959
147.525,0.01346945895926388,-0.01346945895926388
147.526,0.021054820237248806,-0.021054820237248806
147.52700000000002,0.03504087393869226,-0.03504087393869226
147.52800000000002,0.05139306801808041,-0.05139306801808041
147.529,0.06603711248592947,-0.06603711248592947
147.53,0.07593732887299798,-0.07593732887299798
147.531,0.07982038324953211,-0.07982038324953211
147.532,0.0783443377470916,-0.0783443377470916
147.53300000000002,0.07368887883191233,-0.07368887883191233
147.53400000000002,0.0687228413288945,-0.0687228413288945
147.535,0.06603065229784222,-0.06603065229784222
147.536,0.06711000742125128,-0.06711000742125128
147.537,0.07198148017337147,-0.07198148017337147
147.538,0.07930403361470684,-0.07930403361470684
147.53900000000002,0.08692038052560391,-0.08692038052560391
147.54000000000002,0.09262081759546603,-0.09262081759546603
147.541,0.09485746957176422,-0.09485746957176422
147.542,0.09317787339901751,-0.09317787339901751
147.543,0.08825949445387171,-0.08825949445387171
147.544,0.08157166452493181,-0.08157166452493181
147.54500000000002,0.0748161583812319,-0.0748161583812319
147.54600000000002,0.06935985420868163,-0.06935985420868163
147.547,0.0658550754032926,-0.0658550754032926
147.548,0.06415755196619322,-0.06415755196619322
147.549,0.06353454392165125,-0.06353454392165125
147.55,0.06305188223246061,-0.06305188223246061
147.55100000000002,0.06197578217842159,-0.06197578217842159
147.55200000000002,0.060038938070176906,-0.060038938070176906
147.553,0.05748991076878307,-0.05748991076878307
147.554,0.05493861883829876,-0.05493861883829876
147.555,0.05308980134690067,-0.05308980134690067
147.556,0.05248988278624378,-0.05248988278624378
147.55700000000002,0.05339022165527951,-0.05339022165527951
147.55800000000002,0.055764480966288166,-0.055764480966288166
147.559,0.05944058589043655,-0.05944058589043655
147.56,0.06425349229344945,-0.06425349229344945
147.561,0.07011824209895001,-0.07011824209895001
147.562,0.07696692205530742,-0.07696692205530742
147.56300000000002,0.08456877401926666,-0.08456877401926666
147.56400000000002,0.09232547831953697,-0.09232547831953697
147.565,0.09916861246057618,-0.09916861246057618
147.566,0.10366309197315726,-0.10366309197315726
147.567,0.10434288424612426,-0.10434288424612426
147.568,0.10020157340229718,-0.10020157340229718
147.56900000000002,0.09117275010122061,-0.09117275010122061
147.57000000000002,0.07840359225322002,-0.07840359225322002
147.571,0.06417012538889821,-0.06417012538889821
147.572,0.05139594675475068,-0.05139594675475068
147.573,0.042880718756027614,-0.042880718756027614
147.574,0.04046741404621679,-0.04046741404621679
147.57500000000002,0.04442843073469649,-0.04442843073469649
147.57600000000002,0.05330354814443716,-0.05330354814443716
147.577,0.06428555218727194,-0.06428555218727194
147.578,0.0740650505435021,-0.0740650505435021
147.579,0.07987825207943222,-0.07987825207943222
147.58,0.08041258380162564,-0.08041258380162564
147.58100000000002,0.07625263233011403,-0.07625263233011403
147.58200000000002,0.06969071485335909,-0.06969071485335909
147.583,0.06393863597052496,-0.06393863597052496
147.584,0.06198827193326284,-0.06198827193326284
147.585,0.06550355636329852,-0.06550355636329852
147.586,0.07413365864343835,-0.07413365864343835
147.58700000000002,0.08550804693584557,-0.08550804693584557
147.588,0.0959479908119909,-0.0959479908119909
147.589,0.10168102708936466,-0.10168102708936466
147.59,0.10016076737441293,-0.10016076737441293
147.591,0.09104072658060314,-0.09104072658060314
147.592,0.07645093015777493,-0.07645093015777493
147.59300000000002,0.06045053529835609,-0.06045053529835609
147.594,0.047805248895771646,-0.047805248895771646
147.595,0.04247200383589911,-0.04247200383589911
147.596,0.046284323021275275,-0.046284323021275275
147.597,0.05827943181877404,-0.05827943181877404
147.598,0.07490674256960361,-0.07490674256960361
147.59900000000002,0.09107194503825333,-0.09107194503825333
147.6,0.1016959847252219,-0.1016959847252219
147.601,0.10329556653320138,-0.10329556653320138
147.602,0.09507970351642292,-0.09507970351642292
147.603,0.07921003398899329,-0.07921003398899329
147.604,0.06014088039722221,-0.06014088039722221
147.60500000000002,0.04324997595087443,-0.04324997595087443
147.606,0.033195780149811394,-0.033195780149811394
147.607,0.03251965795115719,-0.03251965795115719
147.608,0.04092605634020563,-0.04092605634020563
147.609,0.05545162729902753,-0.05545162729902753
147.61,0.07144962910348318,-0.07144962910348318
147.61100000000002,0.08406204238392445,-0.08406204238392445
147.612,0.08970922802880499,-0.08970922802880499
147.613,0.08713756083542412,-0.08713756083542412
147.614,0.07772020220094145,-0.07772020220094145
147.615,0.06494985055628799,-0.06494985055628799
147.616,0.05331362756671498,-0.05331362756671498
147.61700000000002,0.04691947492228199,-0.04691947492228199
147.618,0.0482981779249515,-0.0482981779249515
147.619,0.057725839722975625,-0.057725839722975625
147.62,0.07323203869927175,-0.07323203869927175
147.621,0.0912422656700238,-0.0912422656700238
147.622,0.10761978711565956,-0.10761978711565956
147.62300000000002,0.11877581043147545,-0.11877581043147545
147.624,0.12252941368960335,-0.12252941368960335
147.625,0.11850537774670733,-0.11850537774670733
147.626,0.1080158485029582,-0.1080158485029582
147.627,0.09352624839643675,-0.09352624839643675
147.628,0.07791006500190167,-0.07791006500190167
147.62900000000002,0.06372590707986037,-0.06372590707986037
147.63,0.05270568008132959,-0.05270568008132959
147.631,0.04555003185003226,-0.04555003185003226
147.632,0.04202297025728219,-0.04202297025728219
147.633,0.04125599321906148,-0.04125599321906148
147.634,0.04213399445211563,-0.04213399445211563
147.63500000000002,0.043643245814971476,-0.043643245814971476
147.636,0.0451027874520219,-0.0451027874520219
147.637,0.046253345247402655,-0.046253345247402655
147.638,0.047222340088167725,-0.047222340088167725
147.639,0.04840779654086946,-0.04840779654086946
147.64,0.050326942818592735,-0.050326942818592735
147.64100000000002,0.05346449274531573,-0.05346449274531573
147.642,0.05814163695281882,-0.05814163695281882
147.643,0.06441772279960245,-0.06441772279960245
147.644,0.0720345769029288,-0.0720345769029288
147.645,0.08041467961831938,-0.08041467961831938
147.64600000000002,0.0887225561749827,-0.0887225561749827
147.64700000000002,0.09598919919084214,-0.09598919919084214
147.648,0.1012825360502797,-0.1012825360502797
147.649,0.10388886843606016,-0.10388886843606016
147.65,0.10345966454280053,-0.10345966454280053
147.651,0.10008226027727685,-0.10008226027727685
147.65200000000002,0.09425332969866129,-0.09425332969866129
147.65300000000002,0.08676439653328749,-0.08676439653328749
147.654,0.07853760113750974,-0.07853760113750974
147.655,0.07046507068070063,-0.07046507068070063
147.656,0.0632991464825291,-0.0632991464825291
147.657,0.057614876421608785,-0.057614876421608785
147.65800000000002,0.05383118675559928,-0.05383118675559928
147.65900000000002,0.052248773899669976,-0.052248773899669976
147.66,0.053055175147212474,-0.053055175147212474
147.661,0.056266522349516346,-0.056266522349516346
147.662,0.061614979675279735,-0.061614979675279735
147.663,0.0684340089611758,-0.0684340089611758
147.66400000000002,0.07561930675971473,-0.07561930675971473
147.66500000000002,0.08173520557300085,-0.08173520557300085
147.666,0.0852910730188986,-0.0852910730188986
147.667,0.08514263844259462,-0.08514263844259462
147.668,0.08090521254987282,-0.08090521254987282
147.669,0.07322929052065386,-0.07322929052065386
147.67000000000002,0.0638056319541872,-0.0638056319541872
147.67100000000002,0.05503968237534329,-0.05503968237534329
147.672,0.04944483574270586,-0.04944483574270586
147.673,0.048913597289791166,-0.048913597289791166
147.674,0.05409307131210883,-0.05409307131210883
147.675,0.06408503817362265,-0.06408503817362265
147.67600000000002,0.0766041606854504,-0.0766041606854504
147.67700000000002,0.08858328692705197,-0.08858328692705197
147.678,0.09705935161580026,-0.09705935161580026
147.679,0.10006283923555481,-0.10006283923555481
147.68,0.09721261782532009,-0.09721261782532009
147.681,0.08980154925147932,-0.08980154925147932
147.68200000000002,0.0803246323675686,-0.0803246323675686
147.68300000000002,0.07159627702206361,-0.07159627702206361
147.684,0.06575770973832995,-0.06575770973832995
147.685,0.06353030740808119,-0.06353030740808119
147.686,0.06399904094696829,-0.06399904094696829
147.687,0.06502995955790503,-0.06502995955790503
147.68800000000002,0.06419565739587885,-0.06419565739587885
147.68900000000002,0.05988408698851433,-0.05988408698851433
147.69,0.052173993206005576,-0.052173993206005576
147.691,0.04311572334753577,-0.04311572334753577
147.692,0.03624910491775102,-0.03624910491775102
147.693,0.035459597565075995,-0.035459597565075995
147.69400000000002,0.04352736038381,-0.04352736038381
147.69500000000002,0.060868420518288335,-0.060868420518288335
147.696,0.08494331346183415,-0.08494331346183415
147.697,0.11061357002337002,-0.11061357002337002
147.698,0.13141826840626314,-0.13141826840626314
147.699,0.141423016522083,-0.141423016522083
147.70000000000002,0.13707332923669302,-0.13707332923669302
147.70100000000002,0.11844545603195278,-0.11844545603195278
147.702,0.08945300745488505,-0.08945300745488505
147.703,0.0568900695899367,-0.0568900695899367
147.704,0.028567508733953195,-0.028567508733953195
147.705,0.011103139764838565,-0.011103139764838565
147.70600000000002,0.00805317325649213,-0.00805317325649213
147.70700000000002,0.01897424621626609,-0.01897424621626609
147.708,0.039710357340863256,-0.039710357340863256
147.709,0.06380293678817728,-0.06380293678817728
147.71,0.08455708101738024,-0.08455708101738024
147.711,0.0970861094323453,-0.0970861094323453
147.71200000000002,0.09967227769431819,-0.09967227769431819
147.713,0.09401917476075106,-0.09401917476075106
147.714,0.08435046525828338,-0.08435046525828338
147.715,0.07570074698423512,-0.07570074698423512
147.716,0.07201340833422809,-0.07201340833422809
147.717,0.07471537194354572,-0.07471537194354572
147.71800000000002,0.08226134375523342,-0.08226134375523342
147.719,0.09079301331728307,-0.09079301331728307
147.72,0.09566296687026177,-0.09566296687026177
147.721,0.09326713796978858,-0.09326713796978858
147.722,0.08252035058088181,-0.08252035058088181
147.723,0.06543510622101978,-0.06543510622101978
147.72400000000002,0.046580275064867505,-0.046580275064867505
147.725,0.031592943425861275,-0.031592943425861275
147.726,0.025254344896896486,-0.025254344896896486
147.727,0.029800972486403343,-0.029800972486403343
147.728,0.04406792964234063,-0.04406792964234063
147.729,0.06377833610268413,-0.06377833610268413
147.73000000000002,0.0828981473134709,-0.0828981473134709
147.731,0.09560684676793285,-0.09560684676793285
147.732,0.09821903922301167,-0.09821903922301167
147.733,0.09040463299762613,-0.09040463299762613
147.734,0.07529167058264818,-0.07529167058264818
147.735,0.05841441280115767,-0.05841441280115767
147.73600000000002,0.0458599089797711,-0.0458599089797711
147.737,0.04223554196648516,-0.04223554196648516
147.738,0.04913707310521298,-0.04913707310521298
147.739,0.06462405919714354,-0.06462405919714354
147.74,0.08386819627114628,-0.08386819627114628
147.741,0.10074771225108181,-0.10074771225108181
147.74200000000002,0.10985040095369336,-0.10985040095369336
147.743,0.10822211052047148,-0.10822211052047148
147.744,0.09629474185624509,-0.09629474185624509
147.745,0.07771022493237245,-0.07771022493237245
147.746,0.058125310942538144,-0.058125310942538144
147.747,0.043411115098842656,-0.043411115098842656
147.74800000000002,0.03784312709550042,-0.03784312709550042
147.749,0.04285701669221231,-0.04285701669221231
147.75,0.056737962641068895,-0.056737962641068895
147.751,0.07529342104845549,-0.07529342104845549
147.752,0.09324161325902836,-0.09324161325902836
147.753,0.10583549564123917,-0.10583549564123917
147.75400000000002,0.11019882496805466,-0.11019882496805466
147.755,0.10598105299672356,-0.10598105299672356
147.756,0.09518671212548624,-0.09518671212548624
147.757,0.08131177173463267,-0.08131177173463267
147.758,0.0681299805157316,-0.0681299805157316
147.759,0.05855141356742788,-0.05855141356742788
147.76000000000002,0.05390769925386163,-0.05390769925386163
147.761,0.05383938980151237,-0.05383938980151237
147.762,0.056741508215523595,-0.056741508215523595
147.763,0.06054215687973796,-0.06054215687973796
147.764,0.06350466490999518,-0.06350466490999518
147.765,0.06477542326640706,-0.06477542326640706
147.76600000000002,0.06452402240764876,-0.06452402240764876
147.767,0.0636856716992028,-0.0636856716992028
147.768,0.06345572811537548,-0.06345572811537548
147.769,0.06475493733968662,-0.06475493733968662
147.77,0.06786498532830121,-0.06786498532830121
147.77100000000002,0.0723445532365452,-0.0723445532365452
147.77200000000002,0.07721796954241622,-0.07721796954241622
147.773,0.08132968284659514,-0.08132968284659514
147.774,0.0837133357402986,-0.0837133357402986
147.775,0.08384425600343626,-0.08384425600343626
147.776,0.08171206350773941,-0.08171206350773941
147.77700000000002,0.07773170315638278,-0.07773170315638278
147.77800000000002,0.07257051908121881,-0.07257051908121881
147.779,0.06698327130929493,-0.06698327130929493
147.78,0.06171557614754619,-0.06171557614754619
147.781,0.057479320497688224,-0.057479320497688224
147.782,0.05495211951666268,-0.05495211951666268
147.78300000000002,0.05473406406543346,-0.05473406406543346
147.78400000000002,0.05721968456775983,-0.05721968456775983
147.785,0.06240046450524339,-0.06240046450524339
147.786,0.06967537432887028,-0.06967537432887028
147.787,0.07778084880359293,-0.07778084880359293
147.788,0.08493460886544246,-0.08493460886544246
147.78900000000002,0.08921844159193992,-0.08921844159193992
147.79000000000002,0.08912632681348143,-0.08912632681348143
147.791,0.08411537807558056,-0.08411537807558056
147.792,0.07495824165433951,-0.07495824165433951
147.793,0.06373116280122493,-0.06373116280122493
147.794,0.053378400459812125,-0.053378400459812125
147.79500000000002,0.04693846436993865,-0.04693846436993865
147.79600000000002,0.046649418580156476,-0.046649418580156476
147.797,0.05321777579804743,-0.05321777579804743
147.798,0.06550676755878393,-0.06550676755878393
147.799,0.08077712611686538,-0.08077712611686538
147.8,0.09543434721157262,-0.09543434721157262
147.80100000000002,0.10606165652941213,-0.10606165652941213
147.80200000000002,0.11041071926388257,-0.11041071926388257
147.803,0.1080245291083457,-0.1080245291083457
147.804,0.10028317620824811,-0.10028317620824811
147.805,0.08985652795177757,-0.08985652795177757
147.806,0.07975210032760827,-0.07975210032760827
147.80700000000002,0.07228903409333554,-0.07228903409333554
147.80800000000002,0.06835744203449567,-0.06835744203449567
147.809,0.06722343607394121,-0.06722343607394121
147.81,0.06694643353463148,-0.06694643353463148
147.811,0.06525447962075093,-0.06525447962075093
147.812,0.06055434451840913,-0.06055434451840913
147.81300000000002,0.05269816291406215,-0.05269816291406215
147.81400000000002,0.043209665503176065,-0.043209665503176065
147.815,0.03486413139861788,-0.03486413139861788
147.816,0.03075039134403812,-0.03075039134403812
147.817,0.03313694526088151,-0.03313694526088151
147.818,0.042546856661361376,-0.042546856661361376
147.81900000000002,0.05738548572419255,-0.05738548572419255
147.82000000000002,0.07428002699824243,-0.07428002699824243
147.821,0.08904376605732855,-0.08904376605732855
147.822,0.0979572052796982,-0.0979572052796982
147.823,0.09894114065387838,-0.09894114065387838
147.824,0.0922259297618816,-0.0922259297618816
147.82500000000002,0.08028778276297799,-0.08028778276297799
147.82600000000002,0.06706960342314361,-0.06706960342314361
147.827,0.056744963680674276,-0.056744963680674276
147.828,0.05243538021446448,-0.05243538021446448
147.829,0.05530093867589214,-0.05530093867589214
147.83,0.06429026254373904,-0.06429026254373904
147.83100000000002,0.07660621413706215,-0.07660621413706215
147.83200000000002,0.08870002900252638,-0.08870002900252638
147.833,0.09743423792995554,-0.09743423792995554
147.834,0.10101267250504475,-0.10101267250504475
147.835,0.09937586123687803,-0.09937586123687803
147.836,0.09396318927491831,-0.09396318927491831
147.83700000000002,0.08697414340918874,-0.08697414340918874
147.838,0.08043596743330728,-0.08043596743330728
147.839,0.07544197905957095,-0.07544197905957095
147.84,0.07184543033279178,-0.07184543033279178
147.841,0.06850993199449529,-0.06850993199449529
147.842,0.06399883199583611,-0.06399883199583611
147.84300000000002,0.057414385327656636,-0.057414385327656636
147.844,0.04903700076791995,-0.04903700076791995
147.845,0.04048795246228898,-0.04048795246228898
147.846,0.034318882417705976,-0.034318882417705976
147.847,0.033151779184641295,-0.033151779184641295
147.848,0.038672185091821354,-0.038672185091821354
147.84900000000002,0.05084900726378372,-0.05084900726378372
147.85,0.06768846849895582,-0.06768846849895582
147.851,0.08564894018878266,-0.08564894018878266
147.852,0.10061115215274663,-0.10061115215274663
147.853,0.10909735972937207,-0.10909735972937207
147.854,0.10933585474468299,-0.10933585474468299
147.85500000000002,0.10180974857336245,-0.10180974857336245
147.856,0.08909790821546437,-0.08909790821546437
147.857,0.07505326523210465,-0.07505326523210465
147.858,0.06358722830394403,-0.06358722830394403
147.859,0.05746121143850835,-0.05746121143850835
147.86,0.057481896900496876,-0.057481896900496876
