Czas,AbsSum,Sum
188.23000000000002,0.004664012279439279,-0.004664012279439279
188.231,0.0007197524342263771,-0.0007197524342263771
188.232,0.0037441224027315594,0.0037441224027315594
188.233,0.007612392777407809,0.007612392777407809
188.234,0.009964824136256586,0.009964824136256586
188.235,0.010310565066305327,0.010310565066305327
188.23600000000002,0.008673748870403947,0.008673748870403947
188.237,0.005525036538829573,0.005525036538829573
188.238,0.001604153438475885,0.001604153438475885
188.239,0.0022941687999175385,-0.0022941687999175385
188.24,0.005500957657179226,-0.005500957657179226
188.241,0.007577697941543579,-0.007577697941543579
188.24200000000002,0.008339552024214962,-0.008339552024214962
188.243,0.007822510763294018,-0.007822510763294018
188.244,0.006232082458613178,-0.006232082458613178
188.245,0.0039021396512832797,-0.0039021396512832797
188.246,0.0012698231565794558,-0.0012698231565794558
188.247,0.0011504484073782597,0.0011504484073782597
188.24800000000002,0.0028205553529706685,0.0028205553529706685
188.249,0.0032765897113331962,0.0032765897113331962
188.25,0.0022616803994348353,0.0022616803994348353
188.251,0.0001457676590007935,-0.0001457676590007935
188.252,0.0034659603551339107,-0.0034659603551339107
188.25300000000001,0.006865002910099187,-0.006865002910099187
188.25400000000002,0.009333860114925964,-0.009333860114925964
188.255,0.00996722443687014,-0.00996722443687014
188.256,0.008262496048896223,-0.008262496048896223
188.257,0.0043342230580186375,-0.0043342230580186375
188.258,0.0010478448309201305,0.0010478448309201305
188.25900000000001,0.006637617816450738,0.006637617816450738
188.26000000000002,0.01107393178335227,0.01107393178335227
188.261,0.013317208950223956,0.013317208950223956
188.262,0.01301306117204526,0.01301306117204526
188.263,0.010643744609947329,0.010643744609947329
188.264,0.007390897590548692,0.007390897590548692
188.26500000000001,0.004730991588096419,0.004730991588096419
188.26600000000002,0.003885487972412081,0.003885487972412081
188.267,0.005313727368167021,0.005313727368167021
188.268,0.008440343710117128,0.008440343710117128
188.269,0.011743214320074646,0.011743214320074646
188.27,0.013210175340746411,0.013210175340746411
188.27100000000002,0.01104084320718741,0.01104084320718741
188.27200000000002,0.004369900853971844,0.004369900853971844
188.273,0.006241734445024919,-0.006241734445024919
188.274,0.018745268292275522,-0.018745268292275522
188.275,0.030040133316763026,-0.030040133316763026
188.276,0.03681332329007159,-0.03681332329007159
188.27700000000002,0.03654464403003999,-0.03654464403003999
188.27800000000002,0.028367412801014354,-0.028367412801014354
188.279,0.013499193525042476,-0.013499193525042476
188.28,0.004922865634376492,0.004922865634376492
188.281,0.02258791679128205,0.02258791679128205
188.282,0.03514158839056325,0.03514158839056325
188.28300000000002,0.03937693637040761,0.03937693637040761
188.28400000000002,0.03413461249594794,0.03413461249594794
188.285,0.02064218299348884,0.02064218299348884
188.286,0.00218904464717238,0.00218904464717238
188.287,0.016767341096364678,-0.016767341096364678
188.288,0.03179909559127392,-0.03179909559127392
188.28900000000002,0.039658757780304664,-0.039658757780304664
188.29000000000002,0.03905566976911347,-0.03905566976911347
188.291,0.030852736707012957,-0.030852736707012957
188.292,0.017659108424663016,-0.017659108424663016
188.293,0.0029747152847083053,-0.0029747152847083053
188.294,0.009833837867186649,0.009833837867186649
188.29500000000002,0.018415751199094586,0.018415751199094586
188.29600000000002,0.021933198077242155,0.021933198077242155
188.297,0.02106640587685658,0.02106640587685658
188.298,0.017578933755399342,0.017578933755399342
188.299,0.013624338848008484,0.013624338848008484
188.3,0.011035307104736242,0.011035307104736242
188.30100000000002,0.010813854347825157,0.010813854347825157
188.30200000000002,0.012951329283305259,0.012951329283305259
188.303,0.016585839020648994,0.016585839020648994
188.304,0.020395835099212688,0.020395835099212688
188.305,0.023067193173305963,0.023067193173305963
188.306,0.02367265144516327,0.02367265144516327
188.30700000000002,0.021858846454324222,0.021858846454324222
188.30800000000002,0.017820665024538822,0.017820665024538822
188.309,0.012121130012014229,0.012121130012014229
188.31,0.005459267484386627,0.005459267484386627
188.311,0.0015140607133831937,-0.0015140607133831937
188.312,0.008274689124850639,-0.008274689124850639
188.31300000000002,0.014400587574250315,-0.014400587574250315
188.31400000000002,0.019497535446480613,-0.019497535446480613
188.315,0.023148328041076083,-0.023148328041076083
188.316,0.024940898222527624,-0.024940898222527624
188.317,0.02458452584267233,-0.02458452584267233
188.318,0.02207053785671339,-0.02207053785671339
188.31900000000002,0.017799120231240164,-0.017799120231240164
188.32000000000002,0.012594047848713813,-0.012594047848713813
188.321,0.0075644732820980744,-0.0075644732820980744
188.322,0.0038335965013731555,-0.0038335965013731555
188.323,0.0022136189795827163,-0.0022136189795827163
188.324,0.0029395571648601266,-0.0029395571648601266
188.32500000000002,0.005565433322469614,-0.005565433322469614
188.32600000000002,0.009075557191983592,-0.009075557191983592
188.327,0.012188323962311894,-0.012188323962311894
188.328,0.01375805709375981,-0.01375805709375981
188.329,0.013139841455887532,-0.013139841455887532
188.33,0.010390070615502133,-0.010390070615502133
188.33100000000002,0.006230708086435643,-0.006230708086435643
188.33200000000002,0.0017889495458505997,-0.0017889495458505997
188.333,0.0017945210366321525,0.0017945210366321525
188.334,0.0037469140243370355,0.0037469140243370355
188.335,0.0038961050118138637,0.0038961050118138637
188.336,0.002672059705204416,0.002672059705204416
188.33700000000002,0.0008818152133717575,0.0008818152133717575
188.33800000000002,0.0006499973166934486,-0.0006499973166934486
188.339,0.0014299775171701988,-0.0014299775171701988
188.34,0.0014912668927683467,-0.0014912668927683467
188.341,0.0013509965250820006,-0.0013509965250820006
188.342,0.001739606659090138,-0.001739606659090138
188.34300000000002,0.0032062686615314763,-0.0032062686615314763
188.34400000000002,0.005762725849926162,-0.005762725849926162
188.345,0.008724981590273745,-0.008724981590273745
188.346,0.010845920862291424,-0.010845920862291424
188.347,0.010723700482079514,-0.010723700482079514
188.348,0.00735920552450591,-0.00735920552450591
188.34900000000002,0.0006631622523955954,-0.0006631622523955954
188.35000000000002,0.00829021621402408,0.00829021621402408
188.351,0.017394405742404147,0.017394405742404147
188.352,0.024031428555381484,0.024031428555381484
188.353,0.025847887859351656,0.025847887859351656
188.354,0.021548384743742634,0.021548384743742634
188.35500000000002,0.011440228271855058,0.011440228271855058
188.356,0.002475265643369173,-0.002475265643369173
188.357,0.016934295572903366,-0.016934295572903366
188.358,0.02826711515272884,-0.02826711515272884
188.359,0.03343742707606802,-0.03343742707606802
188.36,0.03095020143707994,-0.03095020143707994
188.36100000000002,0.02134020480303572,-0.02134020480303572
188.362,0.007074044290493301,-0.007074044290493301
188.363,0.008123429689159545,0.008123429689159545
188.364,0.020327944129080112,0.020327944129080112
188.365,0.026545887339800723,0.026545887339800723
188.366,0.02557449769633416,0.02557449769633416
188.36700000000002,0.018329929129142247,0.018329929129142247
188.368,0.007541969304930274,0.007541969304930274
188.369,0.0030929127190535187,-0.0030929127190535187
188.37,0.010043869571613384,-0.010043869571613384
188.371,0.01102153617473149,-0.01102153617473149
188.372,0.005675006800023735,-0.005675006800023735
188.37300000000002,0.00429562214530064,0.00429562214530064
188.374,0.015639565309680657,0.015639565309680657
188.375,0.024514545484298787,0.024514545484298787
188.376,0.027618359477815324,0.027618359477815324
188.377,0.023161873764571295,0.023161873764571295
188.37800000000001,0.011406524703783559,0.011406524703783559
188.37900000000002,0.005377763000819954,-0.005377763000819954
188.38,0.023508882886837584,-0.023508882886837584
188.381,0.0388626453656975,-0.0388626453656975
188.382,0.047939522264347445,-0.047939522264347445
188.383,0.04873693364964618,-0.04873693364964618
188.38400000000001,0.04120368324257721,-0.04120368324257721
188.38500000000002,0.027178120842559647,-0.027178120842559647
188.386,0.009855023704896979,-0.009855023704896979
188.387,0.007052818467948848,0.007052818467948848
188.388,0.02022484055165459,0.02022484055165459
188.389,0.02748078647458752,0.02748078647458752
188.39000000000001,0.02819310343301748,0.02819310343301748
188.39100000000002,0.023289701914447566,0.023289701914447566
188.392,0.014882123933039667,0.014882123933039667
188.393,0.0056437272969563496,0.0056437272969563496
188.394,0.0018877865044673611,-0.0018877865044673611
188.395,0.0059072218752016575,-0.0059072218752016575
188.39600000000002,0.005702846893161455,-0.005702846893161455
188.39700000000002,0.0017156401781491764,-0.0017156401781491764
188.398,0.004690475703572219,0.004690475703572219
188.399,0.011666239383963781,0.011666239383963781
188.4,0.017397586098174777,0.017397586098174777
188.401,0.020573039957440017,0.020573039957440017
188.40200000000002,0.020683491753375326,0.020683491753375326
188.40300000000002,0.018087537977837426,0.018087537977837426
188.404,0.013837355613406252,0.013837355613406252
188.405,0.009321421059150212,0.009321421059150212
188.406,0.005826778911887393,0.005826778911887393
188.407,0.0041436940145324055,0.0041436940145324055
188.40800000000002,0.0043238587434250506,0.0043238587434250506
188.40900000000002,0.005661922790052823,0.005661922790052823
188.41,0.006908760344524362,0.006908760344524362
188.411,0.006659332656578581,0.006659332656578581
188.412,0.003806227186785187,0.003806227186785187
188.413,0.002072684023599447,-0.002072684023599447
188.41400000000002,0.010509514465955223,-0.010509514465955223
188.41500000000002,0.02019233555220188,-0.02019233555220188
188.416,0.029258511848030515,-0.029258511848030515
188.417,0.03575940460771804,-0.03575940460771804
188.418,0.03816810993183996,-0.03816810993183996
188.419,0.035786504338439606,-0.035786504338439606
188.42000000000002,0.02893524227536922,-0.02893524227536922
188.42100000000002,0.018873095307567565,-0.018873095307567565
188.422,0.0074713536490805445,-0.0074713536490805445
188.423,0.003259573856797036,0.003259573856797036
188.424,0.011653109440672941,0.011653109440672941
188.425,0.016742795836010262,0.016742795836010262
188.42600000000002,0.018399817277896583,0.018399817277896583
188.42700000000002,0.017230936694081753,0.017230936694081753
188.428,0.014290759680732774,0.014290759680732774
188.429,0.010715760930498934,0.010715760930498934
188.43,0.007402741183892109,0.007402741183892109
188.431,0.004827649597403387,0.004827649597403387
188.43200000000002,0.003042966756129736,0.003042966756129736
188.43300000000002,0.001824732166423998,0.001824732166423998
188.434,0.0008883395638011312,0.0008883395638011312
188.435,7.39526498962651e-05,7.39526498962651e-05
188.436,0.0005763902702442746,-0.0005763902702442746
188.437,0.0008763075799340397,-0.0008763075799340397
188.43800000000002,0.0006522345420003445,-0.0006522345420003445
188.43900000000002,8.129052756104131e-05,8.129052756104131e-05
188.44,0.0010221998690816286,0.0010221998690816286
188.441,0.0016234698700600615,0.0016234698700600615
188.442,0.001285049791660089,0.001285049791660089
188.443,0.00036512467806389446,-0.00036512467806389446
188.44400000000002,0.0032108723822960035,-0.0032108723822960035
188.44500000000002,0.006527983960638431,-0.006527983960638431
188.446,0.009087030150151167,-0.009087030150151167
188.447,0.009485623606631757,-0.009485623606631757
188.448,0.00662905064492135,-0.00662905064492135
188.449,0.00020934795515518682,-0.00020934795515518682
188.45000000000002,0.00898942364960879,0.00898942364960879
188.45100000000002,0.019095004740576512,0.019095004740576512
188.452,0.027506401775263083,0.027506401775263083
188.453,0.03154132238548797,0.03154132238548797
188.454,0.029201402744671475,0.029201402744671475
188.455,0.019829900396963925,0.019829900396963925
188.45600000000002,0.00445056962817754,0.00445056962817754
188.45700000000002,0.014340479718637816,-0.014340479718637816
188.458,0.03292912668237649,-0.03292912668237649
188.459,0.04754734529734426,-0.04754734529734426
188.46,0.0552114650228106,-0.0552114650228106
188.461,0.05446905117138542,-0.05446905117138542
188.46200000000002,0.045739638679604504,-0.045739638679604504
188.46300000000002,0.03115191947907249,-0.03115191947907249
188.464,0.013928379746549344,-0.013928379746549344
188.465,0.0024980869667031633,0.0024980869667031633
188.466,0.015373993392294267,0.015373993392294267
188.467,0.02326323628315414,0.02326323628315414
188.46800000000002,0.02625732276122113,0.02625732276122113
188.46900000000002,0.025717010563473065,0.025717010563473065
188.47,0.023649620056588647,0.023649620056588647
188.471,0.021935882560676568,0.021935882560676568
188.472,0.021660488423234172,0.021660488423234172
188.473,0.022759933709274142,0.022759933709274142
188.47400000000002,0.024093931478183367,0.024093931478183367
188.47500000000002,0.02390749736373227,0.02390749736373227
188.476,0.020524303636982186,0.020524303636982186
188.477,0.013037850907502431,0.013037850907502431
188.478,0.001768178226810222,0.001768178226810222
188.479,0.011672976232711478,-0.011672976232711478
188.48000000000002,0.02474081741544473,-0.02474081741544473
188.481,0.03463729586182098,-0.03463729586182098
188.482,0.03910671462417882,-0.03910671462417882
188.483,0.03710304877408529,-0.03710304877408529
188.484,0.029121832998361023,-0.029121832998361023
188.485,0.017090427166813367,-0.017090427166813367
188.48600000000002,0.003844264414873923,-0.003844264414873923
188.487,0.007657612179867223,0.007657612179867223
188.488,0.015145019196675462,0.015145019196675462
188.489,0.01763532941976993,0.01763532941976993
188.49,0.015640642306129857,0.015640642306129857
188.491,0.010923659722191404,0.010923659722191404
188.49200000000002,0.005879170090475326,0.005879170090475326
188.493,0.0027324642608367736,0.0027324642608367736
188.494,0.002803614709305401,0.002803614709305401
188.495,0.006069329482958568,0.006069329482958568
188.496,0.011165970625530118,0.011165970625530118
188.497,0.015843290362232004,0.015843290362232004
188.49800000000002,0.017737599580636917,0.017737599580636917
188.499,0.015227597698222768,0.015227597698222768
188.5,0.008098979793164762,0.008098979793164762
188.501,0.00221080800966259,-0.00221080800966259
188.502,0.012898459846020194,-0.012898459846020194
188.50300000000001,0.020563441239739175,-0.020563441239739175
188.50400000000002,0.022257293537198266,-0.022257293537198266
188.505,0.01650848902980477,-0.01650848902980477
188.506,0.0039999394047783195,-0.0039999394047783195
188.507,0.012345162899742617,0.012345162899742617
188.508,0.02795527388756262,0.02795527388756262
188.50900000000001,0.03776982933533505,0.03776982933533505
188.51000000000002,0.03767642609339793,0.03767642609339793
188.511,0.025828727240494124,0.025828727240494124
188.512,0.0034490116345704553,0.0034490116345704553
188.513,0.025163462166434676,-0.025163462166434676
188.514,0.053489773774381154,-0.053489773774381154
188.51500000000001,0.07434282052967094,-0.07434282052967094
188.51600000000002,0.08173123311501443,-0.08173123311501443
188.517,0.07253984460064063,-0.07253984460064063
188.518,0.047551654510950205,-0.047551654510950205
188.519,0.011493666408269017,-0.011493666408269017
188.52,0.027955265758418644,0.027955265758418644
188.52100000000002,0.06197139617083025,0.06197139617083025
188.52200000000002,0.08275115590243923,0.08275115590243923
188.523,0.08546487546329666,0.08546487546329666
188.524,0.06947419221521506,0.06947419221521506
188.525,0.03848157397459881,0.03848157397459881
188.526,0.0004295598849075046,-0.0004295598849075046
188.52700000000002,0.038600886608819426,-0.038600886608819426
188.52800000000002,0.06795662881727581,-0.06795662881727581
188.529,0.08292698133262513,-0.08292698133262513
188.53,0.08162901089392594,-0.08162901089392594
188.531,0.06601806862665163,-0.06601806862665163
188.532,0.04102274629406666,-0.04102274629406666
188.53300000000002,0.012965210780772347,-0.012965210780772347
188.53400000000002,0.012239460941648656,0.012239460941648656
188.535,0.03057225097973908,0.03057225097973908
188.536,0.0406768729366297,0.0406768729366297
188.537,0.04373558723545914,0.04373558723545914
188.538,0.04256983287143723,0.04256983287143723
188.53900000000002,0.040318132395623894,0.040318132395623894
188.54000000000002,0.03915986828885,0.03915986828885
188.541,0.0395153009234291,0.0395153009234291
188.542,0.03997564732349966,0.03997564732349966
188.543,0.03796229543254116,0.03796229543254116
188.544,0.030865681294981746,0.030865681294981746
188.54500000000002,0.01725315527204195,0.01725315527204195
188.54600000000002,0.0022870277988013333,-0.0022870277988013333
188.547,0.02497592985485175,-0.02497592985485175
188.548,0.04643308255871289,-0.04643308255871289
188.549,0.061855537412909035,-0.061855537412909035
188.55,0.06741936726231457,-0.06741936726231457
188.55100000000002,0.06145779983769676,-0.06145779983769676
188.55200000000002,0.045036810018385255,-0.045036810018385255
188.553,0.021738197854626412,-0.021738197854626412
188.554,0.003290134002293693,0.003290134002293693
188.555,0.0247278132884793,0.0247278132884793
188.556,0.03849533517702227,0.03849533517702227
188.55700000000002,0.04276344978346567,0.04276344978346567
188.55800000000002,0.03826892586439664,0.03826892586439664
188.559,0.02786911671629036,0.02786911671629036
188.56,0.015505306000208025,0.015505306000208025
188.561,0.004921855537556505,0.004921855537556505
188.562,0.0014499282726628954,-0.0014499282726628954
188.56300000000002,0.003103779624083885,-0.003103779624083885
188.56400000000002,0.0014013799028599525,-0.0014013799028599525
188.565,0.0010984596061901094,0.0010984596061901094
188.566,0.0016748930727864687,0.0016748930727864687
188.567,0.001511813682741288,-0.001511813682741288
188.568,0.00871385204682149,-0.00871385204682149
188.56900000000002,0.018449348550131178,-0.018449348550131178
188.57000000000002,0.02795038266899966,-0.02795038266899966
188.571,0.03404749533357424,-0.03404749533357424
188.572,0.03419747074899374,-0.03419747074899374
188.573,0.027324181350699007,-0.027324181350699007
188.574,0.01421107190901676,-0.01421107190901676
188.57500000000002,0.0026679314518295357,0.0026679314518295357
188.57600000000002,0.019814925242122344,0.019814925242122344
188.577,0.03365818296170422,0.03365818296170422
188.578,0.04149555816501093,0.04149555816501093
188.579,0.04215683334209985,0.04215683334209985
188.58,0.03620917188445651,0.03620917188445651
188.58100000000002,0.02567527673340885,0.02567527673340885
188.58200000000002,0.013378684952811866,0.013378684952811866
188.583,0.002130772512351199,0.002130772512351199
188.584,0.005997479911915153,-0.005997479911915153
188.585,0.010121907733770204,-0.010121907733770204
188.586,0.010612901147251963,-0.010612901147251963
188.58700000000002,0.00880685170080373,-0.00880685170080373
188.58800000000002,0.006484323056454083,-0.006484323056454083
188.589,0.00529158484622711,-0.00529158484622711
188.59,0.006277608001609626,-0.006277608001609626
188.591,0.009663675439886872,-0.009663675439886872
188.592,0.014879704140639261,-0.014879704140639261
188.59300000000002,0.020818565786741676,-0.020818565786741676
188.59400000000002,0.0262021457789193,-0.0262021457789193
188.595,0.02993494660911698,-0.02993494660911698
188.596,0.03134325875630232,-0.03134325875630232
188.597,0.030248496524145903,-0.030248496524145903
188.598,0.026883181439782744,-0.026883181439782744
188.59900000000002,0.021707600746675833,-0.021707600746675833
188.60000000000002,0.015210100841123944,-0.015210100841123944
188.601,0.0077690223508416825,-0.0077690223508416825
188.602,0.00037629643644612965,0.00037629643644612965
188.603,0.009042689789939412,0.009042689789939412
188.604,0.017949677321862513,0.017949677321862513
188.60500000000002,0.02656593993145578,0.02656593993145578
188.606,0.03403233536714279,0.03403233536714279
188.607,0.03921828222571339,0.03921828222571339
188.608,0.040927830365755556,0.040927830365755556
188.609,0.03822126260502549,0.03822126260502549
188.61,0.030771758739633115,0.030771758739633115
188.61100000000002,0.01914862524878535,0.01914862524878535
188.612,0.004919443991604219,0.004919443991604219
188.613,0.009502846268965581,-0.009502846268965581
188.614,0.0212801476995705,-0.0212801476995705
188.615,0.027772432690344743,-0.027772432690344743
188.616,0.027228517126844903,-0.027228517126844903
188.61700000000002,0.019364701431868872,-0.019364701431868872
188.618,0.005652144319361368,-0.005652144319361368
188.619,0.010813446170688482,0.010813446170688482
188.62,0.025888252305989824,0.025888252305989824
188.621,0.03530990814826832,0.03530990814826832
188.622,0.0357746441909777,0.0357746441909777
188.62300000000002,0.025887624617053163,0.025887624617053163
188.624,0.00671351060018715,0.00671351060018715
188.625,0.018265127482135896,-0.018265127482135896
188.626,0.04382829231740691,-0.04382829231740691
188.627,0.06420978231143813,-0.06420978231143813
188.62800000000001,0.0745157724780766,-0.0745157724780766
188.62900000000002,0.07200009168495462,-0.07200009168495462
188.63,0.056838608985770145,-0.056838608985770145
188.631,0.0321633130694353,-0.0321633130694353
188.632,0.0033128928599912367,-0.0033128928599912367
188.633,0.02352225561776346,0.02352225561776346
188.63400000000001,0.04290140426727807,0.04290140426727807
188.63500000000002,0.05153754316906106,0.05153754316906106
188.636,0.04910330891743261,0.04910330891743261
188.637,0.038201483751730686,0.038201483751730686
188.638,0.023502441074142674,0.023502441074142674
188.639,0.010296821421651855,0.010296821421651855
188.64000000000001,0.0028890844591265142,0.0028890844591265142
188.64100000000002,0.0033101432683485562,0.0033101432683485562
188.642,0.01073574830784923,0.01073574830784923
188.643,0.021786660732612716,0.021786660732612716
188.644,0.0316197008581536,0.0316197008581536
188.645,0.035477142943952406,0.035477142943952406
188.64600000000002,0.030220795554760517,0.030220795554760517
188.64700000000002,0.01538113733458343,0.01538113733458343
188.648,0.006599363145473062,-0.006599363145473062
188.649,0.03100207825916563,-0.03100207825916563
188.65,0.052151456667009,-0.052151456667009
188.651,0.06501535306951693,-0.06501535306951693
188.65200000000002,0.06660415895061154,-0.06660415895061154
188.65300000000002,0.056756633973548985,-0.056756633973548985
188.654,0.03809644975844255,-0.03809644975844255
188.655,0.015201529734689911,-0.015201529734689911
188.656,0.006734340138126146,0.006734340138126146
188.657,0.023325818412026016,0.023325818412026016
188.65800000000002,0.0320792771474501,0.0320792771474501
188.65900000000002,0.03283693724610888,0.03283693724610888
188.66,0.027500157912291316,0.027500157912291316
188.661,0.019180610079968127,0.019180610079968127
188.662,0.011097081698219114,0.011097081698219114
188.663,0.005590886356064115,0.005590886356064115
188.66400000000002,0.0035618499294338486,0.0035618499294338486
188.66500000000002,0.004460124929356426,0.004460124929356426
188.666,0.00676836979649687,0.00676836979649687
188.667,0.008745033333524712,0.008745033333524712
188.668,0.00912791392811848,0.00912791392811848
188.669,0.007538700388309467,0.007538700388309467
188.67000000000002,0.004463823881375165,0.004463823881375165
188.67100000000002,0.0008617242474513784,0.0008617242474513784
188.672,0.0024047837315535796,-0.0024047837315535796
188.673,0.005045653990237341,-0.005045653990237341
188.674,0.007504966633820794,-0.007504966633820794
188.675,0.010713200788214165,-0.010713200788214165
188.67600000000002,0.015511537897126173,-0.015511537897126173
188.67700000000002,0.02197975112958188,-0.02197975112958188
188.678,0.02896638360568626,-0.02896638360568626
188.679,0.03407332634560094,-0.03407332634560094
188.68,0.03419691035326717,-0.03419691035326717
188.681,0.026522992643989662,-0.026522992643989662
188.68200000000002,0.00968542588406674,-0.00968542588406674
188.68300000000002,0.015304987573723648,0.015304987573723648
188.684,0.04472748422961174,0.04472748422961174
188.685,0.07262478724911432,0.07262478724911432
188.686,0.0920517400246742,0.0920517400246742
188.687,0.09681495705782327,0.09681495705782327
188.68800000000002,0.08323745400385907,0.08323745400385907
188.68900000000002,0.05143396898794091,0.05143396898794091
188.69,0.00569009642351256,0.00569009642351256
188.691,0.04622524580237256,-0.04622524580237256
188.692,0.09468698391811795,-0.09468698391811795
188.693,0.13038333525731774,-0.13038333525731774
188.69400000000002,0.14646835791830953,-0.14646835791830953
188.69500000000002,0.1401342084728024,-0.1401342084728024
188.696,0.11319493773001539,-0.11319493773001539
188.697,0.07154266960365731,-0.07154266960365731
188.698,0.02364109932383435,-0.02364109932383435
188.699,0.02152708063977129,0.02152708063977129
188.70000000000002,0.05651289876132949,0.05651289876132949
188.70100000000002,0.07693323923188737,0.07693323923188737
188.702,0.08212772007930906,0.08212772007930906
188.703,0.07483908314944057,0.07483908314944057
188.704,0.060081073106979827,0.060081073106979827
188.705,0.043560270883750286,0.043560270883750286
188.70600000000002,0.030106313328465233,0.030106313328465233
188.70700000000002,0.02252267935101438,0.02252267935101438
188.708,0.021119975434418382,0.021119975434418382
188.709,0.02398608536010986,0.02398608536010986
188.71,0.027844804369637894,0.027844804369637894
188.711,0.02921149972850284,0.02921149972850284
188.71200000000002,0.02550367463405116,0.02550367463405116
188.71300000000002,0.01580987738283219,0.01580987738283219
188.714,0.0011393517039653262,0.0011393517039653262
188.715,0.01587270553932701,-0.01587270553932701
188.716,0.0316871260193185,-0.0316871260193185
188.717,0.04279584536799208,-0.04279584536799208
188.71800000000002,0.04662264038343605,-0.04662264038343605
188.71900000000002,0.04217208530224513,-0.04217208530224513
188.72,0.030286677032261004,-0.030286677032261004
188.721,0.013472453320689842,-0.013472453320689842
188.722,0.0046485253494135195,0.0046485253494135195
188.723,0.02012487516125655,0.02012487516125655
188.72400000000002,0.02952649758458386,0.02952649758458386
188.72500000000002,0.030680011424824623,0.030680011424824623
188.726,0.02314000332339143,0.02314000332339143
188.727,0.00830297788911521,0.00830297788911521
188.728,0.010858017923258263,-0.010858017923258263
188.729,0.030385711964063748,-0.030385711964063748
188.73000000000002,0.04614016284162078,-0.04614016284162078
188.731,0.054647553838882014,-0.054647553838882014
188.732,0.05382068308982006,-0.05382068308982006
188.733,0.04339798244714,-0.04339798244714
188.734,0.025004410127194808,-0.025004410127194808
188.735,0.0018182874416169145,-0.0018182874416169145
188.73600000000002,0.022084055475903343,0.022084055475903343
188.737,0.042560009177989945,0.042560009177989945
188.738,0.05622218363896106,0.05622218363896106
188.739,0.061067376206589016,0.061067376206589016
188.74,0.056780405372575705,0.056780405372575705
188.741,0.0446628950016067,0.0446628950016067
188.74200000000002,0.027230572274639736,0.027230572274639736
188.743,0.007601150369059364,0.007601150369059364
188.744,0.011163164645175496,-0.011163164645175496
188.745,0.026599694538994467,-0.026599694538994467
188.746,0.03716558113109127,-0.03716558113109127
188.747,0.042299131863292795,-0.042299131863292795
188.74800000000002,0.042263878232905824,-0.042263878232905824
188.749,0.03787158684812668,-0.03787158684812668
188.75,0.030197047025462144,-0.030197047025462144
188.751,0.020373860410748817,-0.020373860410748817
188.752,0.009508404812740713,-0.009508404812740713
188.75300000000001,0.0013101552252563302,0.0013101552252563302
188.75400000000002,0.010969523426621055,0.010969523426621055
188.755,0.01834076043693351,0.01834076043693351
188.756,0.022384154437855498,0.022384154437855498
188.757,0.02235626281603246,0.02235626281603246
188.758,0.018063209155333926,0.018063209155333926
188.75900000000001,0.010065723238062688,0.010065723238062688
188.76000000000002,0.0002637013812204846,-0.0002637013812204846
188.761,0.010896704043810776,-0.010896704043810776
188.762,0.01951864824360106,-0.01951864824360106
188.763,0.02403906451950136,-0.02403906451950136
188.764,0.023113249689537332,-0.023113249689537332
188.76500000000001,0.016526209746739514,-0.016526209746739514
188.76600000000002,0.005317820416230359,-0.005317820416230359
188.767,0.008403900168922515,0.008403900168922515
188.768,0.021926355895463417,0.021926355895463417
188.769,0.0325568178825593,0.0325568178825593
188.77,0.03824368250956132,0.03824368250956132
188.77100000000002,0.03803042146122829,0.03803042146122829
188.77200000000002,0.03222612371275679,0.03222612371275679
188.773,0.022257524774432134,0.022257524774432134
188.774,0.010256295044509662,0.010256295044509662
188.775,0.0014946935243003116,-0.0014946935243003116
188.776,0.011101328551429332,-0.011101328551429332
188.77700000000002,0.01744450950043019,-0.01744450950043019
188.77800000000002,0.020326166102536312,-0.020326166102536312
188.779,0.02036188617152524,-0.02036188617152524
188.78,0.018677155999489433,-0.018677155999489433
188.781,0.016511092335626927,-0.016511092335626927
188.782,0.014844174402597998,-0.014844174402597998
188.78300000000002,0.014145510560328148,-0.014145510560328148
188.78400000000002,0.014291262950698456,-0.014291262950698456
188.785,0.014654963926381197,-0.014654963926381197
188.786,0.014327932251605937,-0.014327932251605937
188.787,0.012403686698855861,-0.012403686698855861
188.788,0.008256320291918485,-0.008256320291918485
188.78900000000002,0.0017546593796798453,-0.0017546593796798453
188.79000000000002,0.006626311256987,0.006626311256987
188.791,0.01581519121654441,0.01581519121654441
188.792,0.02427675835630642,0.02427675835630642
188.793,0.03025514351435907,0.03025514351435907
188.794,0.03210104955914504,0.03210104955914504
188.79500000000002,0.028639383595587417,0.028639383595587417
188.79600000000002,0.01951479188667921,0.01951479188667921
188.797,0.005437682690323454,0.005437682690323454
188.798,0.011748625375041288,-0.011748625375041288
188.799,0.029239583951959042,-0.029239583951959042
188.8,0.04369596079598738,-0.04369596079598738
188.80100000000002,0.05187842315330023,-0.05187842315330023
188.80200000000002,0.051376292260331136,-0.051376292260331136
188.803,0.04126607768804896,-0.04126607768804896
188.804,0.022521600122357252,-0.022521600122357252
188.805,0.0019673203033931668,0.0019673203033931668
188.806,0.02782809333244727,0.02782809333244727
188.80700000000002,0.05003834420287437,0.05003834420287437
188.80800000000002,0.06399325342933625,0.06399325342933625
188.809,0.06656166680536924,0.06656166680536924
188.81,0.05686562481438324,0.05686562481438324
188.811,0.03657023397847569,0.03657023397847569
188.812,0.009585884665446324,0.009585884665446324
188.81300000000002,0.018766139917482206,-0.018766139917482206
188.81400000000002,0.042931454474821724,-0.042931454474821724
188.815,0.05835616829750766,-0.05835616829750766
188.816,0.06247052607924708,-0.06247052607924708
188.817,0.055181718711289775,-0.055181718711289775
188.818,0.03876550384515565,-0.03876550384515565
188.81900000000002,0.0172055495678889,-0.0172055495678889
188.82000000000002,0.004827905847445305,0.004827905847445305
188.821,0.02308256032320854,0.02308256032320854
188.822,0.03462790790927691,0.03462790790927691
188.823,0.03834688855016343,0.03834688855016343
188.824,0.03493033573858257,0.03493033573858257
188.82500000000002,0.026430759373986014,0.026430759373986014
188.82600000000002,0.015546484407393315,0.015546484407393315
188.827,0.004862920758952776,0.004862920758952776
188.828,0.003737316550696531,-0.003737316550696531
188.829,0.009359321232660995,-0.009359321232660995
188.83,0.012047700255915509,-0.012047700255915509
188.83100000000002,0.01248129796609252,-0.01248129796609252
188.83200000000002,0.011555049570015945,-0.011555049570015945
188.833,0.010007196957526282,-0.010007196957526282
188.834,0.008210753972867472,-0.008210753972867472
188.835,0.0061735833608886495,-0.0061735833608886495
188.836,0.0037101373753048177,-0.0037101373753048177
188.83700000000002,0.0006882557522541961,-0.0006882557522541961
188.83800000000002,0.002764683246792979,0.002764683246792979
188.839,0.006186920514029327,0.006186920514029327
188.84,0.008872273403485715,0.008872273403485715
188.841,0.010091616475143738,0.010091616475143738
188.842,0.009360893767382238,0.009360893767382238
188.84300000000002,0.006652078418146443,0.006652078418146443
188.84400000000002,0.002463544667956195,0.002463544667956195
188.845,0.0022833681314022814,-0.0022833681314022814
188.846,0.006492972102210044,-0.006492972102210044
188.847,0.00920914317500236,-0.00920914317500236
188.848,0.00989166530386482,-0.00989166530386482
188.84900000000002,0.008564747357609795,-0.008564747357609795
188.85000000000002,0.005790459409796718,-0.005790459409796718
188.851,0.0024778539657788123,-0.0024778539657788123
188.852,0.0004083508732903297,0.0004083508732903297
188.853,0.00214494345391213,0.00214494345391213
188.854,0.002459649672394215,0.002459649672394215
188.85500000000002,0.0015902715208477608,0.0015902715208477608
188.856,0.00018064809648342918,0.00018064809648342918
188.857,0.0009480463268292556,-0.0009480463268292556
188.858,0.0010754607077646703,-0.0010754607077646703
188.859,0.00017687470052967088,0.00017687470052967088
188.86,0.0027123732327060646,0.0027123732327060646
188.86100000000002,0.005968926187159668,0.005968926187159668
188.862,0.009062505538023716,0.009062505538023716
188.863,0.011018995924244948,0.011018995924244948
188.864,0.011027854011136689,0.011027854011136689
188.865,0.00865129881003542,0.00865129881003542
188.866,0.003940728686479482,0.003940728686479482
188.86700000000002,0.002559816398127815,-0.002559816398127815
188.868,0.009914555951477956,-0.009914555951477956
188.869,0.016971079624299543,-0.016971079624299543
188.87,0.022569161374205393,-0.022569161374205393
188.871,0.025743277451761627,-0.025743277451761627
188.872,0.025886674412730095,-0.025886674412730095
188.87300000000002,0.0228554705468211,-0.0228554705468211
188.874,0.017001221946076114,-0.017001221946076114
188.875,0.009128413562201995,-0.009128413562201995
188.876,0.000380344176493829,-0.000380344176493829
188.877,0.007935339324729231,0.007935339324729231
188.87800000000001,0.014560590669017734,0.014560590669017734
188.87900000000002,0.01850902483857206,0.01850902483857206
188.88,0.019256420016626804,0.019256420016626804
188.881,0.016858114414263742,0.016858114414263742
188.882,0.011959786541140036,0.011959786541140036
188.883,0.0056869053957591285,0.0056869053957591285
188.88400000000001,0.0005751833892195395,-0.0005751833892195395
188.88500000000002,0.005470351062036661,-0.005470351062036661
188.886,0.007968136032834269,-0.007968136032834269
188.887,0.007597980561345667,-0.007597980561345667
188.888,0.0045617455194612334,-0.0045617455194612334
188.889,0.00030825188838269206,0.00030825188838269206
188.89000000000001,0.005741206338486195,0.005741206338486195
188.89100000000002,0.010327333374296862,0.010327333374296862
188.892,0.012854084438703735,0.012854084438703735
188.893,0.01259748076032312,0.01259748076032312
188.894,0.009497056224857128,0.009497056224857128
188.895,0.00417130985670184,0.00417130985670184
188.89600000000002,0.002230120372166486,-0.002230120372166486
188.89700000000002,0.008301333083063765,-0.008301333083063765
188.898,0.012715237332287441,-0.012715237332287441
188.899,0.01453810319416881,-0.01453810319416881
188.9,0.013448634411671635,-0.013448634411671635
188.901,0.009810018190412917,-0.009810018190412917
188.90200000000002,0.004578432631173628,-0.004578432631173628
188.90300000000002,0.0009302140849235986,0.0009302140849235986
188.904,0.00536062191267532,0.00536062191267532
188.905,0.007650404260056882,0.007650404260056882
188.906,0.007295629878125888,0.007295629878125888
188.907,0.004484880514055898,0.004484880514055898
188.90800000000002,6.604917881077987e-05,6.604917881077987e-05
188.90900000000002,0.00465177899529365,-0.00465177899529365
188.91,0.008219667782312624,-0.008219667782312624
188.911,0.00941989244541322,-0.00941989244541322
188.912,0.007596917520837131,-0.007596917520837131
188.913,0.002862925600897425,-0.002862925600897425
188.91400000000002,0.0038814007364358165,0.0038814007364358165
188.91500000000002,0.0111269068612248,0.0111269068612248
188.916,0.017101980954542042,0.017101980954542042
188.917,0.020203998748403576,0.020203998748403576
188.918,0.019408031855154335,0.019408031855154335
188.919,0.014544549857710306,0.014544549857710306
188.92000000000002,0.006367726386305781,0.006367726386305781
188.92100000000002,0.0036102730504812917,-0.0036102730504812917
188.922,0.013479840176042477,-0.013479840176042477
188.923,0.021394459255706207,-0.021394459255706207
188.924,0.026006048430613188,-0.026006048430613188
188.925,0.026755590456476238,-0.026755590456476238
188.92600000000002,0.0239412631033962,-0.0239412631033962
188.92700000000002,0.018552646496701727,-0.018552646496701727
188.928,0.011930534946533311,-0.011930534946533311
188.929,0.005364751950664728,-0.005364751950664728
188.93,0.00024069462166105684,0.00024069462166105684
188.931,0.0045314692356417455,0.0045314692356417455
188.93200000000002,0.00765299983582521,0.00765299983582521
188.93300000000002,0.010020198206096901,0.010020198206096901
188.934,0.01200553019825769,0.01200553019825769
188.935,0.013675009120839427,0.013675009120839427
188.936,0.014685458141157888,0.014685458141157888
188.937,0.01439666243039986,0.01439666243039986
188.93800000000002,0.012168338730194099,0.012168338730194099
188.93900000000002,0.007733710556097229,0.007733710556097229
188.94,0.0014984541925114321,0.0014984541925114321
188.941,0.005375194120515755,-0.005375194120515755
188.942,0.011173632413660673,-0.011173632413660673
188.943,0.014099604854625943,-0.014099604854625943
188.94400000000002,0.012872653675050942,-0.012872653675050942
188.94500000000002,0.007265118000474663,-0.007265118000474663
188.946,0.0016274960344052568,0.0016274960344052568
188.947,0.01151576677052593,0.01151576677052593
188.948,0.01945759181693908,0.01945759181693908
188.949,0.02268489570367501,0.02268489570367501
188.95000000000002,0.0194794752261925,0.0194794752261925
188.95100000000002,0.009820877407101353,0.009820877407101353
188.952,0.0044230025507234,-0.0044230025507234
188.953,0.019864630360242316,-0.019864630360242316
188.954,0.03245652611246266,-0.03245652611246266
188.955,0.03861337377767568,-0.03861337377767568
188.95600000000002,0.03627084682439426,-0.03627084682439426
188.95700000000002,0.025556550144298893,-0.025556550144298893
188.958,0.008852450517114974,-0.008852450517114974
188.959,0.009793765583849258,0.009793765583849258
188.96,0.025752896380371638,0.025752896380371638
188.961,0.03508295004266907,0.03508295004266907
188.96200000000002,0.03560910210456911,0.03560910210456911
188.96300000000002,0.027494586802924117,0.027494586802924117
188.964,0.013135689541404491,0.013135689541404491
188.965,0.0035795108659728817,-0.0035795108659728817
188.966,0.01841474276554656,-0.01841474276554656
188.967,0.027977492577489164,-0.027977492577489164
188.96800000000002,0.0305977567883287,-0.0305977567883287
188.96900000000002,0.026639007637677778,-0.026639007637677778
188.97,0.018173023198194065,-0.018173023198194065
188.971,0.008154724635817828,-0.008154724635817828
188.972,0.0006108279781078747,0.0006108279781078747
188.973,0.006360021273057499,0.006360021273057499
188.97400000000002,0.008830828096646873,0.008830828096646873
188.97500000000002,0.009155831377401018,0.009155831377401018
188.976,0.009249288454064914,0.009249288454064914
188.977,0.010922288671246769,0.010922288671246769
188.978,0.015051136299229934,0.015051136299229934
188.979,0.02110329085860882,0.02110329085860882
188.98000000000002,0.027200194482589493,0.027200194482589493
188.981,0.03070974137271865,0.03070974137271865
188.982,0.029176100156555848,0.029176100156555848
188.983,0.02127341845694734,0.02127341845694734
188.984,0.007453359248075806,0.007453359248075806
188.985,0.009949839157720687,-0.009949839157720687
188.98600000000002,0.027219928383228658,-0.027219928383228658
188.987,0.04023233587202781,-0.04023233587202781
188.988,0.04561415267721639,-0.04561415267721639
188.989,0.04174028037614075,-0.04174028037614075
188.99,0.029262709611028385,-0.029262709611028385
188.991,0.011010984831395428,-0.011010984831395428
188.99200000000002,0.008709206223988812,0.008709206223988812
188.993,0.025215762328348486,0.025215762328348486
188.994,0.034634458852721206,0.034634458852721206
188.995,0.03484132124378917,0.03484132124378917
188.996,0.025920453718670265,0.025920453718670265
188.997,0.010044136330409414,0.010044136330409414
188.99800000000002,0.009152361072878975,-0.009152361072878975
188.999,0.027497824778736333,-0.027497824778736333
189.0,0.04125021849780115,-0.04125021849780115
189.001,0.047857078851323426,-0.047857078851323426
189.002,0.04635500999668668,-0.04635500999668668
189.00300000000001,0.03736990025557007,-0.03736990025557007
189.00400000000002,0.02278847942533257,-0.02278847942533257
189.005,0.005240415600674303,-0.005240415600674303
189.006,0.01245534693749697,0.01245534693749697
189.007,0.027759283557899216,0.027759283557899216
189.008,0.03873304704579769,0.03873304704579769
189.00900000000001,0.044210115439763976,0.044210115439763976
189.01000000000002,0.04384706032347491,0.04384706032347491
189.011,0.03809340077032205,0.03809340077032205
189.012,0.028101354317757076,0.028101354317757076
189.013,0.015573839869912263,0.015573839869912263
189.014,0.0025376764043316693,0.0025376764043316693
189.01500000000001,0.008960452851813665,-0.008960452851813665
189.01600000000002,0.017206963714755674,-0.017206963714755674
189.017,0.02115785455921745,-0.02115785455921745
189.018,0.020669427129440657,-0.020669427129440657
189.019,0.016539853201618458,-0.016539853201618458
189.02,0.010319296136504315,-0.010319296136504315
189.02100000000002,0.003913180939709163,-0.003913180939709163
189.02200000000002,0.0009260916095171633,0.0009260916095171633
189.023,0.003075888644993621,0.003075888644993621
189.024,0.002341620435324247,0.002341620435324247
189.025,0.0005237503740131255,-0.0005237503740131255
189.026,0.004094138548625735,-0.004094138548625735
189.02700000000002,0.006757590738569395,-0.006757590738569395
189.02800000000002,0.0072613013262362155,-0.0072613013262362155
189.029,0.005135257458365849,-0.005135257458365849
189.03,0.0008521988117143755,-0.0008521988117143755
189.031,0.004331183180659914,0.004331183180659914
189.032,0.008798333477855887,0.008798333477855887
189.03300000000002,0.011116770396648299,0.011116770396648299
189.03400000000002,0.010514207264579098,0.010514207264579098
189.035,0.007122852699591541,0.007122852699591541
189.036,0.0019101180343719694,0.0019101180343719694
189.037,0.00367399839237029,-0.00367399839237029
189.038,0.008201008472689954,-0.008201008472689954
189.03900000000002,0.010733854768385715,-0.010733854768385715
189.04000000000002,0.011091414410886456,-0.011091414410886456
189.041,0.009814670641920212,-0.009814670641920212
189.042,0.007855670335631037,-0.007855670335631037
189.043,0.006117888669473344,-0.006117888669473344
189.044,0.005036638518871075,-0.005036638518871075
189.04500000000002,0.004376368036935321,-0.004376368036935321
189.04600000000002,0.0033400657541275557,-0.0033400657541275557
189.047,0.0009630524407705287,-0.0009630524407705287
189.048,0.003355401495543007,0.003355401495543007
189.049,0.009397909062720085,0.009397909062720085
189.05,0.015956665869659492,0.015956665869659492
189.05100000000002,0.02105590912399151,0.02105590912399151
189.05200000000002,0.022538959005801003,0.022538959005801003
189.053,0.018845162877032327,0.018845162877032327
189.054,0.009709927676489106,0.009709927676489106
189.055,0.003480759666213957,-0.003480759666213957
189.056,0.01785388232382596,-0.01785388232382596
189.05700000000002,0.029737108291254505,-0.029737108291254505
189.05800000000002,0.03569421791755434,-0.03569421791755434
189.059,0.03359650261902823,-0.03359650261902823
189.06,0.023380734185352615,-0.023380734185352615
189.061,0.007223328965955283,-0.007223328965955283
189.062,0.01096437370544127,0.01096437370544127
189.06300000000002,0.026597804549448045,0.026597804549448045
189.06400000000002,0.03572855557423297,0.03572855557423297
189.065,0.03619874065076758,0.03619874065076758
189.066,0.028273016301099237,0.028273016301099237
189.067,0.014538024268056716,0.014538024268056716
189.068,0.0009105554319834246,-0.0009105554319834246
189.06900000000002,0.01374359613709429,-0.01374359613709429
189.07000000000002,0.020734170928673436,-0.020734170928673436
189.071,0.02072655511207378,-0.02072655511207378
189.072,0.01492680125688512,-0.01492680125688512
189.073,0.006421381655189721,-0.006421381655189721
189.074,0.0009184241618835815,0.0009184241618835815
189.07500000000002,0.0037869145961278747,0.0037869145961278747
189.07600000000002,0.0006041019364270549,0.0006041019364270549
189.077,0.007899577006098724,-0.007899577006098724
189.078,0.01887254555774173,-0.01887254555774173
189.079,0.028251099264135025,-0.028251099264135025
189.08,0.03209743833519466,-0.03209743833519466
189.08100000000002,0.027933492754635483,-0.027933492754635483
189.08200000000002,0.015635542297003896,-0.015635542297003896
189.083,0.0024056763168289036,0.0024056763168289036
189.084,0.02191912027257009,0.02191912027257009
189.085,0.03798693666710674,0.03798693666710674
189.086,0.04649128160773151,0.04649128160773151
189.08700000000002,0.04532228781999679,0.04532228781999679
189.08800000000002,0.03497406886005532,0.03497406886005532
189.089,0.01835282485686132,0.01835282485686132
189.09,0.00012865346994763192,-0.00012865346994763192
189.091,0.01587378404768555,-0.01587378404768555
189.092,0.02542299403863625,-0.02542299403863625
189.09300000000002,0.027366588433047536,-0.027366588433047536
189.09400000000002,0.022585925870942016,-0.022585925870942016
189.095,0.013780992502961869,-0.013780992502961869
189.096,0.00447023937306147,-0.00447023937306147
189.097,0.0021915057930860147,0.0021915057930860147
189.098,0.004388791916457522,0.004388791916457522
189.09900000000002,0.002111706753969807,0.002111706753969807
189.10000000000002,0.003010317509290296,-0.003010317509290296
189.101,0.008416131614257315,-0.008416131614257315
189.102,0.011595454057465667,-0.011595454057465667
189.103,0.010999203551439067,-0.010999203551439067
189.104,0.006568210147290435,-0.006568210147290435
189.10500000000002,0.00028876470195189863,0.00028876470195189863
189.106,0.007243637256874573,0.007243637256874573
189.107,0.0119200994443194,0.0119200994443194
189.108,0.012776005512066618,0.012776005512066618
189.109,0.00968616542756651,0.00968616542756651
189.11,0.004020331332144623,0.004020331332144623
189.11100000000002,0.0018147864728248729,-0.0018147864728248729
189.112,0.005217212582767106,-0.005217212582767106
189.113,0.004331241620156168,-0.004331241620156168
189.114,0.0012315990541416715,0.0012315990541416715
189.115,0.010142631557310648,0.010142631557310648
189.116,0.019674769252939674,0.019674769252939674
189.11700000000002,0.026502093834592084,0.026502093834592084
189.118,0.027734774070293983,0.027734774070293983
189.119,0.021864659474356726,0.021864659474356726
189.12,0.009321167211283576,0.009321167211283576
189.121,0.007543530347303294,-0.007543530347303294
189.122,0.025044944694969762,-0.025044944694969762
189.12300000000002,0.03916029508568655,-0.03916029508568655
189.124,0.046631389289564756,-0.046631389289564756
189.125,0.04585051078851475,-0.04585051078851475
189.126,0.037272011646562984,-0.037272011646562984
189.127,0.02323762524650821,-0.02323762524650821
189.12800000000001,0.007279555324273952,-0.007279555324273952
189.12900000000002,0.00688214462214151,0.00688214462214151
189.13,0.016348111806043765,0.016348111806043765
189.131,0.019763359973996385,0.019763359973996385
189.132,0.017560868148003703,0.017560868148003703
189.133,0.011679940214390163,0.011679940214390163
189.13400000000001,0.004871470557066146,0.004871470557066146
189.13500000000002,0.00018115362897947422,-0.00018115362897947422
189.136,0.001654427671005866,-0.001654427671005866
189.137,0.0009392639477250993,0.0009392639477250993
189.138,0.0067128922923912785,0.0067128922923912785
189.139,0.013784487356156314,0.013784487356156314
189.14000000000001,0.019930265489331602,0.019930265489331602
189.14100000000002,0.023291591535517915,0.023291591535517915
189.142,0.022913855116924335,0.022913855116924335
189.143,0.018962348202930027,0.018962348202930027
189.144,0.012572075711857762,0.012572075711857762
189.145,0.005407508989020514,0.005407508989020514
189.14600000000002,0.0009037356297818271,-0.0009037356297818271
189.14700000000002,0.005269296231238629,-0.005269296231238629
189.148,0.007403628085732956,-0.007403628085732956
189.149,0.007799711514157206,-0.007799711514157206
189.15,0.007434111162849268,-0.007434111162849268
189.151,0.007328814626185447,-0.007328814626185447
189.15200000000002,0.00813740986014699,-0.00813740986014699
189.15300000000002,0.009907246829339729,-0.009907246829339729
189.154,0.012099928926216181,-0.012099928926216181
189.155,0.01385469470383055,-0.01385469470383055
189.156,0.014387663401071261,-0.014387663401071261
189.157,0.013367211500375582,-0.013367211500375582
189.15800000000002,0.011111378016956067,-0.011111378016956067
189.15900000000002,0.00851647160409552,-0.00851647160409552
189.16,0.0067259153475556395,-0.0067259153475556395
189.161,0.006650104451394763,-0.006650104451394763
189.162,0.00851487761230293,-0.00851487761230293
189.163,0.011621931832756513,-0.011621931832756513
189.16400000000002,0.014443124660629773,-0.014443124660629773
189.16500000000002,0.015059334252492477,-0.015059334252492477
189.166,0.011829150086179319,-0.011829150086179319
189.167,0.004076191417620162,-0.004076191417620162
189.168,0.007447691967600137,0.007447691967600137
189.169,0.020516425360604957,0.020516425360604957
189.17000000000002,0.031873388243925965,0.031873388243925965
189.17100000000002,0.038080612688768715,0.038080612688768715
189.172,0.03654626788144939,0.03654626788144939
189.173,0.026422185239642782,0.026422185239642782
189.174,0.009075591386764904,0.009075591386764904
189.175,0.012052135250544636,-0.012052135250544636
189.17600000000002,0.032210338243775845,-0.032210338243775845
189.17700000000002,0.04654589297598924,-0.04654589297598924
189.178,0.051422284532298336,-0.051422284532298336
189.179,0.04546700680295004,-0.04546700680295004
189.18,0.030024805899835024,-0.030024805899835024
189.181,0.00885795857818981,-0.00885795857818981
189.18200000000002,0.01284576036323522,0.01284576036323522
189.18300000000002,0.029887356835242632,0.029887356835242632
189.184,0.03848887826084041,0.03848887826084041
189.185,0.03732424958488778,0.03732424958488778
189.186,0.02784121297603613,0.02784121297603613
189.187,0.013774558157677844,0.013774558157677844
189.18800000000002,7.671129860404983e-06,-7.671129860404983e-06
189.18900000000002,0.00898164096335459,-0.00898164096335459
189.19,0.010326249557921401,-0.010326249557921401
189.191,0.003754929851491428,-0.003754929851491428
189.192,0.008427701596838314,0.008427701596838314
189.193,0.02205724820367706,0.02205724820367706
189.19400000000002,0.03240243736009142,0.03240243736009142
189.19500000000002,0.035623362512211376,0.035623362512211376
189.196,0.029951285536022658,0.029951285536022658
189.197,0.016234794324689737,0.016234794324689737
189.198,0.002306302574562632,-0.002306302574562632
189.199,0.021034937913385558,-0.021034937913385558
189.20000000000002,0.03526023766662537,-0.03526023766662537
189.20100000000002,0.04159286038928629,-0.04159286038928629
189.202,0.03888545089931306,-0.03888545089931306
189.203,0.028486653166929204,-0.028486653166929204
189.204,0.013752429396360425,-0.013752429396360425
189.205,0.0010145488805322392,0.0010145488805322392
189.20600000000002,0.011858434534561209,0.011858434534561209
189.20700000000002,0.01629863965585706,0.01629863965585706
189.208,0.013960340703432586,0.013960340703432586
189.209,0.006539396956700876,0.006539396956700876
189.21,0.00285553908229277,-0.00285553908229277
189.211,0.010752270676590549,-0.010752270676590549
189.21200000000002,0.01441510223110107,-0.01441510223110107
189.21300000000002,0.012656189644692471,-0.012656189644692471
189.214,0.0061247655120606455,-0.0061247655120606455
189.215,0.0029860985698366366,0.0029860985698366366
189.216,0.011692727897740791,0.011692727897740791
189.217,0.017176742670061446,0.017176742670061446
189.21800000000002,0.01763897300077515,0.01763897300077515
189.21900000000002,0.012796887974966706,0.012796887974966706
189.22,0.0038971458061373603,0.0038971458061373603
189.221,0.00672736217298872,-0.00672736217298872
189.222,0.016388859607531805,-0.016388859607531805
189.223,0.022821632844026517,-0.022821632844026517
189.22400000000002,0.02476763561326587,-0.02476763561326587
189.22500000000002,0.022213232140395323,-0.022213232140395323
189.226,0.01624156751379139,-0.01624156751379139
189.227,0.008587256280312877,-0.008587256280312877
189.228,0.001063319528089922,-0.001063319528089922
189.229,0.0049487603072603265,0.0049487603072603265
189.23000000000002,0.008797385720069472,0.008797385720069472
189.231,0.010584927675419527,0.010584927675419527
189.232,0.010951591353311975,0.010951591353311975
189.233,0.010727460592713766,0.010727460592713766
189.234,0.010590437085591809,0.010590437085591809
189.235,0.010846812713864373,0.010846812713864373
189.23600000000002,0.011392431502849654,0.011392431502849654
189.237,0.011840251330418272,0.011840251330418272
189.238,0.011741463384952987,0.011741463384952987
189.239,0.010801787167454509,0.010801787167454509
189.24,0.00900812389944412,0.00900812389944412
189.241,0.0066247240536928395,0.0066247240536928395
189.24200000000002,0.00407329856411718,0.00407329856411718
189.243,0.0017563116862224723,0.0017563116862224723
189.244,9.918648117703361e-05,-9.918648117703361e-05
189.245,0.001513429864176233,-0.001513429864176233
189.246,0.002715737036007811,-0.002715737036007811
189.247,0.0040166302231931,-0.0040166302231931
189.24800000000002,0.005646516719399044,-0.005646516719399044
189.249,0.0076291298736439455,-0.0076291298736439455
189.25,0.009742224469233564,-0.009742224469233564
189.251,0.011581795419857389,-0.011581795419857389
189.252,0.01270421740264447,-0.01270421740264447
189.25300000000001,0.012789828156347622,-0.012789828156347622
189.25400000000002,0.01176352973160939,-0.01176352973160939
189.255,0.0098256768827263,-0.0098256768827263
189.256,0.00738249653399362,-0.00738249653399362
189.257,0.004905112511729876,-0.004905112511729876
189.258,0.002774138691333807,-0.002774138691333807
189.25900000000001,0.0011717344432399257,-0.0011717344432399257
189.26000000000002,6.301864416697172e-05,-6.301864416697172e-05
189.261,0.0007283415881314121,0.0007283415881314121
189.262,0.0013850598355941623,0.0013850598355941623
189.263,0.001962482023863393,0.001962482023863393
189.264,0.0023188198025283413,0.0023188198025283413
189.26500000000001,0.0021480216742714646,0.0021480216742714646
189.26600000000002,0.001112572252329568,0.001112572252329568
189.267,0.0009696297160082842,-0.0009696297160082842
189.268,0.003958147877173346,-0.003958147877173346
189.269,0.007317427098204444,-0.007317427098204444
189.27,0.010185318838380962,-0.010185318838380962
189.27100000000002,0.011580627074150559,-0.011580627074150559
189.27200000000002,0.010695334878839476,-0.010695334878839476
189.273,0.007180329072851636,-0.007180329072851636
189.274,0.0013263598181158349,-0.0013263598181158349
189.275,0.00593102702717228,0.00593102702717228
189.276,0.013200388799792788,0.013200388799792788
189.27700000000002,0.01897226987997321,0.01897226987997321
189.27800000000002,0.022010504251758718,0.022010504251758718
189.279,0.021680278193974712,0.021680278193974712
189.28,0.018112860556104445,0.018112860556104445
189.281,0.012156503526269687,0.012156503526269687
189.282,0.005129702593449747,0.005129702593449747
189.28300000000002,0.0015451871759639404,-0.0015451871759639404
189.28400000000002,0.006713617716882301,-0.006713617716882301
189.285,0.009752653927639045,-0.009752653927639045
189.286,0.010652075709195633,-0.010652075709195633
189.287,0.009900275614646709,-0.009900275614646709
189.288,0.008227642592398159,-0.008227642592398159
189.28900000000002,0.006306015772839433,-0.006306015772839433
189.29000000000002,0.0045138578294919565,-0.0045138578294919565
189.291,0.002849459633487322,-0.002849459633487322
189.292,0.0010183999582227183,-0.0010183999582227183
189.293,0.0013437222782629787,0.0013437222782629787
189.294,0.004403670226905731,0.004403670226905731
189.29500000000002,0.007927715724186704,0.007927715724186704
189.29600000000002,0.01123293372303595,0.01123293372303595
189.297,0.013328487043850699,0.013328487043850699
189.298,0.013213888763429897,0.013213888763429897
189.299,0.010240768449203474,0.010240768449203474
189.3,0.004414055795425451,0.004414055795425451
189.30100000000002,0.003480437002659227,-0.003480437002659227
189.30200000000002,0.01198433841788589,-0.01198433841788589
189.303,0.019298439141619585,-0.019298439141619585
189.304,0.02375056947850859,-0.02375056947850859
189.305,0.024262658515885594,-0.024262658515885594
189.306,0.020672681341379756,-0.020672681341379756
189.30700000000002,0.013806236094710832,-0.013806236094710832
189.30800000000002,0.005266743867151285,-0.005266743867151285
189.309,0.003000184576019666,0.003000184576019666
189.31,0.009241293454287109,0.009241293454287109
189.311,0.012369210243973017,0.012369210243973017
189.312,0.012231731024723136,0.012231731024723136
189.31300000000002,0.009595650495001998,0.009595650495001998
189.31400000000002,0.005852284215584549,0.005852284215584549
189.315,0.002538865134825612,0.002538865134825612
189.316,0.0008280741514774778,0.0008280741514774778
189.317,0.0011483330471951253,0.0011483330471951253
189.318,0.0030563702269382673,0.0030563702269382673
189.31900000000002,0.0054035332012499805,0.0054035332012499805
189.32000000000002,0.006743439865917277,0.006743439865917277
189.321,0.005850543273685918,0.005850543273685918
189.322,0.0021819613437138925,0.0021819613437138925
189.323,0.003869326700666999,-0.003869326700666999
189.324,0.011017629710677773,-0.011017629710677773
189.32500000000002,0.017419058892627164,-0.017419058892627164
189.32600000000002,0.021200306736211795,-0.021200306736211795
189.327,0.02102210033037978,-0.02102210033037978
189.328,0.01650469258743122,-0.01650469258743122
189.329,0.008383418634609842,-0.008383418634609842
189.33,0.001655940743002768,0.001655940743002768
189.33100000000002,0.011415057622195844,0.011415057622195844
189.33200000000002,0.018764993492200243,0.018764993492200243
189.333,0.022201073804816486,0.022201073804816486
189.334,0.02121073646525214,0.02121073646525214
189.335,0.016354292237471483,0.016354292237471483
189.336,0.00904761316851582,0.00904761316851582
189.33700000000002,0.0011255006103680872,0.0011255006103680872
189.33800000000002,0.0056733262096001005,-0.0056733262096001005
189.339,0.010142859921295641,-0.010142859921295641
189.34,0.011845345853999599,-0.011845345853999599
189.341,0.01109425498993591,-0.01109425498993591
189.342,0.008717136355535511,-0.008717136355535511
189.34300000000002,0.0056994260729670175,-0.0056994260729670175
189.34400000000002,0.002841446153163557,-0.002841446153163557
189.345,0.0005454520770461253,-0.0005454520770461253
189.346,0.0012054074742964748,0.0012054074742964748
189.347,0.0026886609467760016,0.0026886609467760016
189.348,0.004184046593017205,0.004184046593017205
189.34900000000002,0.005730390665635441,0.005730390665635441
189.35000000000002,0.007005510673695536,0.007005510673695536
189.351,0.007388348956385754,0.007388348956385754
189.352,0.00619072750544129,0.00619072750544129
189.353,0.002976930376508912,0.002976930376508912
189.354,0.0021517667697367204,-0.0021517667697367204
189.35500000000002,0.00842750945304293,-0.00842750945304293
189.356,0.014513370795044389,-0.014513370795044389
189.357,0.018822852393110306,-0.018822852393110306
189.358,0.01997572396874333,-0.01997572396874333
189.359,0.017249004672432452,-0.017249004672432452
189.36,0.010871999226443203,-0.010871999226443203
189.36100000000002,0.002055636698449178,-0.002055636698449178
189.362,0.007272940088889501,0.007272940088889501
189.363,0.014965244468807235,0.014965244468807235
189.364,0.01923368809133215,0.01923368809133215
189.365,0.019146044074262358,0.019146044074262358
189.366,0.014879847512623556,0.014879847512623556
189.36700000000002,0.007657034436540508,0.007657034436540508
189.368,0.0006214781699902496,-0.0006214781699902496
189.369,0.007927538493747905,-0.007927538493747905
189.37,0.012672270528251968,-0.012672270528251968
189.371,0.01411329865225705,-0.01411329865225705
189.372,0.012482414665885077,-0.012482414665885077
189.37300000000002,0.008805724359332807,-0.008805724359332807
189.374,0.004488564843064433,-0.004488564843064433
189.375,0.0008124399387801033,-0.0008124399387801033
189.376,0.001483885380087688,0.001483885380087688
189.377,0.0024001113346070104,0.0024001113346070104
189.37800000000001,0.0025875120924600376,0.0025875120924600376
189.37900000000002,0.0030188536661516496,0.0030188536661516496
189.38,0.0045390611070664656,0.0045390611070664656
189.381,0.007462008050764309,0.007462008050764309
189.382,0.011363049736025367,0.011363049736025367
189.383,0.015149283855539599,0.015149283855539599
189.38400000000001,0.017392925294625043,0.017392925294625043
189.38500000000002,0.016820426505575324,0.016820426505575324
189.386,0.012792672460898102,0.012792672460898102
189.387,0.005609467023624668,0.005609467023624668
189.388,0.003474180300682187,-0.003474180300682187
189.389,0.012539483383557912,-0.012539483383557912
189.39000000000001,0.019521585834184233,-0.019521585834184233
189.39100000000002,0.022796573983146464,-0.022796573983146464
189.392,0.021655684863139704,-0.021655684863139704
189.393,0.01651814147894388,-0.01651814147894388
189.394,0.008815272007136084,-0.008815272007136084
189.395,0.0005809835554660449,-0.0005809835554660449
189.39600000000002,0.006125822749185075,0.006125822749185075
189.39700000000002,0.009791443085709658,0.009791443085709658
189.398,0.009840614758930501,0.009840614758930501
189.399,0.0067417700665763055,0.0067417700665763055
189.4,0.0018044496045874138,0.0018044496045874138
189.401,0.0032568765637685498,-0.0032568765637685498
189.40200000000002,0.006850987587850701,-0.006850987587850701
189.40300000000002,0.007967882727410754,-0.007967882727410754
189.404,0.006434680250994078,-0.006434680250994078
189.405,0.0029067069508687078,-0.0029067069508687078
189.406,0.001384901541308015,0.001384901541308015
189.407,0.0050359932803131805,0.0050359932803131805
189.40800000000002,0.006891582326172283,0.006891582326172283
189.40900000000002,0.006361708858372331,0.006361708858372331
189.41,0.0035486132885255346,0.0035486132885255346
189.411,0.0008326429045897617,-0.0008326429045897617
189.412,0.005694598991780949,-0.005694598991780949
189.413,0.00989098322816524,-0.00989098322816524
189.41400000000002,0.012505401632586127,-0.012505401632586127
189.41500000000002,0.013038559223652227,-0.013038559223652227
189.416,0.011459751059336123,-0.011459751059336123
189.417,0.008134900953996216,-0.008134900953996216
189.418,0.003678181311493416,-0.003678181311493416
189.419,0.0012127595368313353,0.0012127595368313353
189.42000000000002,0.005887781857064356,0.005887781857064356
189.42100000000002,0.00981670907406634,0.00981670907406634
189.422,0.012607511816545715,0.012607511816545715
189.423,0.013995204194277898,0.013995204194277898
189.424,0.013831702463412029,0.013831702463412029
189.425,0.012096534105179427,0.012096534105179427
189.42600000000002,0.008928602160036716,0.008928602160036716
189.42700000000002,0.004659993597755732,0.004659993597755732
189.428,0.00017684529276083843,-0.00017684529276083843
189.429,0.004892668833429274,-0.004892668833429274
189.43,0.008742499758631816,-0.008742499758631816
189.431,0.011067815090713447,-0.011067815090713447
189.43200000000002,0.01144394456402533,-0.01144394456402533
189.43300000000002,0.009789111429418233,-0.009789111429418233
189.434,0.00639939944680277,-0.00639939944680277
189.435,0.0018949958871514693,-0.0018949958871514693
189.436,0.002910036237553255,0.002910036237553255
189.437,0.007179053942935387,0.007179053942935387
189.43800000000002,0.010218547712055012,0.010218547712055012
189.43900000000002,0.011595936435099008,0.011595936435099008
189.44,0.011184878728498953,0.011184878728498953
189.441,0.009137837904625946,0.009137837904625946
189.442,0.0058074773862587265,0.0058074773862587265
189.443,0.0016502401241951434,0.0016502401241951434
189.44400000000002,0.002856199510513959,-0.002856199510513959
189.44500000000002,0.007263071944661601,-0.007263071944661601
189.446,0.011168020990410598,-0.011168020990410598
189.447,0.014215263501934831,-0.014215263501934831
189.448,0.016099902078881994,-0.016099902078881994
189.449,0.016592531883184748,-0.016592531883184748
189.45000000000002,0.015586028406843063,-0.015586028406843063
189.45100000000002,0.013149803762932101,-0.013149803762932101
189.452,0.009565578357611838,-0.009565578357611838
189.453,0.005318508306994266,-0.005318508306994266
189.454,0.0010295819551962796,-0.0010295819551962796
189.455,0.0026642980099020976,0.0026642980099020976
189.45600000000002,0.005254785759638872,0.005254785759638872
189.45700000000002,0.006489628008314219,0.006489628008314219
189.458,0.006441704981155861,0.006441704981155861
189.459,0.005492789782311903,0.005492789782311903
189.46,0.004230546676585528,0.004230546676585528
189.461,0.0032847612690114192,0.0032847612690114192
189.46200000000002,0.003148981003323805,0.003148981003323805
189.46300000000002,0.0040395312248648575,0.0040395312248648575
189.464,0.005833077854761017,0.005833077854761017
189.465,0.008100072600230098,0.008100072600230098
189.466,0.010222516443745023,0.010222516443745023
189.467,0.011560050935725616,0.011560050935725616
189.46800000000002,0.011616157714840557,0.011616157714840557
189.46900000000002,0.010159487237289464,0.010159487237289464
189.47,0.007271927364602974,0.007271927364602974
189.471,0.003318490127299518,0.003318490127299518
189.472,0.0011438134596453353,-0.0011438134596453353
189.473,0.005487190378755663,-0.005487190378755663
189.47400000000002,0.009131322727426141,-0.009131322727426141
189.47500000000002,0.011633842076328208,-0.011633842076328208
189.476,0.012741939811870016,-0.012741939811870016
189.477,0.012407125614109985,-0.012407125614109985
189.478,0.010772742853198935,-0.010772742853198935
189.479,0.008144304617367431,-0.008144304617367431
189.48000000000002,0.004947986781075256,-0.004947986781075256
189.481,0.0016770586393194,-0.0016770586393194
189.482,0.001175867161721055,0.001175867161721055
189.483,0.003198815414172668,0.003198815414172668
189.484,0.004141857659700617,0.004141857659700617
189.485,0.003979885837231599,0.003979885837231599
189.48600000000002,0.0029327137604474546,0.0029327137604474546
189.487,0.0014241232099401595,0.0014241232099401595
189.488,2.2645436506463388e-05,-2.2645436506463388e-05
189.489,0.0009334363941939875,-0.0009334363941939875
189.49,0.0010358543502102383,-0.0010358543502102383
189.491,0.00036615230968833386,-0.00036615230968833386
189.49200000000002,0.000713120002590311,0.000713120002590311
189.493,0.0016045787780642519,0.0016045787780642519
189.494,0.0016617029082169796,0.0016617029082169796
189.495,0.00041905140878989065,0.00041905140878989065
189.496,0.0022050107625336854,-0.0022050107625336854
189.497,0.005805253212658758,-0.005805253212658758
189.49800000000002,0.009533705718761828,-0.009533705718761828
189.499,0.012294920245332915,-0.012294920245332915
189.5,0.013046990462374435,-0.013046990462374435
189.501,0.01112415419412137,-0.01112415419412137
189.502,0.0064824629377641775,-0.0064824629377641775
189.50300000000001,0.00021337986116108215,0.00021337986116108215
189.50400000000002,0.007699946225230117,0.007699946225230117
189.505,0.014401406257041772,0.014401406257041772
189.506,0.018817579508402453,0.018817579508402453
189.507,0.019906390771056902,0.019906390771056902
189.508,0.017353288098065592,0.017353288098065592
189.50900000000001,0.011652953217391923,0.011652953217391923
189.51000000000002,0.003983849269713777,0.003983849269713777
189.511,0.00408395579906798,-0.00408395579906798
189.512,0.010961729899911439,-0.010961729899911439
189.513,0.015392537729862717,-0.015392537729862717
189.514,0.016690995595104077,-0.016690995595104077
189.51500000000001,0.014824535280666754,-0.014824535280666754
189.51600000000002,0.010339181429603689,-0.010339181429603689
189.517,0.004176305457055241,-0.004176305457055241
189.518,0.002550938087923266,0.002550938087923266
189.519,0.008757006957630993,0.008757006957630993
189.52,0.013520487014075886,0.013520487014075886
189.52100000000002,0.016153619259941254,0.016153619259941254
189.52200000000002,0.016228893843093263,0.016228893843093263
189.523,0.01359687055546053,0.01359687055546053
189.524,0.008418131035517602,0.008418131035517602
189.525,0.001206024844045838,0.001206024844045838
189.526,0.0071509147310278845,-0.0071509147310278845
189.52700000000002,0.015432400654447634,-0.015432400654447634
189.52800000000002,0.0222321872547575,-0.0222321872547575
189.529,0.026210060368395353,-0.026210060368395353
189.53,0.026407900218788756,-0.026407900218788756
189.531,0.022546361172927142,-0.022546361172927142
189.532,0.01520072789939461,-0.01520072789939461
189.53300000000002,0.005771901861281456,-0.005771901861281456
189.53400000000002,0.0037790374398538377,0.0037790374398538377
189.535,0.011390611517483796,0.011390611517483796
189.536,0.015442026548394331,0.015442026548394331
189.537,0.015220130770743944,0.015220130770743944
189.538,0.011161525705161282,0.011161525705161282
189.53900000000002,0.004774695685428115,0.004774695685428115
189.54000000000002,0.001760255339093236,-0.001760255339093236
189.541,0.006214683966913065,-0.006214683966913065
189.542,0.006979864860811582,-0.006979864860811582
189.543,0.0035773597428034654,-0.0035773597428034654
189.544,0.0031542330209543986,0.0031542330209543986
189.54500000000002,0.011268357775830342,0.011268357775830342
189.54600000000002,0.018266442883088287,0.018266442883088287
189.547,0.02184086847994815,0.02184086847994815
189.548,0.020581027151539196,0.020581027151539196
189.549,0.014423705770310052,0.014423705770310052
189.55,0.004703942755649145,0.004703942755649145
189.55100000000002,0.00621515059105303,-0.00621515059105303
189.55200000000002,0.015623810117869546,-0.015623810117869546
189.553,0.021250380331046804,-0.021250380331046804
189.554,0.021908646824963882,-0.021908646824963882
189.555,0.017810478783751228,-0.017810478783751228
189.556,0.010452719589337035,-0.010452719589337035
189.55700000000002,0.0021219090122864687,-0.0021219090122864687
189.55800000000002,0.004820101663825947,0.004820101663825947
189.559,0.008640872725540849,0.008640872725540849
189.56,0.008712548739460453,0.008712548739460453
189.561,0.00561723008936503,0.00561723008936503
189.562,0.0008655844317381566,0.0008655844317381566
189.56300000000002,0.003662534862705167,-0.003662534862705167
189.56400000000002,0.006360025321311826,-0.006360025321311826
189.565,0.0064018732878484115,-0.0064018732878484115
189.566,0.0039590975480330555,-0.0039590975480330555
189.567,5.982803889998888e-05,-5.982803889998888e-05
189.568,0.0038382510818604438,0.0038382510818604438
189.56900000000002,0.00640328426050191,0.00640328426050191
189.57000000000002,0.006912472067750015,0.006912472067750015
189.571,0.005493657226572657,0.005493657226572657
189.572,0.0030442721105967845,0.0030442721105967845
189.573,0.0008618209160153131,0.0008618209160153131
189.574,0.00012189625059610489,0.00012189625059610489
189.57500000000002,0.0013932478778547665,0.0013932478778547665
189.57600000000002,0.004366611553018676,0.004366611553018676
189.577,0.007899760644344497,0.007899760644344497
189.578,0.010371446381340953,0.010371446381340953
189.579,0.01022936302085878,0.01022936302085878
189.58,0.006548750424931611,0.006548750424931611
189.58100000000002,0.0005881009944074063,-0.0005881009944074063
189.58200000000002,0.010023460558614914,-0.010023460558614914
189.583,0.019796894675151798,-0.019796894675151798
189.584,0.027677325043360963,-0.027677325043360963
189.585,0.03178831420961625,-0.03178831420961625
189.586,0.031131336697402732,-0.031131336697402732
189.58700000000002,0.0258465694596175,-0.0258465694596175
189.58800000000002,0.01713682572957905,-0.01713682572957905
189.589,0.0068883358927717435,-0.0068883358927717435
189.59,0.0028837161684169164,0.0028837161684169164
189.591,0.010586955681728386,0.010586955681728386
189.592,0.015431878988291467,0.015431878988291467
189.59300000000002,0.017534053512021367,0.017534053512021367
189.59400000000002,0.01772640023710982,0.01772640023710982
189.595,0.01716287395780068,0.01716287395780068
189.596,0.01685709839648459,0.01685709839648459
189.597,0.017311857470396853,0.017311857470396853
189.598,0.018356350876739078,0.018356350876739078
189.59900000000002,0.01923332807979282,0.01923332807979282
189.60000000000002,0.018894105618080345,0.018894105618080345
189.601,0.016394084361067422,0.016394084361067422
189.602,0.01125487831793481,0.01125487831793481
189.603,0.0036775875500240527,0.0036775875500240527
189.604,0.005454094282481369,-0.005454094282481369
189.60500000000002,0.014772659363521365,-0.014772659363521365
189.606,0.022757960476180186,-0.022757960476180186
189.607,0.028097464534330277,-0.028097464534330277
189.608,0.029974013898886778,-0.029974013898886778
189.609,0.028212351930308015,-0.028212351930308015
189.61,0.023265140875432147,-0.023265140875432147
189.61100000000002,0.016066923651515307,-0.016066923651515307
189.612,0.007814994752533052,-0.007814994752533052
189.613,0.0002578646483164547,0.0002578646483164547
189.614,0.007069778596510896,0.007069778596510896
189.615,0.01181379432403789,0.01181379432403789
189.616,0.014023850051229154,0.014023850051229154
189.61700000000002,0.013600685433977808,0.013600685433977808
189.618,0.010813611978231129,0.010813611978231129
189.619,0.006280546401409127,0.006280546401409127
189.62,0.0009135730733716001,0.0009135730733716001
189.621,0.0041888432136345,-0.0041888432136345
189.622,0.007912665210960762,-0.007912665210960762
189.62300000000002,0.009348385691899814,-0.009348385691899814
189.624,0.008017870356185758,-0.008017870356185758
189.625,0.004044218239759462,-0.004044218239759462
189.626,0.0018005656506606266,0.0018005656506606266
189.627,0.008211525592973312,0.008211525592973312
189.62800000000001,0.013626872583652498,0.013626872583652498
189.62900000000002,0.016608077307188693,0.016608077307188693
189.63,0.016225573381179012,0.016225573381179012
189.631,0.012336901275536471,0.012336901275536471
189.632,0.005665434940224372,0.005665434940224372
189.633,0.0023581537018256098,-0.0023581537018256098
189.63400000000001,0.00995825085194642,-0.00995825085194642
189.63500000000002,0.015481334543630886,-0.015481334543630886
189.636,0.017831092132572085,-0.017831092132572085
189.637,0.016740237518652272,-0.016740237518652272
189.638,0.012796063234311409,-0.012796063234311409
189.639,0.007214084895294988,-0.007214084895294988
189.64000000000001,0.0014354152667725116,-0.0014354152667725116
189.64100000000002,0.0033186614420033594,0.0033186614420033594
189.642,0.006387486820189506,0.006387486820189506
189.643,0.007795736016284165,0.007795736016284165
189.644,0.008125453089589065,0.008125453089589065
189.645,0.008187720223930283,0.008187720223930283
189.64600000000002,0.008618537302396112,0.008618537302396112
189.64700000000002,0.009553249689973734,0.009553249689973734
189.648,0.010509178117270774,0.010509178117270774
189.649,0.010533687124867647,0.010533687124867647
189.65,0.0085785130362248,0.0085785130362248
189.651,0.0039739091490608135,0.0039739091490608135
189.65200000000002,0.0031705488496306094,-0.0031705488496306094
189.65300000000002,0.011799167535212055,-0.011799167535212055
189.654,0.020067431851696786,-0.020067431851696786
189.655,0.025806105111784144,-0.025806105111784144
189.656,0.027165781634353348,-0.027165781634353348
189.657,0.02324220846902879,-0.02324220846902879
189.65800000000002,0.01447219907618643,-0.01447219907618643
189.65900000000002,0.002649459689999981,-0.002649459689999981
189.66,0.009476911692694191,0.009476911692694191
189.661,0.018925924776805065,0.018925924776805065
189.662,0.023325861823217598,0.023325861823217598
189.663,0.02162004515733331,0.02162004515733331
189.66400000000002,0.014414093685112674,0.014414093685112674
189.66500000000002,0.0038436407193780373,0.0038436407193780373
189.666,0.007014401687547268,-0.007014401687547268
189.667,0.015022354051335191,-0.015022354051335191
189.668,0.017895238388894823,-0.017895238388894823
189.669,0.014872544633844373,-0.014872544633844373
189.67000000000002,0.006942669923786543,-0.006942669923786543
189.67100000000002,0.0034518785886919687,0.0034518785886919687
189.672,0.013142937189889011,0.013142937189889011
189.673,0.019180782510421532,0.019180782510421532
189.674,0.019709812937345333,0.019709812937345333
189.675,0.014512799297589541,0.014512799297589541
189.67600000000002,0.005062304273422696,0.005062304273422696
189.67700000000002,0.005931626921412951,-0.005931626921412951
189.678,0.015335808125016137,-0.015335808125016137
189.679,0.020521013771963095,-0.020521013771963095
189.68,0.020122625580991153,-0.020122625580991153
189.681,0.014411338726763104,-0.014411338726763104
189.68200000000002,0.0051731137581793865,-0.0051731137581793865
189.68300000000002,0.004852014093031113,0.004852014093031113
189.684,0.012791451685025363,0.012791451685025363
189.685,0.01646894588122747,0.01646894588122747
189.686,0.014995264569695651,0.014995264569695651
189.687,0.008956933305389263,0.008956933305389263
189.68800000000002,0.00016768103968162087,0.00016768103968162087
189.68900000000002,0.008919393957399787,-0.008919393957399787
189.69,0.01594409395718638,-0.01594409395718638
189.691,0.019289032187366943,-0.019289032187366943
189.692,0.018460052554299812,-0.018460052554299812
189.693,0.014105149772004399,-0.014105149772004399
189.69400000000002,0.00769753054181376,-0.00769753054181376
189.69500000000002,0.001010197872462687,-0.001010197872462687
189.696,0.004436073376568711,0.004436073376568711
189.697,0.007776754111365358,0.007776754111365358
189.698,0.008947683794890703,0.008947683794890703
189.699,0.008551658727143115,0.008551658727143115
189.70000000000002,0.00752268915551296,0.00752268915551296
189.70100000000002,0.006723959683227436,0.006723959683227436
189.702,0.006626087587720074,0.006626087587720074
189.703,0.007172138503028102,0.007172138503028102
189.704,0.007861733168920831,0.007861733168920831
189.705,0.008005870309686499,0.008005870309686499
189.70600000000002,0.007045134898413596,0.007045134898413596
189.70700000000002,0.004806313699106099,0.004806313699106099
189.708,0.0016005162394956435,0.0016005162394956435
189.709,0.0018719925675038085,-0.0018719925675038085
189.71,0.004772116455498728,-0.004772116455498728
189.711,0.0064318661744490555,-0.0064318661744490555
189.71200000000002,0.006606680368506403,-0.006606680368506403
189.71300000000002,0.005574113508034106,-0.005574113508034106
189.714,0.004038921692722583,-0.004038921692722583
189.715,0.002875198156015836,-0.002875198156015836
189.716,0.002796208503168874,-0.002796208503168874
189.717,0.004070642782625744,-0.004070642782625744
189.71800000000002,0.006390089289687877,-0.006390089289687877
189.71900000000002,0.00894126271620516,-0.00894126271620516
189.72,0.010665505105131128,-0.010665505105131128
189.721,0.01062182744341849,-0.01062182744341849
189.722,0.008331241130534232,-0.008331241130534232
189.723,0.0039829227989170105,-0.0039829227989170105
189.72400000000002,0.0015735672030049786,0.0015735672030049786
189.72500000000002,0.007055537211817827,0.007055537211817827
189.726,0.01112594554207964,0.01112594554207964
189.727,0.01280368587304701,0.01280368587304701
189.728,0.01177226047725052,0.01177226047725052
189.729,0.008484385225802622,0.008484385225802622
189.73000000000002,0.004024813940213817,0.004024813940213817
189.731,0.00022841723583971526,-0.00022841723583971526
189.732,0.0030383444125721415,-0.0030383444125721415
189.733,0.0037008378891911727,-0.0037008378891911727
189.734,0.002267564444746854,-0.002267564444746854
189.735,0.0004734654427696479,0.0004734654427696479
189.73600000000002,0.0032567849382947305,0.0032567849382947305
189.737,0.004758472523428679,0.004758472523428679
189.738,0.004044036912433322,0.004044036912433322
189.739,0.0009029187338321684,0.0009029187338321684
189.74,0.004039213728526027,-0.004039213728526027
189.741,0.00947154304905923,-0.00947154304905923
189.74200000000002,0.013772693315879218,-0.013772693315879218
189.743,0.015499435126759968,-0.015499435126759968
189.744,0.013843304061348687,-0.013843304061348687
189.745,0.008916038432868287,-0.008916038432868287
189.746,0.0017736207100048054,-0.0017736207100048054
189.747,0.005835267683198707,0.005835267683198707
189.74800000000002,0.011929956027930774,0.011929956027930774
189.749,0.014839717027204885,0.014839717027204885
189.75,0.013674371329367408,0.013674371329367408
189.751,0.008590173082136178,0.008590173082136178
189.752,0.0007746552990368754,0.0007746552990368754
189.75300000000001,0.007847529721605519,-0.007847529721605519
189.75400000000002,0.01510848326773288,-0.01510848326773288
189.755,0.019156856375579498,-0.019156856375579498
189.756,0.01893287710139509,-0.01893287710139509
189.757,0.014432644948120864,-0.014432644948120864
189.758,0.006694479378524954,-0.006694479378524954
189.75900000000001,0.0024839429694458984,0.0024839429694458984
189.76000000000002,0.011016932586321066,0.011016932586321066
189.761,0.017061383859243134,0.017061383859243134
189.762,0.01946502319988197,0.01946502319988197
189.763,0.018016921105860836,0.018016921105860836
189.764,0.013441565923441874,0.013441565923441874
189.76500000000001,0.00714874647549835,0.00714874647549835
189.76600000000002,0.0008170114883823038,0.0008170114883823038
189.767,0.004069172703775345,-0.004069172703775345
189.768,0.006600253331595588,-0.006600253331595588
189.769,0.0066394568154177595,-0.0066394568154177595
189.77,0.00479122309634276,-0.00479122309634276
189.77100000000002,0.0021596148977472765,-0.0021596148977472765
189.77200000000002,2.5255132799236432e-05,2.5255132799236432e-05
189.773,0.0007996249642792609,0.0007996249642792609
189.774,0.0002379811576001121,-0.0002379811576001121
189.775,0.0028117142620857384,-0.0028117142620857384
189.776,0.00606416177631815,-0.00606416177631815
189.77700000000002,0.00883058551279147,-0.00883058551279147
189.77800000000002,0.010007421473021427,-0.010007421473021427
189.779,0.008904165463039272,-0.008904165463039272
189.78,0.005473818916645253,-0.005473818916645253
189.781,0.0003537429307610388,-0.0003537429307610388
189.782,0.0052949556316276465,0.0052949556316276465
189.78300000000002,0.010102199606854833,0.010102199606854833
189.78400000000002,0.012865912330776769,0.012865912330776769
189.785,0.012882076167715186,0.012882076167715186
189.786,0.010133863340702678,0.010133863340702678
189.787,0.00528822409926532,0.00528822409926532
189.788,0.0004949864574512043,-0.0004949864574512043
189.78900000000002,0.005882367093620488,-0.005882367093620488
189.79000000000002,0.009720701707611988,-0.009720701707611988
189.791,0.011324544797538713,-0.011324544797538713
189.792,0.010620512906142613,-0.010620512906142613
189.793,0.008116245034408512,-0.008116245034408512
189.794,0.004714417749541118,-0.004714417749541118
189.79500000000002,0.0014357529487342047,-0.0014357529487342047
189.79600000000002,0.0008631902314081639,0.0008631902314081639
189.797,0.0016970352523577772,0.0016970352523577772
189.798,0.001032389642870298,0.001032389642870298
189.799,0.000765932001923899,-0.000765932001923899
189.8,0.0030900490978103354,-0.0030900490978103354
189.80100000000002,0.005285081858924547,-0.005285081858924547
189.80200000000002,0.006820633927214717,-0.006820633927214717
189.803,0.007389243389233188,-0.007389243389233188
189.804,0.006915047534638584,-0.006915047534638584
189.805,0.005490109385618179,-0.005490109385618179
189.806,0.0032801991885840058,-0.0032801991885840058
189.80700000000002,0.00044803853056444226,-0.00044803853056444226
189.80800000000002,0.0028712713705711756,0.0028712713705711756
189.809,0.006534847896482603,0.006534847896482603
189.81,0.010318610425371145,0.010318610425371145
189.811,0.013848565772342687,0.013848565772342687
189.812,0.016582827864101972,0.016582827864101972
189.81300000000002,0.01787429372745391,0.01787429372745391
189.81400000000002,0.017113654113436735,0.017113654113436735
189.815,0.013918804373801203,0.013918804373801203
189.816,0.008312197508712269,0.008312197508712269
189.817,0.0008219631522845036,0.0008219631522845036
189.818,0.0075408546918121,-0.0075408546918121
189.81900000000002,0.015442032755588173,-0.015442032755588173
189.82000000000002,0.021492010856177173,-0.021492010856177173
189.821,0.024557161731280707,-0.024557161731280707
189.822,0.024032079127340577,-0.024032079127340577
189.823,0.019997151980517377,-0.019997151980517377
189.824,0.0132153308329042,-0.0132153308329042
189.82500000000002,0.004965817883937729,-0.004965817883937729
189.82600000000002,0.003242824523606355,0.003242824523606355
189.827,0.01000538736313599,0.01000538736313599
189.828,0.01431337838895611,0.01431337838895611
189.829,0.015737729661330722,0.015737729661330722
189.83,0.014462658568807135,0.014462658568807135
189.83100000000002,0.011174254698431281,0.011174254698431281
189.83200000000002,0.006845174561672645,0.006845174561672645
189.833,0.0024801007350685376,0.0024801007350685376
189.834,0.0011100739518229371,-0.0011100739518229371
189.835,0.003453058441787118,-0.003453058441787118
189.836,0.004454823416394987,-0.004454823416394987
189.83700000000002,0.004341008627707123,-0.004341008627707123
189.83800000000002,0.0035316849473564127,-0.0035316849473564127
189.839,0.0024932995015836874,-0.0024932995015836874
189.84,0.0016098361964435213,-0.0016098361964435213
189.841,0.0011023186497148333,-0.0011023186497148333
189.842,0.0010075083344120443,-0.0010075083344120443
189.84300000000002,0.0012092767064342952,-0.0012092767064342952
189.84400000000002,0.0015043442352195755,-0.0015043442352195755
189.845,0.0016797868642401867,-0.0016797868642401867
189.846,0.0015820324372049096,-0.0015820324372049096
189.847,0.0011633448508210984,-0.0011633448508210984
189.848,0.0004990287369745484,-0.0004990287369745484
189.84900000000002,0.00022530422837485772,0.00022530422837485772
189.85000000000002,0.0007527200491929971,0.0007527200491929971
189.851,0.000813385357833335,0.000813385357833335
189.852,0.00019283031009078658,0.00019283031009078658
189.853,0.0012023094387624417,-0.0012023094387624417
189.854,0.003295453599701767,-0.003295453599701767
189.85500000000002,0.005822273742067916,-0.005822273742067916
189.856,0.008354036425009667,-0.008354036425009667
189.857,0.010363975239136666,-0.010363975239136666
189.858,0.011327479155153024,-0.011327479155153024
189.859,0.010835985383165485,-0.010835985383165485
189.86,0.008697625332258135,-0.008697625332258135
189.86100000000002,0.004998069333140509,-0.004998069333140509
189.862,0.00010367558140395312,-0.00010367558140395312
189.863,0.005395937325088043,0.005395937325088043
189.864,0.0107919190244368,0.0107919190244368
189.865,0.015379813071768982,0.015379813071768982
189.866,0.018571310432414837,0.018571310432414837
189.86700000000002,0.019968627934187227,0.019968627934187227
189.868,0.019390429999753933,0.019390429999753933
189.869,0.01685574581985343,0.01685574581985343
189.87,0.01254614844031619,0.01254614844031619
189.871,0.006770874259501067,0.006770874259501067
189.872,4.755868276001748e-05,-4.755868276001748e-05
189.87300000000002,0.007365731836933803,-0.007365731836933803
189.874,0.014506523317954522,-0.014506523317954522
189.875,0.020670140380967476,-0.020670140380967476
189.876,0.024997328013752346,-0.024997328013752346
189.877,0.02669739788220029,-0.02669739788220029
189.87800000000001,0.02522697907205776,-0.02522697907205776
189.87900000000002,0.020476881702478862,-0.020476881702478862
189.88,0.012905762302726918,-0.012905762302726918
189.881,0.00355998356593853,-0.00355998356593853
189.882,0.006057229860340297,0.006057229860340297
189.883,0.014262120750615863,0.014262120750615863
189.88400000000001,0.01955861797323527,0.01955861797323527
189.88500000000002,0.021006374828704627,0.021006374828704627
189.886,0.01848276687174092,0.01848276687174092
189.887,0.012751821986277155,0.012751821986277155
189.888,0.005302075887812787,0.005302075887812787
189.889,0.0020184370043897907,-0.0020184370043897907
189.89000000000001,0.007478462177709206,-0.007478462177709206
189.89100000000002,0.00991973264163771,-0.00991973264163771
189.892,0.009060250437577341,-0.009060250437577341
189.893,0.005551524482427731,-0.005551524482427731
189.894,0.0007673382180254512,-0.0007673382180254512
189.895,0.0036176936511027424,0.0036176936511027424
189.89600000000002,0.006136064004143759,0.006136064004143759
189.89700000000002,0.00596922637390052,0.00596922637390052
189.898,0.003188816839627505,0.003188816839627505
189.899,0.0012768716627633587,-0.0012768716627633587
189.9,0.005940758314200679,-0.005940758314200679
189.901,0.009226632157872538,-0.009226632157872538
189.90200000000002,0.009964418096842361,-0.009964418096842361
189.90300000000002,0.007757075382352975,-0.007757075382352975
189.904,0.0031058897219962546,-0.0031058897219962546
189.905,0.0027427297918664892,0.0027427297918664892
189.906,0.00817829249934808,0.00817829249934808
189.907,0.01171369827792289,0.01171369827792289
189.90800000000002,0.012426212524943952,0.012426212524943952
189.90900000000002,0.010216340797969717,0.010216340797969717
189.91,0.005808918872485946,0.005808918872485946
189.911,0.0005033503000044933,0.0005033503000044933
189.912,0.004241636284016326,-0.004241636284016326
189.913,0.007254049872394208,-0.007254049872394208
189.91400000000002,0.007985704083391302,-0.007985704083391302
189.91500000000002,0.006639786517500391,-0.006639786517500391
189.916,0.004058182787591986,-0.004058182787591986
189.917,0.001414606118898374,-0.001414606118898374
189.918,0.0001814007755136898,0.0001814007755136898
189.919,4.140021324560406e-05,4.140021324560406e-05
189.92000000000002,0.001893748526177781,-0.001893748526177781
189.92100000000002,0.005051931700121853,-0.005051931700121853
189.922,0.008424119976975291,-0.008424119976975291
189.923,0.01088474419469603,-0.01088474419469603
189.924,0.011533382145237839,-0.011533382145237839
189.925,0.00995363321581988,-0.00995363321581988
189.92600000000002,0.006317988851830608,-0.006317988851830608
189.92700000000002,0.0013197795316001266,-0.0013197795316001266
189.928,0.004033319139069763,0.004033319139069763
189.929,0.008692221032616826,0.008692221032616826
189.93,0.01182244027700825,0.01182244027700825
189.931,0.01297530069876788,0.01297530069876788
189.93200000000002,0.01214060510149991,0.01214060510149991
189.93300000000002,0.009686392972220112,0.009686392972220112
189.934,0.00622251883644448,0.00622251883644448
189.935,0.002438749496016916,0.002438749496016916
189.936,0.0010367655668397622,-0.0010367655668397622
189.937,0.0037312040926524887,-0.0037312040926524887
189.93800000000002,0.005368125278104899,-0.005368125278104899
189.93900000000002,0.005868437404762068,-0.005868437404762068
189.94,0.005330276680030185,-0.005330276680030185
189.941,0.004002021802306126,-0.004002021802306126
189.942,0.002251517703636343,-0.002251517703636343
189.943,0.0005243771426920118,-0.0005243771426920118
189.94400000000002,0.0007186692912537284,0.0007186692912537284
189.94500000000002,0.0010885139331014212,0.0010885139331014212
189.946,0.00036753189182844767,0.00036753189182844767
189.947,0.0014031639064478409,-0.0014031639064478409
189.948,0.0038824104977042617,-0.0038824104977042617
189.949,0.006461890642581078,-0.006461890642581078
189.95000000000002,0.008383067812449881,-0.008383067812449881
189.95100000000002,0.00892114973945567,-0.00892114973945567
189.952,0.007592894488507655,-0.007592894488507655
189.953,0.0043295148169215925,-0.0043295148169215925
189.954,0.00044195352209367507,0.00044195352209367507
189.955,0.005844393854714122,0.005844393854714122
189.95600000000002,0.010724356531828806,0.010724356531828806
189.95700000000002,0.013916804480388746,0.013916804480388746
189.958,0.014534749178728283,0.014534749178728283
189.959,0.01220695591796679,0.01220695591796679
189.96,0.007198415845679436,0.007198415845679436
189.961,0.0003788335383256846,0.0003788335383256846
189.96200000000002,0.0069551878022631125,-0.0069551878022631125
189.96300000000002,0.013360284795171071,-0.013360284795171071
189.964,0.017559600733110588,-0.017559600733110588
189.965,0.018714304871527556,-0.018714304871527556
189.966,0.016592576454182346,-0.016592576454182346
189.967,0.011603570415802096,-0.011603570415802096
189.96800000000002,0.004697362939666046,-0.004697362939666046
189.96900000000002,0.002838787830968706,0.002838787830968706
189.97,0.009639034107910097,0.009639034107910097
189.971,0.014518357661735364,0.014518357661735364
189.972,0.016685224794989635,0.016685224794989635
189.973,0.01587367581945184,0.01587367581945184
189.97400000000002,0.012377470273110296,0.012377470273110296
189.97500000000002,0.006984593643963774,0.006984593643963774
189.976,0.0008240810702049479,0.0008240810702049479
189.977,0.004851023791476677,-0.004851023791476677
189.978,0.008910243002899361,-0.008910243002899361
189.979,0.010579013735180495,-0.010579013735180495
189.98000000000002,0.009612185481704522,-0.009612185481704522
189.981,0.006365233811587435,-0.006365233811587435
189.982,0.0017358046226191425,-0.0017358046226191425
189.983,0.003025925726659195,0.003025925726659195
189.984,0.006607090477367036,0.006607090477367036
189.985,0.00796023451980808,0.00796023451980808
189.98600000000002,0.0065884200652144035,0.0065884200652144035
189.987,0.0027069999821884693,0.0027069999821884693
189.988,0.00277356100025377,-0.00277356100025377
189.989,0.008454758017983587,-0.008454758017983587
189.99,0.012804468095311184,-0.012804468095311184
189.991,0.014569605521673376,-0.014569605521673376
189.99200000000002,0.013133681049149516,-0.013133681049149516
189.993,0.008713948364973188,-0.008713948364973188
189.994,0.002333382547200952,-0.002333382547200952
189.995,0.0044343883567050674,0.0044343883567050674
189.996,0.009882125296505872,0.009882125296505872
189.997,0.012632638582705797,0.012632638582705797
189.99800000000002,0.012016620887694894,0.012016620887694894
189.999,0.008254907663331422,0.008254907663331422
190.0,0.0023919645767835306,0.0023919645767835306
190.001,0.003999204166067141,-0.003999204166067141
190.002,0.009253054587744686,-0.009253054587744686
190.00300000000001,0.012060338463672165,-0.012060338463672165
190.00400000000002,0.01180095235623646,-0.01180095235623646
190.005,0.008670626021998671,-0.008670626021998671
190.006,0.0035763427020031563,-0.0035763427020031563
190.007,0.002154483825967678,0.002154483825967678
190.008,0.007153367653672833,0.007153367653672833
190.00900000000001,0.010361827949072835,0.010361827949072835
190.01000000000002,0.011256280918634157,0.011256280918634157
190.011,0.00989735532316082,0.00989735532316082
190.012,0.006814348256645831,0.006814348256645831
190.013,0.0027862074479662233,0.0027862074479662233
190.014,0.0013949421236627343,-0.0013949421236627343
190.01500000000001,0.005099587033637599,-0.005099587033637599
190.01600000000002,0.007932608314371288,-0.007932608314371288
190.017,0.009704397045981566,-0.009704397045981566
190.018,0.010344447835955187,-0.010344447835955187
190.019,0.009818378010970208,-0.009818378010970208
190.02,0.008099183771485025,-0.008099183771485025
190.02100000000002,0.005210845759721544,-0.005210845759721544
190.02200000000002,0.0013215740288671815,-0.0013215740288671815
190.023,0.0031672039481510025,0.0031672039481510025
190.024,0.007597532351662229,0.007597532351662229
190.025,0.011137960796894867,0.011137960796894867
190.026,0.012971467095234425,0.012971467095234425
190.02700000000002,0.012539401701664158,0.012539401701664158
190.02800000000002,0.009759154536885624,0.009759154536885624
190.029,0.005128801638216074,0.005128801638216074
190.03,0.00033880919434056586,-0.00033880919434056586
190.031,0.005355306891797476,-0.005355306891797476
190.032,0.008710271945567238,-0.008710271945567238
190.03300000000002,0.009633276158511552,-0.009633276158511552
190.03400000000002,0.008045861099018354,-0.008045861099018354
190.035,0.004612560939515662,-0.004612560939515662
190.036,0.0005612970069317607,-0.0005612970069317607
190.037,0.002681394500960729,0.002681394500960729
190.038,0.003931233780846902,0.003931233780846902
190.03900000000002,0.0026244772370572255,0.0026244772370572255
190.04000000000002,0.0009893083612212874,-0.0009893083612212874
190.041,0.005905692135257642,-0.005905692135257642
190.042,0.01066050291214416,-0.01066050291214416
190.043,0.013770422915885877,-0.013770422915885877
190.044,0.01418058325401771,-0.01418058325401771
190.04500000000002,0.011578854354414105,-0.011578854354414105
190.04600000000002,0.0064807152391325815,-0.0064807152391325815
190.047,6.374210797486291e-05,-6.374210797486291e-05
190.048,0.006188641913897579,0.006188641913897579
190.049,0.010915578552258194,0.010915578552258194
190.05,0.013242807077806834,0.013242807077806834
190.05100000000002,0.012973685765487915,0.012973685765487915
190.05200000000002,0.010561355893819858,0.010561355893819858
190.053,0.006891100852639657,0.006891100852639657
190.054,0.0029626561408103,0.0029626561408103
190.055,0.00041175612155453986,-0.00041175612155453986
190.056,0.0027940912681043623,-0.0027940912681043623
190.05700000000002,0.004142863588437401,-0.004142863588437401
190.05800000000002,0.004687278431568555,-0.004687278431568555
190.059,0.004723970707369291,-0.004723970707369291
190.06,0.004431707542956684,-0.004431707542956684
190.061,0.003785299141087903,-0.003785299141087903
190.062,0.002603688106365698,-0.002603688106365698
190.06300000000002,0.0007073943286948534,-0.0007073943286948534
190.06400000000002,0.0018890781955547358,0.0018890781955547358
190.065,0.004843752828645968,0.004843752828645968
190.066,0.007487469797243839,0.007487469797243839
190.067,0.008981630886756688,0.008981630886756688
190.068,0.008592681620715019,0.008592681620715019
190.06900000000002,0.0059896552051501295,0.0059896552051501295
190.07000000000002,0.0014507797484133677,0.0014507797484133677
190.071,0.004112837186088161,-0.004112837186088161
190.072,0.009349849893435134,-0.009349849893435134
190.073,0.012835485816370156,-0.012835485816370156
190.074,0.013504518591241521,-0.013504518591241521
190.07500000000002,0.011010539213970695,-0.011010539213970695
190.07600000000002,0.005886859051886491,-0.005886859051886491
190.077,0.0005565545424545794,0.0005565545424545794
190.078,0.006581506127496224,0.006581506127496224
190.079,0.010515482072442264,0.010515482072442264
190.08,0.011240575742095922,0.011240575742095922
190.08100000000002,0.008524877695805413,0.008524877695805413
190.08200000000002,0.003091746911356069,0.003091746911356069
190.083,0.003595026865163411,-0.003595026865163411
190.084,0.00976216722798977,-0.00976216722798977
190.085,0.013838351245390412,-0.013838351245390412
190.086,0.01488751054270996,-0.01488751054270996
190.08700000000002,0.012834025889821729,-0.012834025889821729
190.08800000000002,0.008419931465296165,-0.008419931465296165
190.089,0.002921755561129058,-0.002921755561129058
190.09,0.0022698204826970764,0.0022698204826970764
190.091,0.00606543176811259,0.00606543176811259
190.092,0.007955164012711275,0.007955164012711275
190.09300000000002,0.008070051050456674,0.008070051050456674
190.09400000000002,0.0070248778496116715,0.0070248778496116715
190.095,0.005614482270289312,0.005614482270289312
190.096,0.004481810665748536,0.004481810665748536
190.097,0.0038791188676612154,0.0038791188676612154
190.098,0.003604411964645569,0.003604411964645569
190.09900000000002,0.003128597951578027,0.003128597951578027
190.10000000000002,0.001858997294249428,0.001858997294249428
190.101,0.000563686202278153,-0.000563686202278153
190.102,0.0040486435268998495,-0.0040486435268998495
190.103,0.008002417573091756,-0.008002417573091756
190.104,0.01146539354334896,-0.01146539354334896
190.10500000000002,0.013394989546354732,-0.013394989546354732
190.106,0.01300139381635315,-0.01300139381635315
190.107,0.010022851226843387,-0.010022851226843387
190.108,0.004847472673130578,-0.004847472673130578
190.109,0.0015602802781956228,0.0015602802781956228
190.11,0.007905946031617195,0.007905946031617195
190.11100000000002,0.012906265319635086,0.012906265319635086
190.112,0.015618921687290087,0.015618921687290087
190.113,0.015661873114582073,0.015661873114582073
190.114,0.01326259132028447,0.01326259132028447
190.115,0.009134315942082352,0.009134315942082352
190.116,0.004231106334364322,0.004231106334364322
190.11700000000002,0.0005320024144268631,-0.0005320024144268631
190.118,0.004503452559049006,-0.004503452559049006
190.119,0.0074000813664320125,-0.0074000813664320125
190.12,0.009274047268066618,-0.009274047268066618
190.121,0.010371902388719316,-0.010371902388719316
190.122,0.010950708792838075,-0.010950708792838075
190.12300000000002,0.011125894100566623,-0.011125894100566623
190.124,0.010808387106064426,-0.010808387106064426
190.125,0.009751839493915693,-0.009751839493915693
190.126,0.007688189386548997,-0.007688189386548997
190.127,0.004496598942286797,-0.004496598942286797
190.12800000000001,0.00033818500212085407,-0.00033818500212085407
190.12900000000002,0.004299290842300968,0.004299290842300968
190.13,0.008671224661841212,0.008671224661841212
190.131,0.011945138001289669,0.011945138001289669
190.132,0.013418994709785902,0.013418994709785902
190.133,0.0127213049475747,0.0127213049475747
190.13400000000001,0.0099299672809462,0.0099299672809462
190.13500000000002,0.005571591265760233,0.005571591265760233
190.136,0.0004996284112491791,0.0004996284112491791
190.137,0.004313915067301472,-0.004313915067301472
190.138,0.00801348850654419,-0.00801348850654419
190.139,0.010055883157710591,-0.010055883157710591
190.14000000000001,0.01031482613380609,-0.01031482613380609
190.14100000000002,0.009070531457852525,-0.009070531457852525
190.142,0.006894332314101611,-0.006894332314101611
190.143,0.0044674930369402125,-0.0044674930369402125
190.144,0.002389160852573365,-0.002389160852573365
190.145,0.0010274122911582476,-0.0010274122911582476
190.14600000000002,0.00045096584962055593,-0.00045096584962055593
190.14700000000002,0.0004532505954928973,-0.0004532505954928973
190.148,0.0006533312086124557,-0.0006533312086124557
190.149,0.0006376188929386838,-0.0006376188929386838
190.15,9.773182521463556e-05,-9.773182521463556e-05
190.151,0.0010751822709142505,0.0010751822709142505
190.15200000000002,0.0027633681941063603,0.0027633681941063603
190.15300000000002,0.004664775095767829,0.004664775095767829
190.154,0.006386407569295598,0.006386407569295598
190.155,0.007556814866881133,0.007556814866881133
190.156,0.007922713832552775,0.007922713832552775
190.157,0.007402362061132636,0.007402362061132636
190.15800000000002,0.0060837795072501595,0.0060837795072501595
190.15900000000002,0.004174200967890971,0.004174200967890971
190.16,0.0019224958568195949,0.0019224958568195949
190.161,0.0004560136866159927,-0.0004560136866159927
190.162,0.0028252108609606243,-0.0028252108609606243
190.163,0.005128737628846205,-0.005128737628846205
190.16400000000002,0.007346955128418263,-0.007346955128418263
190.16500000000002,0.009428884094790698,-0.009428884094790698
190.166,0.011228921740892982,-0.011228921740892982
190.167,0.012479306549473865,-0.012479306549473865
190.168,0.01281926576962001,-0.01281926576962001
190.169,0.011883014276431545,-0.011883014276431545
190.17000000000002,0.009426887833276991,-0.009426887833276991
190.17100000000002,0.005458054718501099,-0.005458054718501099
190.172,0.0003199604767964841,-0.0003199604767964841
190.173,0.005303442419594845,0.005303442419594845
190.174,0.010482239530679468,0.010482239530679468
190.175,0.014222748239710477,0.014222748239710477
190.17600000000002,0.015697647501568837,0.015697647501568837
190.17700000000002,0.01446496775325453,0.01446496775325453
190.178,0.010613670079274874,0.010613670079274874
190.179,0.004788856329706833,0.004788856329706833
190.18,0.0019198755601131283,-0.0019198755601131283
190.181,0.008206110150388496,-0.008206110150388496
190.18200000000002,0.012836286781927475,-0.012836286781927475
190.18300000000002,0.014928351398246009,-0.014928351398246009
190.184,0.014147772412695256,-0.014147772412695256
190.185,0.01077109087892715,-0.01077109087892715
190.186,0.005603092961066806,-0.005603092961066806
190.187,0.00022689827871840733,0.00022689827871840733
190.18800000000002,0.005532893194334903,0.005532893194334903
190.18900000000002,0.00933351403916911,0.00933351403916911
190.19,0.011042553563220984,0.011042553563220984
190.191,0.010548919630429296,0.010548919630429296
190.192,0.008179508195748425,0.008179508195748425
190.193,0.0045703693696372005,0.0045703693696372005
190.19400000000002,0.0004921872879916105,0.0004921872879916105
190.19500000000002,0.0033195841111389986,-0.0033195841111389986
190.196,0.006290903966690419,-0.006290903966690419
190.197,0.0080736600772855,-0.0080736600772855
190.198,0.008552644096932105,-0.008552644096932105
190.199,0.007814279483256146,-0.007814279483256146
190.20000000000002,0.006100192269887066,-0.006100192269887066
190.20100000000002,0.003761775122407612,-0.003761775122407612
190.202,0.0012193237832521285,-0.0012193237832521285
190.203,0.0010816689461014687,0.0010816689461014687
190.204,0.0027277773934731883,0.0027277773934731883
190.205,0.0034125037917913563,0.0034125037917913563
190.20600000000002,0.0030188122370138327,0.0030188122370138327
190.20700000000002,0.00168487810820538,0.00168487810820538
190.208,0.0001785358541334339,-0.0001785358541334339
190.209,0.0019446514583961224,-0.0019446514583961224
190.21,0.0029069385957248375,-0.0029069385957248375
190.211,0.002472525532594519,-0.002472525532594519
190.21200000000002,0.0003634021880888324,-0.0003634021880888324
190.21300000000002,0.003238230700535902,0.003238230700535902
190.214,0.007658045311723701,0.007658045311723701
190.215,0.011841076455576164,0.011841076455576164
190.216,0.014594192996717829,0.014594192996717829
190.217,0.014902961771955622,0.014902961771955622
190.21800000000002,0.01223553606792143,0.01223553606792143
190.21900000000002,0.006740796530406103,0.006740796530406103
190.22,0.0007278013621950353,-0.0007278013621950353
190.221,0.008782956305007904,-0.008782956305007904
190.222,0.015830999371453214,-0.015830999371453214
190.223,0.020468749122515558,-0.020468749122515558
190.22400000000002,0.02183793542397877,-0.02183793542397877
190.22500000000002,0.01983499616380097,-0.01983499616380097
190.226,0.015115705413568247,-0.015115705413568247
190.227,0.008895151386259138,-0.008895151386259138
190.228,0.0026047597123677897,-0.0026047597123677897
190.229,0.002490233127850319,0.002490233127850319
190.23000000000002,0.005600518743384407,0.005600518743384407
190.231,0.006563693298416638,0.006563693298416638
190.232,0.005803022007842063,0.005803022007842063
190.233,0.004121569879707996,0.004121569879707996
190.234,0.0024086613210153505,0.0024086613210153505
190.235,0.0013576050712900813,0.0013576050712900813
190.23600000000002,0.0012820867053997221,0.0012820867053997221
190.237,0.002079038799055384,0.002079038799055384
190.238,0.0033329798210803897,0.0033329798210803897
190.239,0.004509571202434757,0.004509571202434757
190.24,0.005160557291440737,0.005160557291440737
190.241,0.005066087004733445,0.005066087004733445
190.24200000000002,0.00427060604428752,0.00427060604428752
190.243,0.0030125982299612306,0.0030125982299612306
190.244,0.0015893893704799255,0.0015893893704799255
190.245,0.00022072747487666242,0.00022072747487666242
190.246,0.001028978531889331,-0.001028978531889331
190.247,0.0022377597926452435,-0.0022377597926452435
190.24800000000002,0.003531001850013917,-0.003531001850013917
190.249,0.00494950876796242,-0.00494950876796242
190.25,0.0063445107553162005,-0.0063445107553162005
190.251,0.0073557118881062,-0.0073557118881062
190.252,0.007496918923291557,-0.007496918923291557
190.25300000000001,0.006329973083106703,-0.006329973083106703
190.25400000000002,0.0036682879160290704,-0.0036682879160290704
190.255,0.00026815903375257015,0.00026815903375257015
190.256,0.004815410000455681,0.004815410000455681
190.257,0.008978721023739285,0.008978721023739285
190.258,0.01167820976246849,0.01167820976246849
190.25900000000001,0.012060070172912558,0.012060070172912558
190.26000000000002,0.009777636931011769,0.009777636931011769
190.261,0.005148670261791981,0.005148670261791981
190.262,0.0008711584847359234,-0.0008711584847359234
190.263,0.006903641834795793,-0.006903641834795793
190.264,0.011498590878156622,-0.011498590878156622
190.26500000000001,0.01352239024398045,-0.01352239024398045
190.26600000000002,0.012473222183107535,-0.012473222183107535
190.267,0.008631365459260373,-0.008631365459260373
190.268,0.0030002472019057176,-0.0030002472019057176
190.269,0.0029461813453087425,0.0029461813453087425
190.27,0.007640053310263699,0.007640053310263699
190.27100000000002,0.009817996995825617,0.009817996995825617
190.27200000000002,0.008836761406307002,0.008836761406307002
190.273,0.004828024895267682,0.004828024895267682
190.274,0.0013397507449688123,-0.0013397507449688123
190.275,0.008273737423001836,-0.008273737423001836
190.276,0.01438331070676921,-0.01438331070676921
190.27700000000002,0.018238510297843683,-0.018238510297843683
190.27800000000002,0.018878417666264517,-0.018878417666264517
190.279,0.016006723237408205,-0.016006723237408205
190.28,0.010042107487501372,-0.010042107487501372
190.281,0.002023523444358785,-0.002023523444358785
190.282,0.006602200850783365,0.006602200850783365
190.28300000000002,0.014264747861649132,0.014264747861649132
190.28400000000002,0.019572460272608446,0.019572460272608446
190.285,0.02157798064731139,0.02157798064731139
190.286,0.01995995301197301,0.01995995301197301
190.287,0.015086216819820824,0.015086216819820824
190.288,0.007942526501709629,0.007942526501709629
190.28900000000002,6.553511434782541e-05,-6.553511434782541e-05
190.29000000000002,0.007403605975777678,-0.007403605975777678
190.291,0.012734953944172617,-0.012734953944172617
190.292,0.015210063171487482,-0.015210063171487482
190.293,0.014648312174527289,-0.014648312174527289
190.294,0.011560844875390115,-0.011560844875390115
190.29500000000002,0.007000946754084754,-0.007000946754084754
190.29600000000002,0.0022741863023455363,-0.0022741863023455363
190.297,0.0014176292933450853,0.0014176292933450853
190.298,0.0033007385790501035,0.0033007385790501035
190.299,0.003227773016179123,0.003227773016179123
190.3,0.0016891508289026726,0.0016891508289026726
190.30100000000002,0.00036894656551930645,-0.00036894656551930645
190.30200000000002,0.001866594190375243,-0.001866594190375243
190.303,0.0019528093146864735,-0.0019528093146864735
190.304,0.0002937335523964078,-0.0002937335523964078
190.305,0.002807663243156998,0.002807663243156998
190.306,0.006501375491784501,0.006501375491784501
190.30700000000002,0.009662428213282696,0.009662428213282696
190.30800000000002,0.011257027978830585,0.011257027978830585
190.309,0.010681949471204646,0.010681949471204646
190.31,0.007963978653018384,0.007963978653018384
190.311,0.00375261324135294,0.00375261324135294
190.312,0.000890908130409413,-0.000890908130409413
190.31300000000002,0.0048357035940260655,-0.0048357035940260655
190.31400000000002,0.00723717486844278,-0.00723717486844278
190.315,0.0077855048711273035,-0.0077855048711273035
190.316,0.006764137430385895,-0.006764137430385895
190.317,0.0049035441805562715,-0.0049035441805562715
190.318,0.0030885545431600914,-0.0030885545431600914
190.31900000000002,0.0020292266512403757,-0.0020292266512403757
190.32000000000002,0.0020166951977337345,-0.0020166951977337345
190.321,0.0028521507005580104,-0.0028521507005580104
190.322,0.003971021813024694,-0.003971021813024694
190.323,0.004709852234317627,-0.004709852234317627
190.324,0.004608200951638703,-0.004608200951638703
190.32500000000002,0.0036233464636676884,-0.0036233464636676884
190.32600000000002,0.002168019528737604,-0.002168019528737604
190.327,0.0009495877678967412,-0.0009495877678967412
190.328,0.00066793673008874,-0.00066793673008874
190.329,0.0016887538832434641,-0.0016887538832434641
190.33,0.0038253541011412403,-0.0038253541011412403
190.33100000000002,0.006327399117601934,-0.006327399117601934
190.33200000000002,0.008099832036465329,-0.008099832036465329
190.333,0.008086824375348146,-0.008086824375348146
190.334,0.0056866179629933905,-0.0056866179629933905
190.335,0.0010411022656218977,-0.0010411022656218977
190.336,0.004920263161709224,0.004920263161709224
190.33700000000002,0.010719208366656009,0.010719208366656009
190.33800000000002,0.014784684494598504,0.014784684494598504
190.339,0.015976294749886214,0.015976294749886214
190.34,0.01399100380477844,0.01399100380477844
190.341,0.009500268786908928,0.009500268786908928
190.342,0.003953480141945928,0.003953480141945928
190.34300000000002,0.0008996266452634293,-0.0008996266452634293
190.34400000000002,0.003611173860691147,-0.003611173860691147
190.345,0.003552997269644239,-0.003552997269644239
190.346,0.001161202868906093,-0.001161202868906093
190.347,0.002192854882211044,0.002192854882211044
190.348,0.004676850836664868,0.004676850836664868
190.34900000000002,0.004664367765404878,0.004664367765404878
190.35000000000002,0.0013660682736162868,0.0013660682736162868
190.351,0.0048013382912977165,-0.0048013382912977165
190.352,0.012253178251643517,-0.012253178251643517
190.353,0.01869100568231928,-0.01869100568231928
190.354,0.021837641354630014,-0.021837641354630014
190.35500000000002,0.020214922707083402,-0.020214922707083402
190.356,0.01370157457276709,-0.01370157457276709
190.357,0.0036732775070436896,-0.0036732775070436896
190.358,0.007339075947867702,0.007339075947867702
190.359,0.016377939581586575,0.016377939581586575
190.36,0.020948945189057953,0.020948945189057953
190.36100000000002,0.019788993473126886,0.019788993473126886
190.362,0.013265390162852084,0.013265390162852084
190.363,0.003276549883842108,0.003276549883842108
190.364,0.007314677983288164,-0.007314677983288164
190.365,0.015534276775939767,-0.015534276775939767
190.366,0.01916692245607915,-0.01916692245607915
190.36700000000002,0.01737261627140772,-0.01737261627140772
190.368,0.010868237522556357,-0.010868237522556357
190.369,0.0016367477590448723,-0.0016367477590448723
190.37,0.007721618566769776,0.007721618566769776
190.371,0.014773907622764091,0.014773907622764091
190.372,0.01792257554185772,0.01792257554185772
190.37300000000002,0.016759802209242336,0.016759802209242336
190.374,0.012027474081702481,0.012027474081702481
190.375,0.0052382611766602395,0.0052382611766602395
190.376,0.001879555274762783,-0.001879555274762783
190.377,0.007907876511701613,-0.007907876511701613
190.37800000000001,0.012062043044776169,-0.012062043044776169
190.37900000000002,0.014230022437007122,-0.014230022437007122
190.38,0.014759888025026736,-0.014759888025026736
190.381,0.014120735049417082,-0.014120735049417082
190.382,0.012600118735930664,-0.012600118735930664
190.383,0.010172259257478269,-0.010172259257478269
190.38400000000001,0.006589395907290686,-0.006589395907290686
190.38500000000002,0.001647496060711497,-0.001647496060711497
190.386,0.004502380012867734,0.004502380012867734
190.387,0.011152417166037244,0.011152417166037244
190.388,0.017063630262331986,0.017063630262331986
190.389,0.020747738714706535,0.020747738714706535
190.39000000000001,0.02092884831760203,0.02092884831760203
190.39100000000002,0.01702681756184487,0.01702681756184487
190.392,0.009479165769094099,0.009479165769094099
190.393,0.00023793520178655932,-0.00023793520178655932
190.394,0.009930118522495975,-0.009930118522495975
190.395,0.017267561001928746,-0.017267561001928746
190.39600000000002,0.02045345965516168,-0.02045345965516168
190.39700000000002,0.01876270705913875,-0.01876270705913875
190.398,0.012770337589513615,-0.012770337589513615
190.399,0.004187943537707296,-0.004187943537707296
190.4,0.004645006704370639,0.004645006704370639
190.401,0.011453636320644483,0.011453636320644483
190.40200000000002,0.014682291552900297,0.014682291552900297
190.40300000000002,0.013904326586535686,0.013904326586535686
190.404,0.009864184280675255,0.009864184280675255
190.405,0.004153011060425029,0.004153011060425029
190.406,0.0013601062636946818,-0.0013601062636946818
190.407,0.005143002907844239,-0.005143002907844239
190.40800000000002,0.006456657374756645,-0.006456657374756645
190.40900000000002,0.0055114781662381025,-0.0055114781662381025
190.41,0.0032914498950501843,-0.0032914498950501843
190.411,0.0011290924103542373,-0.0011290924103542373
190.412,0.00019497186930811155,-0.00019497186930811155
190.413,0.0010850020542815676,-0.0010850020542815676
190.41400000000002,0.003642823746630681,-0.003642823746630681
190.41500000000002,0.007062524358580944,-0.007062524358580944
190.416,0.010214036604485338,-0.010214036604485338
190.417,0.012057450808426667,-0.012057450808426667
190.418,0.011989618599876458,-0.011989618599876458
190.419,0.01000263534906328,-0.01000263534906328
190.42000000000002,0.0066127878873532275,-0.0066127878873532275
190.42100000000002,0.00260869552975934,-0.00260869552975934
190.422,0.0012660841872320055,0.0012660841872320055
190.423,0.00456244492386868,0.00456244492386868
190.424,0.007209084594076147,0.007209084594076147
190.425,0.009405689031181635,0.009405689031181635
190.42600000000002,0.011384044670255758,0.011384044670255758
190.42700000000002,0.013152739629147592,0.013152739629147592
190.428,0.014350803453605029,0.014350803453605029
190.429,0.014293011034526789,0.014293011034526789
190.43,0.012210722848969988,0.012210722848969988
190.431,0.0076076158075048216,0.0076076158075048216
190.43200000000002,0.0005929125336620958,0.0005929125336620958
190.43300000000002,0.007950736938528423,-0.007950736938528423
190.434,0.016457274441965996,-0.016457274441965996
190.435,0.0230283376153506,-0.0230283376153506
190.436,0.025952118832572462,-0.025952118832572462
190.437,0.024228548478302275,-0.024228548478302275
190.43800000000002,0.017925730943810603,-0.017925730943810603
190.43900000000002,0.008240159878134066,-0.008240159878134066
190.44,0.0027731747538827056,0.0027731747538827056
190.441,0.01272709619815709,0.01272709619815709
190.442,0.01952701926503043,0.01952701926503043
190.443,0.021904565603476756,0.021904565603476756
190.44400000000002,0.01970198780280065,0.01970198780280065
190.44500000000002,0.013832709668565703,0.013832709668565703
190.446,0.005948845242604674,0.005948845242604674
190.447,0.002062385012894611,-0.002062385012894611
190.448,0.008585578093460177,-0.008585578093460177
190.449,0.01263287614900092,-0.01263287614900092
190.45000000000002,0.013958710616853423,-0.013958710616853423
190.45100000000002,0.01293439981183292,-0.01293439981183292
190.452,0.010266034371061878,-0.010266034371061878
190.453,0.00668415091214015,-0.00668415091214015
190.454,0.0027268738793125363,-0.0027268738793125363
190.455,0.0013148118595848717,0.0013148118595848717
190.45600000000002,0.005297172051512591,0.005297172051512591
190.45700000000002,0.009044858577535916,0.009044858577535916
190.458,0.012201536630919302,0.012201536630919302
190.459,0.01420319366423091,0.01420319366423091
190.46,0.014410461759822395,0.014410461759822395
190.461,0.012361128575470382,0.012361128575470382
190.46200000000002,0.008041568221134622,0.008041568221134622
