Czas,AbsSum,Sum
266.615,0.06234876355938579,0.06234876355938579
266.616,0.05829444776877235,0.05829444776877235
266.617,0.04243706321048779,0.04243706321048779
266.618,0.01747640002466544,0.01747640002466544
266.619,0.010827161588067957,-0.010827161588067957
266.62,0.03526314736241898,-0.03526314736241898
266.621,0.04928963796777386,-0.04928963796777386
266.622,0.04899372646499378,-0.04899372646499378
266.623,0.034270569764839776,-0.034270569764839776
266.624,0.008846369125223852,-0.008846369125223852
266.625,0.020857409350711675,0.020857409350711675
266.626,0.04764950268763268,0.04764950268763268
266.627,0.06566668063543712,0.06566668063543712
266.628,0.07198301057179379,0.07198301057179379
266.629,0.06724251365658818,0.06724251365658818
266.63,0.05515571162491262,0.05515571162491262
266.631,0.041072783444661365,0.041072783444661365
266.632,0.030137442133694847,0.030137442133694847
266.633,0.025641499551042113,0.025641499551042113
266.634,0.028106929749539766,0.028106929749539766
266.635,0.03535774729989272,0.03535774729989272
266.636,0.043502477857168875,0.043502477857168875
266.637,0.048446807637299694,0.048446807637299694
266.638,0.04739511392278439,0.04739511392278439
266.639,0.03982805678907875,0.03982805678907875
266.64,0.02764432809205153,0.02764432809205153
266.641,0.014453072757545593,0.014453072757545593
266.642,0.004294070993209997,0.004294070993209997
266.643,0.000246841367915529,0.000246841367915529
266.644,0.003408947714276911,0.003408947714276911
266.645,0.012578227213255522,0.012578227213255522
266.646,0.024719986504049274,0.024719986504049274
266.647,0.03602967199112839,0.03602967199112839
266.648,0.043207250203933345,0.043207250203933345
266.649,0.044504516545402106,0.044504516545402106
266.65,0.04020329073734086,0.04020329073734086
266.65099999999995,0.03239094601670445,0.03239094601670445
266.652,0.02414359691786494,0.02414359691786494
266.653,0.018421776562035808,0.018421776562035808
266.654,0.017064917609341812,0.017064917609341812
266.655,0.020217640033894924,0.020217640033894924
266.656,0.02635811450834069,0.02635811450834069
266.657,0.03288785006103101,0.03288785006103101
266.658,0.03705722967439007,0.03705722967439007
266.659,0.03690277792082264,0.03690277792082264
266.66,0.03188799930133279,0.03188799930133279
266.661,0.02305663612038944,0.02305663612038944
266.662,0.012678976673508036,0.012678976673508036
266.66299999999995,0.0035369035642400792,0.0035369035642400792
266.664,0.0019027240968445547,-0.0019027240968445547
266.665,0.0021632877877028056,-0.0021632877877028056
266.666,0.00290773798009325,0.00290773798009325
266.667,0.012209380910937595,0.012209380910937595
266.668,0.023792447358758073,0.023792447358758073
266.669,0.03543574759463808,0.03543574759463808
266.67,0.04520105977552791,0.04520105977552791
266.671,0.05181260167959034,0.05181260167959034
266.672,0.05478901802124625,0.05478901802124625
266.673,0.054347563903202945,0.054347563903202945
266.674,0.05116783748724729,0.05116783748724729
266.67499999999995,0.046126063852241384,0.046126063852241384
266.676,0.0400896939939861,0.0400896939939861
266.677,0.03381217801627323,0.03381217801627323
266.678,0.027914134126637347,0.027914134126637347
266.679,0.022902557867199747,0.022902557867199747
266.68,0.019175955235969377,0.019175955235969377
266.681,0.01698745121920231,0.01698745121920231
266.682,0.016375162460580794,0.016375162460580794
266.683,0.017099979601003845,0.017099979601003845
266.684,0.018640086103629327,0.018640086103629327
266.685,0.020274336868973064,0.020274336868973064
266.686,0.021250506411140124,0.021250506411140124
266.68699999999995,0.02099540639486852,0.02099540639486852
266.688,0.01929938760978067,0.01929938760978067
266.689,0.016409106616077418,0.016409106616077418
266.69,0.012990139322352157,0.012990139322352157
266.691,0.009964619818848774,0.009964619818848774
266.692,0.008271659570793233,0.008271659570793233
266.693,0.008623514468898419,0.008623514468898419
266.694,0.011329176313625844,0.011329176313625844
266.695,0.016230841981462518,0.016230841981462518
266.696,0.022758841068329705,0.022758841068329705
266.697,0.030073110549585946,0.030073110549585946
266.698,0.037238202976367374,0.037238202976367374
266.699,0.0433804041846908,0.0433804041846908
266.7,0.04779616569030498,0.04779616569030498
266.701,0.05000920148298982,0.05000920148298982
266.702,0.04979530027220691,0.04979530027220691
266.703,0.04719917272573304,0.04719917272573304
266.704,0.042555030585984754,0.042555030585984754
266.705,0.03649985090112007,0.03649985090112007
266.706,0.02994887259523904,0.02994887259523904
266.707,0.023999642054250314,0.023999642054250314
266.708,0.019749728771895736,0.019749728771895736
266.709,0.018049392147316157,0.018049392147316157
266.71,0.01924977319526211,0.01924977319526211
266.711,0.023031269335546334,0.023031269335546334
266.712,0.02839098433126641,0.02839098433126641
266.713,0.033828598966333834,0.033828598966333834
266.714,0.0377066048071657,0.0377066048071657
266.715,0.038694967112930634,0.038694967112930634
266.716,0.03616736458916381,0.03616736458916381
266.717,0.030415851151905704,0.030415851151905704
266.718,0.02259853244481569,0.02259853244481569
266.719,0.014418270353825813,0.014418270353825813
266.72,0.007622409135254582,0.007622409135254582
266.721,0.003481244101970482,0.003481244101970482
266.722,0.0024198389603311554,0.0024198389603311554
266.723,0.003933908532595343,0.003933908532595343
266.724,0.00682742370089362,0.00682742370089362
266.725,0.009697655645625414,0.009697655645625414
266.726,0.011501585464055442,0.011501585464055442
266.727,0.012000005888899823,0.012000005888899823
266.728,0.011908676923089168,0.011908676923089168
266.729,0.012681588448475,0.012681588448475
266.73,0.015979039249829796,0.015979039249829796
266.731,0.022989411159755946,0.022989411159755946
266.732,0.0338368818205792,0.0338368818205792
266.733,0.04729334965646226,0.04729334965646226
266.734,0.060922966001149215,0.060922966001149215
266.735,0.07164955521171845,0.07164955521171845
266.736,0.07659589478912232,0.07659589478912232
266.737,0.07394664147982177,0.07394664147982177
266.738,0.06356711147592553,0.06356711147592553
266.739,0.0471762757363241,0.0471762757363241
266.74,0.028004038204053172,0.028004038204053172
266.741,0.0100183234954756,0.0100183234954756
266.742,0.003062759563620343,-0.003062759563620343
266.743,0.008695129596038909,-0.008695129596038909
266.744,0.006112719459126392,-0.006112719459126392
266.745,0.0035470056272404182,0.0035470056272404182
266.746,0.01761222351710101,0.01761222351710101
266.747,0.03261636886683461,0.03261636886683461
266.748,0.04518753721035851,0.04518753721035851
266.749,0.05284109972202855,0.05284109972202855
266.75,0.05447620125239627,0.05447620125239627
266.751,0.05047707107708965,0.05047707107708965
266.752,0.04243846957941111,0.04243846957941111
266.753,0.03263397786398259,0.03263397786398259
266.754,0.02339889255736205,0.02339889255736205
266.755,0.01659646109252111,0.01659646109252111
266.756,0.013286019762730916,0.013286019762730916
266.757,0.013636666785779017,0.013636666785779017
266.758,0.017057116435162722,0.017057116435162722
266.759,0.02246291149543378,0.02246291149543378
266.76,0.028586279919313284,0.028586279919313284
266.761,0.03424871744257718,0.03424871744257718
266.762,0.038549409790787026,0.038549409790787026
266.763,0.04095817490499831,0.04095817490499831
266.764,0.04132720266589307,0.04132720266589307
266.765,0.03984626097412969,0.03984626097412969
266.766,0.03696367964190839,0.03696367964190839
266.767,0.03328759250256552,0.03328759250256552
266.768,0.029476211646331185,0.029476211646331185
266.769,0.026126321883411352,0.026126321883411352
266.77,0.023674489018852274,0.023674489018852274
266.771,0.022330451445236044,0.022330451445236044
266.772,0.02206089709873882,0.02206089709873882
266.773,0.022631350622749347,0.022631350622749347
266.774,0.023696333537379433,0.023696333537379433
266.775,0.02491006676330021,0.02491006676330021
266.77599999999995,0.026020200168952456,0.026020200168952456
266.777,0.026911401317921246,0.026911401317921246
266.778,0.027584381787330692,0.027584381787330692
266.779,0.028082683659324204,0.028082683659324204
266.78,0.02840337778491553,0.02840337778491553
266.781,0.028437796769136714,0.028437796769136714
266.782,0.027978530658242518,0.027978530658242518
266.783,0.026801317299095073,0.026801317299095073
266.784,0.024795418757568077,0.024795418757568077
266.785,0.022088276235330273,0.022088276235330273
266.786,0.01910284435074172,0.01910284435074172
266.787,0.01650481006770721,0.01650481006770721
266.78799999999995,0.015037076705023633,0.015037076705023633
266.789,0.01528598612238019,0.01528598612238019
266.79,0.01745882613635419,0.01745882613635419
266.791,0.021259291698993543,0.021259291698993543
266.792,0.025920698530365938,0.025920698530365938
266.793,0.030403137570880645,0.030403137570880645
266.794,0.03369917258083621,0.03369917258083621
266.795,0.03514678404475391,0.03514678404475391
266.796,0.034637484916013594,0.034637484916013594
266.797,0.0326389621817087,0.0326389621817087
266.798,0.030016195207797303,0.030016195207797303
266.799,0.027710004801947186,0.027710004801947186
266.79999999999995,0.026388937165870985,0.026388937165870985
266.801,0.026205966921725166,0.026205966921725166
266.802,0.026757062433869994,0.026757062433869994
266.803,0.027264568396594857,0.027264568396594857
266.804,0.026921168009897523,0.026921168009897523
266.805,0.025263213710741805,0.025263213710741805
266.806,0.022422937246655783,0.022422937246655783
266.807,0.019147984389201955,0.019147984389201955
266.808,0.016562271430288877,0.016562271430288877
266.809,0.015743785580901726,0.015743785580901726
266.81,0.017273890029231076,0.017273890029231076
266.811,0.020936538483517175,0.020936538483517175
266.81199999999995,0.025701464517179584,0.025701464517179584
266.813,0.03002537784918413,0.03002537784918413
266.814,0.0323842981868292,0.0323842981868292
266.815,0.031853519591321655,0.031853519591321655
266.816,0.028518082933262967,0.028518082933262967
266.817,0.02354322662906183,0.02354322662906183
266.818,0.0188488658235888,0.0188488658235888
266.819,0.016475996044811314,0.016475996044811314
266.82,0.01785391016776372,0.01785391016776372
266.821,0.02322860589771203,0.02322860589771203
266.822,0.031471359066213456,0.031471359066213456
266.823,0.040362009050608716,0.040362009050608716
266.824,0.04727521038261928,0.04727521038261928
266.825,0.05004850795034521,0.05004850795034521
266.826,0.04773406541451686,0.04773406541451686
266.827,0.040962802814722865,0.040962802814722865
266.828,0.03177560630287357,0.03177560630287357
266.829,0.022959898158814385,0.022959898158814385
266.83,0.017107261822717046,0.017107261822717046
266.831,0.015714835810790806,0.015714835810790806
266.832,0.018648760718752655,0.018648760718752655
266.833,0.024169839765930012,0.024169839765930012
266.834,0.02952840855174954,0.02952840855174954
266.835,0.031934032805565726,0.031934032805565726
266.836,0.029567751627533445,0.029567751627533445
266.837,0.022280992928554788,0.022280992928554788
266.838,0.011727169442899532,0.011727169442899532
266.839,0.000865876429261947,0.000865876429261947
266.84,0.007001431507011824,-0.007001431507011824
266.841,0.009338570330165719,-0.009338570330165719
266.842,0.005244009221966217,-0.005244009221966217
266.843,0.004219995883760541,0.004219995883760541
266.844,0.016356164517789207,0.016356164517789207
266.845,0.027709136807577694,0.027709136807577694
266.846,0.03519093848136823,0.03519093848136823
266.847,0.03706987340087253,0.03706987340087253
266.848,0.033487108340910066,0.033487108340910066
266.849,0.02633181183221822,0.02633181183221822
266.85,0.018530341061974598,0.018530341061974598
266.851,0.01300791330302098,0.01300791330302098
266.852,0.01169075681637266,0.01169075681637266
266.853,0.014894915486166393,0.014894915486166393
266.854,0.02130389152572243,0.02130389152572243
266.855,0.028524022163298746,0.028524022163298746
266.856,0.034001134791134424,0.034001134791134424
266.857,0.035958186944377246,0.035958186944377246
266.858,0.0340146325134012,0.0340146325134012
266.859,0.02927186353041966,0.02927186353041966
266.86,0.023848542990482224,0.023848542990482224
266.861,0.020051243846075595,0.020051243846075595
266.862,0.019495937775193095,0.019495937775193095
266.863,0.022507935188532446,0.022507935188532446
266.864,0.028019071262257444,0.028019071262257444
266.865,0.03399288629750474,0.03399288629750474
266.866,0.03821160230545373,0.03821160230545373
266.867,0.039125756439853054,0.039125756439853054
266.868,0.03644697893874138,0.03644697893874138
266.869,0.031263080058677506,0.031263080058677506
266.87,0.02563466058316055,0.02563466058316055
266.871,0.021826318494621466,0.021826318494621466
266.872,0.02146098580503719,0.02146098580503719
266.873,0.024912975373932778,0.024912975373932778
266.874,0.03116456358048114,0.03116456358048114
266.875,0.038176898684205485,0.038176898684205485
266.876,0.04363406270458192,0.04363406270458192
266.877,0.0457809447628621,0.0457809447628621
266.878,0.04404253829978022,0.04404253829978022
266.879,0.0391962381039479,0.0391962381039479
266.88,0.03303781852804355,0.03303781852804355
266.881,0.027672418816960365,0.027672418816960365
266.882,0.024702528916444866,0.024702528916444866
266.883,0.024622958729441535,0.024622958729441535
266.884,0.026653870444964145,0.026653870444964145
266.885,0.029076718707188753,0.029076718707188753
266.886,0.029946670607267523,0.029946670607267523
266.887,0.02791054156982331,0.02791054156982331
266.888,0.02281595103712064,0.02281595103712064
266.889,0.015872081921004977,0.015872081921004977
266.89,0.009287931140987027,0.009287931140987027
266.891,0.005509106615607884,0.005509106615607884
266.892,0.006326595237716726,0.006326595237716726
266.893,0.012183608565357273,0.012183608565357273
266.894,0.021939415377230986,0.021939415377230986
266.895,0.033186028176901194,0.033186028176901194
266.896,0.043014157279696486,0.043014157279696486
266.897,0.04896190974126058,0.04896190974126058
266.898,0.049812862650527645,0.049812862650527645
266.899,0.0459637234618242,0.0459637234618242
266.9,0.03923607875251922,0.03923607875251922
266.90099999999995,0.03220533611485843,0.03220533611485843
266.902,0.027290661773196723,0.027290661773196723
266.903,0.025930982185266238,0.025930982185266238
266.904,0.028135527247267422,0.028135527247267422
266.905,0.03255770631526955,0.03255770631526955
266.906,0.0370504197537187,0.0370504197537187
266.907,0.03948915964163535,0.03948915964163535
266.908,0.03855842049045721,0.03855842049045721
266.909,0.034218465877846604,0.034218465877846604
266.91,0.027693229770631822,0.027693229770631822
266.911,0.020998719630323626,0.020998719630323626
266.912,0.016198192571443615,0.016198192571443615
266.91299999999995,0.014664677322624886,0.014664677322624886
266.914,0.01662015871294331,0.01662015871294331
266.915,0.021110588491889626,0.021110588491889626
266.916,0.026409917987272324,0.026409917987272324
266.917,0.03068743182835676,0.03068743182835676
266.918,0.032679750042882594,0.032679750042882594
266.919,0.032115139045066465,0.032115139045066465
266.92,0.029738728467779918,0.029738728467779918
266.921,0.026943007763089444,0.026943007763089444
266.922,0.02515883331484492,0.02515883331484492
266.923,0.02525117620819395,0.02525117620819395
266.924,0.027158162394092855,0.027158162394092855
266.92499999999995,0.029914899984706755,0.029914899984706755
266.926,0.03205289918961585,0.03205289918961585
266.927,0.03221921099171676,0.03221921099171676
266.928,0.02977244172915383,0.02977244172915383
266.929,0.02511842164135558,0.02511842164135558
266.93,0.019644434680337497,0.019644434680337497
266.931,0.01526154109274458,0.01526154109274458
266.932,0.013713362095280512,0.013713362095280512
266.933,0.015901267968304156,0.015901267968304156
266.934,0.021476101776444212,0.021476101776444212
266.935,0.028855067514619748,0.028855067514619748
266.936,0.035672522497894654,0.035672522497894654
266.93699999999995,0.03951951876426718,0.03951951876426718
266.938,0.038724383067470836,0.038724383067470836
266.939,0.03291158634309399,0.03291158634309399
266.94,0.023152861979098383,0.023152861979098383
266.941,0.011664382737140988,0.011664382737140988
266.942,0.0011564093312894652,0.0011564093312894652
266.943,0.00594633756188967,-0.00594633756188967
266.944,0.008161653292634852,-0.008161653292634852
266.945,0.005285203264048244,-0.005285203264048244
266.946,0.001677480964847211,0.001677480964847211
266.947,0.010926490499951536,0.010926490499951536
266.948,0.020465420059350592,0.020465420059350592
266.949,0.028671674334650454,0.028671674334650454
266.95,0.034659688753663875,0.034659688753663875
266.951,0.03834688331579561,0.03834688331579561
266.952,0.04024413074317179,0.04024413074317179
266.953,0.04108551375528258,0.04108551375528258
266.954,0.041454701890126566,0.041454701890126566
266.955,0.04154681535509708,0.04154681535509708
266.956,0.0411377649167779,0.0411377649167779
266.957,0.039747053318405445,0.039747053318405445
266.958,0.036908599107947415,0.036908599107947415
266.959,0.032432398542863394,0.032432398542863394
266.96,0.026555528871351486,0.026555528871351486
266.961,0.01993311456510516,0.01993311456510516
266.962,0.013484617979036218,0.013484617979036218
266.963,0.008162009650192203,0.008162009650192203
266.964,0.004725988538580861,0.004725988538580861
266.965,0.003600913279659501,0.003600913279659501
266.966,0.004839365700080034,0.004839365700080034
266.967,0.0081826736725914,0.0081826736725914
266.968,0.013173159667645207,0.013173159667645207
266.969,0.019267755765689065,0.019267755765689065
266.97,0.025919186407880934,0.025919186407880934
266.971,0.03261826975481563,0.03261826975481563
266.972,0.03891345817846137,0.03891345817846137
266.973,0.04443010435632222,0.04443010435632222
266.974,0.04890032663703536,0.04890032663703536
266.975,0.05219327092233694,0.05219327092233694
266.976,0.05431930994403622,0.05431930994403622
266.977,0.05538275440424889,0.05538275440424889
266.978,0.055479582660844295,0.055479582660844295
266.979,0.05457125194952184,0.05457125194952184
266.98,0.05239546035001652,0.05239546035001652
266.981,0.0484810616004574,0.0484810616004574
266.982,0.04230660047707069,0.04230660047707069
266.983,0.033584537744757226,0.033584537744757226
266.984,0.022586266896089002,0.022586266896089002
266.985,0.010375689361052931,0.010375689361052931
266.986,0.001182112197779528,-0.001182112197779528
266.987,0.009714369968849335,-0.009714369968849335
266.988,0.012911449036299816,-0.012911449036299816
266.989,0.00923529651157362,-0.00923529651157362
266.99,0.0014573828553359203,0.0014573828553359203
266.991,0.017612882608148972,0.017612882608148972
266.992,0.03616048897164714,0.03616048897164714
266.993,0.0531898722726174,0.0531898722726174
266.994,0.06496845063007983,0.06496845063007983
266.995,0.06900360846015552,0.06900360846015552
266.996,0.06480716827280153,0.06480716827280153
266.997,0.054089575661656175,0.054089575661656175
266.998,0.040284865977106454,0.040284865977106454
266.999,0.02753058925599028,0.02753058925599028
267.0,0.01942213980125551,0.01942213980125551
267.001,0.017954867878241076,0.017954867878241076
267.002,0.02301824304341693,0.02301824304341693
267.003,0.03262247611661895,0.03262247611661895
267.004,0.04377837758652925,0.04377837758652925
267.005,0.0537071811142773,0.0537071811142773
267.006,0.060920427894458395,0.060920427894458395
267.007,0.06573877953124452,0.06573877953124452
267.008,0.07001289425015678,0.07001289425015678
267.009,0.0761074258603589,0.0761074258603589
267.01,0.08550585926182919,0.08550585926182919
267.011,0.09757742899723887,0.09757742899723887
267.012,0.10904013063717555,0.10904013063717555
267.013,0.11444349963671274,0.11444349963671274
267.014,0.10764334075529414,0.10764334075529414
267.015,0.08386629834151926,0.08386629834151926
267.016,0.041700157154329176,0.041700157154329176
267.017,0.015700297949837516,-0.015700297949837516
267.018,0.0806995012469447,-0.0806995012469447
267.019,0.14267027258651188,-0.14267027258651188
267.02,0.1905326278949353,-0.1905326278949353
267.021,0.21561529391949485,-0.21561529391949485
267.022,0.2139643709994039,-0.2139643709994039
267.023,0.18736231190002106,-0.18736231190002106
267.024,0.14271145316233913,-0.14271145316233913
267.025,0.0899557961186761,-0.0899557961186761
267.02599999999995,0.039189844264091556,-0.039189844264091556
267.027,0.002128681611358374,0.002128681611358374
267.028,0.030980120021667723,0.030980120021667723
267.029,0.049046738174033155,0.049046738174033155
267.03,0.061405553782175604,0.061405553782175604
267.031,0.07414581979426815,0.07414581979426815
267.032,0.0917660240310092,0.0917660240310092
267.033,0.11526945515820808,0.11526945515820808
267.034,0.1416234006999606,0.1416234006999606
267.035,0.16476245222962582,0.16476245222962582
267.036,0.17776997519061988,0.17776997519061988
267.037,0.17545488315577185,0.17545488315577185
267.03799999999995,0.15640007519176669,0.15640007519176669
267.039,0.1237441437558695,0.1237441437558695
267.04,0.08440419376379027,0.08440419376379027
267.041,0.046997312191649376,0.046997312191649376
267.042,0.01917688007295637,0.01917688007295637
267.043,0.005304992613889947,0.005304992613889947
267.044,0.005261130690953575,0.005261130690953575
267.045,0.014783323308004137,0.014783323308004137
267.046,0.02719556802985701,0.02719556802985701
267.047,0.035887887321093936,0.035887887321093936
267.048,0.03665694368389305,0.03665694368389305
267.049,0.029077315731014908,0.029077315731014908
267.04999999999995,0.016432886214965192,0.016432886214965192
267.051,0.004264002503756803,0.004264002503756803
267.052,0.0019111919946670497,-0.0019111919946670497
267.053,0.0011546410568550325,0.0011546410568550325
267.054,0.013060127640420971,0.013060127640420971
267.055,0.029766294705432683,0.029766294705432683
267.056,0.04500286748113691,0.04500286748113691
267.057,0.05256027638720018,0.05256027638720018
267.058,0.04862695384721594,0.04862695384721594
267.059,0.03330683972403059,0.03330683972403059
267.06,0.010744176393721716,0.010744176393721716
267.061,0.012213197909933138,-0.012213197909933138
267.06199999999995,0.02834745422265783,-0.02834745422265783
267.063,0.03256849950550689,-0.03256849950550689
267.064,0.02367565826391027,-0.02367565826391027
267.065,0.004743449134209099,-0.004743449134209099
267.066,0.018012693194122686,0.018012693194122686
267.067,0.037482585022503345,0.037482585022503345
267.068,0.04820320472057715,0.04820320472057715
267.069,0.04826675290650262,0.04826675290650262
267.07,0.03989075160476019,0.03989075160476019
267.071,0.028431999209825642,0.028431999209825642
267.072,0.02019847155103016,0.02019847155103016
267.073,0.01986433714020608,0.01986433714020608
267.074,0.02845696004525622,0.02845696004525622
267.075,0.042696836851419784,0.042696836851419784
267.076,0.05599386166681808,0.05599386166681808
267.077,0.060803523445976726,0.060803523445976726
267.078,0.051538447551841005,0.051538447551841005
267.079,0.026998282222142622,0.026998282222142622
267.08,0.0085872821178955,-0.0085872821178955
267.081,0.046351386484017154,-0.046351386484017154
267.082,0.07524227780932713,-0.07524227780932713
267.083,0.08538006060601144,-0.08538006060601144
267.084,0.07123357060119784,-0.07123357060119784
267.085,0.033569045023080335,-0.033569045023080335
267.086,0.020486186588736466,0.020486186588736466
267.087,0.07930758295646756,0.07930758295646756
267.088,0.1299799147499079,0.1299799147499079
267.089,0.16183333103754838,0.16183333103754838
267.09,0.16920940611140867,0.16920940611140867
267.091,0.15263638382856293,0.15263638382856293
267.092,0.11813501713219621,0.11813501713219621
267.093,0.07499200494700031,0.07499200494700031
267.094,0.032816327879363616,0.032816327879363616
267.095,0.0011232414891066966,-0.0011232414891066966
267.096,0.023445165783301025,-0.023445165783301025
267.097,0.03469323640200406,-0.03469323640200406
267.098,0.0380255935125875,-0.0380255935125875
267.099,0.037181901804486106,-0.037181901804486106
267.1,0.03457533589299433,-0.03457533589299433
267.101,0.03025817722413804,-0.03025817722413804
267.102,0.0221401682156519,-0.0221401682156519
267.103,0.007338650668606284,-0.007338650668606284
267.104,0.015906281715575954,0.015906281715575954
267.105,0.04654827105341286,0.04654827105341286
267.106,0.08001201122373724,0.08001201122373724
267.107,0.10882184882266532,0.10882184882266532
267.108,0.12448452534457677,0.12448452534457677
267.109,0.1200662168802733,0.1200662168802733
267.11,0.09262936169160962,0.09262936169160962
267.111,0.044703780133938054,0.044703780133938054
267.112,0.01574443361111133,-0.01574443361111133
267.113,0.07691336642999225,-0.07691336642999225
267.114,0.12591105857715057,-0.12591105857715057
267.115,0.15187157669581108,-0.15187157669581108
267.116,0.14856562227284653,-0.14856562227284653
267.117,0.1158025477465241,-0.1158025477465241
267.118,0.059299064969808524,-0.059299064969808524
267.119,0.01085690467330025,0.01085690467330025
267.12,0.08263780479593374,0.08263780479593374
267.121,0.1446979363039862,0.1446979363039862
267.122,0.18851156008783687,0.18851156008783687
267.123,0.20957985967308534,0.20957985967308534
267.124,0.20758346539606554,0.20758346539606554
267.125,0.18566442123570814,0.18566442123570814
267.126,0.1492156561550475,0.1492156561550475
267.127,0.10459298868258626,0.10459298868258626
267.128,0.058061410215997755,0.058061410215997755
267.129,0.01510847204370469,0.01510847204370469
267.13,0.0199145291930386,-0.0199145291930386
267.131,0.04396160989709308,-0.04396160989709308
267.132,0.05540835574302949,-0.05540835574302949
267.133,0.05417150124971415,-0.05417150124971415
267.134,0.04178110349550568,-0.04178110349550568
267.135,0.021283251968450045,-0.021283251968450045
267.136,0.0031427553402634256,0.0031427553402634256
267.137,0.026881592431252432,0.026881592431252432
267.138,0.045789147266779295,0.045789147266779295
267.139,0.05708592779313615,0.05708592779313615
267.14,0.059964467645172714,0.059964467645172714
267.141,0.05569269492506823,0.05569269492506823
267.142,0.047141577661854006,0.047141577661854006
267.143,0.037854767777368625,0.037854767777368625
267.144,0.030940512045057877,0.030940512045057877
267.145,0.028138243664916684,0.028138243664916684
267.146,0.0293622097807944,0.0293622097807944
267.147,0.03286569295862707,0.03286569295862707
267.148,0.03595677929857577,0.03595677929857577
267.149,0.03600669577768678,0.03600669577768678
267.15,0.03139396817428053,0.03139396817428053
267.15099999999995,0.022058203981909053,0.022058203981909053
267.152,0.00948503704330772,0.00948503704330772
267.153,0.0038460011573444586,-0.0038460011573444586
267.154,0.015324185658899037,-0.015324185658899037
267.155,0.02304731813183769,-0.02304731813183769
267.156,0.026324817488066032,-0.026324817488066032
267.157,0.02566906736610297,-0.02566906736610297
267.158,0.022304097580473248,-0.022304097580473248
267.159,0.017412752553047528,-0.017412752553047528
267.16,0.011449980976662055,-0.011449980976662055
267.161,0.0038291329906571248,-0.0038291329906571248
267.162,0.006853890501376636,0.006853890501376636
267.16299999999995,0.022105552859698507,0.022105552859698507
267.164,0.04257867835789675,0.04257867835789675
267.165,0.06724353211077627,0.06724353211077627
267.166,0.09304034314476994,0.09304034314476994
267.167,0.11522287105596951,0.11522287105596951
267.168,0.12837427083014163,0.12837427083014163
267.169,0.12784225953878336,0.12784225953878336
267.17,0.11118082947294683,0.11118082947294683
267.171,0.07915560079807316,0.07915560079807316
267.172,0.03598059932210251,0.03598059932210251
267.173,0.011329764108758189,-0.011329764108758189
267.174,0.054357501699271005,-0.054357501699271005
267.17499999999995,0.08508057267108449,-0.08508057267108449
267.176,0.09762284058564008,-0.09762284058564008
267.177,0.08952583931356128,-0.08952583931356128
267.178,0.062251928739744056,-0.062251928739744056
267.179,0.020833008980143286,-0.020833008980143286
267.18,0.027212578673339483,0.027212578673339483
267.181,0.07341573698381554,0.07341573698381554
267.182,0.10999375552475632,0.10999375552475632
267.183,0.13125440499639707,0.13125440499639707
267.184,0.13451705532362324,0.13451705532362324
267.185,0.12042039014842221,0.12042039014842221
267.186,0.09260867888995694,0.09260867888995694
267.18699999999995,0.056892234509760664,0.056892234509760664
267.188,0.02005377695423438,0.02005377695423438
267.189,0.01147937974444102,-0.01147937974444102
267.19,0.032856073262436,-0.032856073262436
267.191,0.041682351988260535,-0.041682351988260535
267.192,0.03837613862131628,-0.03837613862131628
267.193,0.025897946973602815,-0.025897946973602815
267.194,0.008888474322720774,-0.008888474322720774
267.195,0.007609143403386032,0.007609143403386032
267.196,0.019536131133086387,0.019536131133086387
267.197,0.02494207323230424,0.02494207323230424
267.198,0.02450748975309347,0.02450748975309347
267.199,0.02126861267595581,0.02126861267595581
267.2,0.0195729609642028,0.0195729609642028
267.201,0.023540896096698738,0.023540896096698738
267.202,0.03549645258070089,0.03549645258070089
267.203,0.054887686539476066,0.054887686539476066
267.204,0.07810529287684975,0.07810529287684975
267.205,0.09934547427061502,0.09934547427061502
267.206,0.11232198886771427,0.11232198886771427
267.207,0.11232259173498838,0.11232259173498838
267.208,0.09793792939328894,0.09793792939328894
267.209,0.07183938959001068,0.07183938959001068
267.21,0.04025109566997487,0.04025109566997487
267.211,0.011177799541281175,0.011177799541281175
267.212,0.008116257770197755,-0.008116257770197755
267.213,0.013581287793575036,-0.013581287793575036
267.214,0.005959223139647252,-0.005959223139647252
267.215,0.009151281718849269,0.009151281718849269
267.216,0.02289386436059604,0.02289386436059604
267.217,0.026016371918628156,0.026016371918628156
267.218,0.012134656751337625,0.012134656751337625
267.219,0.01966677910703507,-0.01966677910703507
267.22,0.06382367840704917,-0.06382367840704917
267.221,0.10933943909413224,-0.10933943909413224
267.222,0.1427166367291972,-0.1427166367291972
267.223,0.15197156958013025,-0.15197156958013025
267.224,0.13052849314578185,-0.13052849314578185
267.225,0.0797557682873582,-0.0797557682873582
267.226,0.009267856499461602,-0.009267856499461602
267.227,0.06522556252278822,0.06522556252278822
267.228,0.12598965992815248,0.12598965992815248
267.229,0.15811006497705216,0.15811006497705216
267.23,0.15370040794102002,0.15370040794102002
267.231,0.11422044494082151,0.11422044494082151
267.232,0.050203035807910634,0.050203035807910634
267.233,0.021543579182557893,-0.021543579182557893
267.234,0.0824440105232519,-0.0824440105232519
267.235,0.11706505514422316,-0.11706505514422316
267.236,0.11702460841485218,-0.11702460841485218
267.237,0.08283093546692732,-0.08283093546692732
267.238,0.023226985659814514,-0.023226985659814514
267.239,0.047638277667444884,0.047638277667444884
267.24,0.11427325808154509,0.11427325808154509
267.241,0.16390270764158754,0.16390270764158754
267.242,0.18937481784119115,0.18937481784119115
267.243,0.19020198011945832,0.19020198011945832
267.244,0.17163847314265035,0.17163847314265035
267.245,0.14229424760493448,0.14229424760493448
267.246,0.111171998437396,0.111171998437396
267.247,0.08508879614965426,0.08508879614965426
267.248,0.06720758555902706,0.06720758555902706
267.249,0.05696298027861846,0.05696298027861846
267.25,0.051184007420428834,0.051184007420428834
267.251,0.04585701939674913,0.04585701939674913
267.252,0.03784185488113789,0.03784185488113789
267.253,0.025971980880197476,0.025971980880197476
267.254,0.011265724483467743,0.011265724483467743
267.255,0.003674020009058143,-0.003674020009058143
267.256,0.015721265192084055,-0.015721265192084055
267.257,0.022293124488294014,-0.022293124488294014
267.258,0.022043452958624088,-0.022043452958624088
267.259,0.015017676285739912,-0.015017676285739912
267.26,0.0023462456131181364,-0.0023462456131181364
267.261,0.014272191857267691,0.014272191857267691
267.262,0.03300850710741243,0.03300850710741243
267.263,0.05207306883761209,0.05207306883761209
267.264,0.06961299162603463,0.06961299162603463
267.265,0.08350771827783499,0.08350771827783499
267.266,0.09131719451255083,0.09131719451255083
267.267,0.09058370148398609,0.09058370148398609
267.268,0.07951643041930034,0.07951643041930034
267.269,0.0578698505080133,0.0578698505080133
267.27,0.02766154855821168,0.02766154855821168
267.271,0.00665380844930219,-0.00665380844930219
267.272,0.03879833473671601,-0.03879833473671601
267.273,0.062045471552437226,-0.062045471552437226
267.274,0.07102105482257581,-0.07102105482257581
267.275,0.06337431402022498,-0.06337431402022498
267.27599999999995,0.040723391509524864,-0.040723391509524864
267.277,0.008461365122897968,-0.008461365122897968
267.278,0.02563474684548983,0.02563474684548983
267.279,0.053633868570103216,0.053633868570103216
267.28,0.06983491005024955,0.06983491005024955
267.281,0.07250994365235974,0.07250994365235974
267.282,0.06437506208513688,0.06437506208513688
267.283,0.0515569702039167,0.0515569702039167
267.284,0.04133303121156251,0.04133303121156251
267.285,0.03936885470642615,0.03936885470642615
267.286,0.04739891754475023,0.04739891754475023
267.287,0.06220058922307525,0.06220058922307525
267.28799999999995,0.07631495805440847,0.07631495805440847
267.289,0.0803900441593608,0.0803900441593608
267.29,0.06645336289577375,0.06645336289577375
267.291,0.031057309515292397,0.031057309515292397
267.292,0.022783263960364675,-0.022783263960364675
267.293,0.0856026940366279,-0.0856026940366279
267.294,0.14358290891365544,-0.14358290891365544
267.295,0.18219931393382993,-0.18219931393382993
267.296,0.19034778598267055,-0.19034778598267055
267.297,0.16368826503355938,-0.16368826503355938
267.298,0.10614575626742428,-0.10614575626742428
267.299,0.029060875655092966,-0.029060875655092966
267.29999999999995,0.051793359659163096,0.051793359659163096
267.301,0.12044636822190591,0.12044636822190591
267.302,0.16494380691492472,0.16494380691492472
267.303,0.18027965745295882,0.18027965745295882
267.304,0.16919722140180404,0.16919722140180404
267.305,0.14068687765415344,0.14068687765415344
267.306,0.10673178015883567,0.10673178015883567
267.307,0.07838827850100327,0.07838827850100327
267.308,0.062464847834415194,0.062464847834415194
267.309,0.0598295466546348,0.0598295466546348
267.31,0.06581420452588693,0.06581420452588693
267.311,0.07248274869812121,0.07248274869812121
267.31199999999995,0.0719232780670056,0.0719232780670056
267.313,0.059406584506802806,0.059406584506802806
267.314,0.03532683637428846,0.03532683637428846
267.315,0.0052719724680512225,0.0052719724680512225
267.316,0.021787021377805194,-0.021787021377805194
267.317,0.03656327094210854,-0.03656327094210854
267.318,0.032733916755662174,-0.032733916755662174
267.319,0.009322020435267864,-0.009322020435267864
267.32,0.02862831485561612,0.02862831485561612
267.321,0.07132639749413583,0.07132639749413583
267.322,0.10706187232858078,0.10706187232858078
267.323,0.1256843595631696,0.1256843595631696
267.324,0.12163278359062457,0.12163278359062457
267.325,0.09556831923462461,0.09556831923462461
267.326,0.054123693385332405,0.054123693385332405
267.327,0.007886523334233564,0.007886523334233564
267.328,0.03171423271589946,-0.03171423271589946
267.329,0.05562878784407277,-0.05562878784407277
267.33,0.05953053746578718,-0.05953053746578718
267.331,0.044620777559564506,-0.044620777559564506
267.332,0.01675064794004888,-0.01675064794004888
267.333,0.015742215169027185,0.015742215169027185
267.334,0.0447002978724107,0.0447002978724107
267.335,0.06442611608790427,0.06442611608790427
267.336,0.07287800676845024,0.07287800676845024
267.337,0.07150013175085745,0.07150013175085745
267.338,0.06389398883305875,0.06389398883305875
267.339,0.05393088144326863,0.05393088144326863
267.34,0.044067993451499365,0.044067993451499365
267.341,0.03451473673991079,0.03451473673991079
267.342,0.02354819699497912,0.02354819699497912
267.343,0.008823979842698337,0.008823979842698337
267.344,0.010865880006805773,-0.010865880006805773
267.345,0.034131149115070314,-0.034131149115070314
267.346,0.05648353164856035,-0.05648353164856035
267.347,0.07113661277763283,-0.07113661277763283
267.348,0.07097459815754814,-0.07097459815754814
267.349,0.05110935675457151,-0.05110935675457151
267.35,0.011173019524019834,-0.011173019524019834
267.351,0.04349979865394693,0.04349979865394693
267.352,0.10234944494861109,0.10234944494861109
267.353,0.15177683945664833,0.15177683945664833
267.354,0.1785365849633076,0.1785365849633076
267.355,0.1734157359194659,0.1734157359194659
267.356,0.13412337022990872,0.13412337022990872
267.357,0.06648954482433145,0.06648954482433145
267.358,0.016471334829024742,-0.016471334829024742
267.359,0.09747105939605738,-0.09747105939605738
267.36,0.15909506391813644,-0.15909506391813644
267.361,0.18807976477664123,-0.18807976477664123
267.362,0.17856082037932275,-0.17856082037932275
267.363,0.1334161986092004,-0.1334161986092004
267.364,0.06336158102734313,-0.06336158102734313
267.365,0.01591832379860514,0.01591832379860514
267.366,0.08778445944127222,0.08778445944127222
267.367,0.13869643462543157,0.13869643462543157
267.368,0.16122899274297375,0.16122899274297375
267.369,0.15531210617832558,0.15531210617832558
267.37,0.12748352488971237,0.12748352488971237
267.371,0.08850326391312135,0.08850326391312135
267.372,0.050108119238037485,0.050108119238037485
267.373,0.021863801957280993,0.021863801957280993
267.374,0.008965670756521549,0.008965670756521549
267.375,0.011496477417807682,0.011496477417807682
267.376,0.025188390750746636,0.025188390750746636
267.377,0.0433018418875748,0.0433018418875748
267.378,0.05895216370562828,0.05895216370562828
267.379,0.06715744652348365,0.06715744652348365
267.38,0.06604464244249852,0.06604464244249852
267.381,0.056965489993183516,0.056965489993183516
267.382,0.04362879799475272,0.04362879799475272
267.383,0.030638151685234094,0.030638151685234094
267.384,0.021954756448339996,0.021954756448339996
267.385,0.019760210156609448,0.019760210156609448
267.386,0.024007957255858026,0.024007957255858026
267.387,0.03270090733518183,0.03270090733518183
267.388,0.04270455384190264,0.04270455384190264
267.389,0.050770235339803405,0.050770235339803405
267.39,0.05443264210298171,0.05443264210298171
267.391,0.05254433117500179,0.05254433117500179
267.392,0.04536764869491772,0.04536764869491772
267.393,0.03429736605776079,0.03429736605776079
267.394,0.021382818032077866,0.021382818032077866
267.395,0.008832754324983538,0.008832754324983538
267.396,0.001369628314889848,-0.001369628314889848
267.397,0.00770278298007343,-0.00770278298007343
267.398,0.009231671113922979,-0.009231671113922979
267.399,0.00568896586036971,-0.00568896586036971
267.4,0.0024447128587368194,0.0024447128587368194
267.40099999999995,0.01387918565400903,0.01387918565400903
267.402,0.02654760550228885,0.02654760550228885
267.403,0.03782780458482016,0.03782780458482016
267.404,0.04500359878620919,0.04500359878620919
267.405,0.04592290313533964,0.04592290313533964
267.406,0.039698515566011006,0.039698515566011006
267.407,0.027220144520899936,0.027220144520899936
267.408,0.011246316134079004,0.011246316134079004
267.409,0.004060434266551782,-0.004060434266551782
267.41,0.01412188871454434,-0.01412188871454434
267.411,0.015231372502033658,-0.015231372502033658
267.412,0.005772050350613123,-0.005772050350613123
267.41299999999995,0.01303574369813143,0.01303574369813143
267.414,0.0371580585192095,0.0371580585192095
267.415,0.06062321449817265,0.06062321449817265
267.416,0.07706115922879153,0.07706115922879153
267.417,0.08148454502024438,0.08148454502024438
267.418,0.07177813461739513,0.07177813461739513
267.419,0.049420422852362034,0.049420422852362034
267.42,0.019179653902944516,0.019179653902944516
267.421,0.01215857839385548,-0.01215857839385548
267.422,0.037664544121224885,-0.037664544121224885
267.423,0.05216973564092875,-0.05216973564092875
267.424,0.05361576618189445,-0.05361576618189445
267.42499999999995,0.043431797746535716,-0.043431797746535716
267.426,0.025839064767800735,-0.025839064767800735
267.427,0.006331520747542174,-0.006331520747542174
267.428,0.01014932094066534,0.01014932094066534
267.429,0.020732401753331464,0.020732401753331464
267.43,0.025328594077463018,0.025328594077463018
267.431,0.026320804176975354,0.026320804176975354
267.432,0.027375974698505168,0.027375974698505168
267.433,0.031829507077763886,0.031829507077763886
267.434,0.04124091072420577,0.04124091072420577
267.435,0.054655360601429503,0.054655360601429503
267.436,0.06885024257410466,0.06885024257410466
267.43699999999995,0.07948775457020796,0.07948775457020796
267.438,0.08276088748609145,0.08276088748609145
267.439,0.07693050938116386,0.07693050938116386
267.44,0.06317614049346743,0.06317614049346743
267.441,0.04541723732445324,0.04541723732445324
267.442,0.02912542273666574,0.02912542273666574
267.443,0.01951345388525616,0.01951345388525616
267.444,0.019723138080305125,0.019723138080305125
267.445,0.02965468864262455,0.02965468864262455
267.446,0.04587224537446466,0.04587224537446466
267.447,0.06265340660483143,0.06265340660483143
267.448,0.07385133313147141,0.07385133313147141
267.449,0.07494676080801765,0.07494676080801765
267.45,0.06458876072358244,0.06458876072358244
267.451,0.04508852852814149,0.04508852852814149
267.452,0.021685477301656153,0.021685477301656153
267.453,0.0008274585796419487,0.0008274585796419487
267.454,0.01195036241056835,-0.01195036241056835
267.455,0.013821679175265222,-0.013821679175265222
267.456,0.005524803977897563,-0.005524803977897563
267.457,0.009010759839139348,0.009010759839139348
267.458,0.02412637081467639,0.02412637081467639
267.459,0.03446282447052984,0.03446282447052984
267.46,0.03683453879973331,0.03683453879973331
267.461,0.031283938355318286,0.031283938355318286
267.462,0.02094270927148978,0.02094270927148978
267.463,0.010753598922992547,0.010753598922992547
267.464,0.005517828377294531,0.005517828377294531
267.465,0.007982311193142966,0.007982311193142966
267.466,0.017676848826089442,0.017676848826089442
267.467,0.030952003178831733,0.030952003178831733
267.468,0.04224164362194793,0.04224164362194793
267.469,0.04612902393976803,0.04612902393976803
267.47,0.03948945814137539,0.03948945814137539
267.471,0.022927678066512414,0.022927678066512414
267.472,0.000949102181725614,0.000949102181725614
267.473,0.019269395575155168,-0.019269395575155168
267.474,0.030155940649941648,-0.030155940649941648
267.475,0.0263330045738821,-0.0263330045738821
267.476,0.006645184625165168,-0.006645184625165168
267.477,0.02509429009399966,0.02509429009399966
267.478,0.0609542732477637,0.0609542732477637
267.479,0.09112797072329615,0.09112797072329615
267.48,0.10689437840033267,0.10689437840033267
267.481,0.10337102825458411,0.10337102825458411
267.482,0.08117335216917887,0.08117335216917887
267.483,0.04642684786142737,0.04642684786142737
267.484,0.00909116855994152,0.00909116855994152
267.485,0.019914913269620582,-0.019914913269620582
267.486,0.03192204176621671,-0.03192204176621671
267.487,0.023082425481103397,-0.023082425481103397
267.488,0.004465790485279175,0.004465790485279175
267.489,0.043178919108383784,0.043178919108383784
267.49,0.08224002528497376,0.08224002528497376
267.491,0.11059194684190166,0.11059194684190166
267.492,0.11997249250005493,0.11997249250005493
267.493,0.10708509177104153,0.10708509177104153
267.494,0.07432752990503255,0.07432752990503255
267.495,0.028947586926714175,0.028947586926714175
267.496,0.019046532235850955,-0.019046532235850955
267.497,0.059560526108746514,-0.059560526108746514
267.498,0.08489780107468481,-0.08489780107468481
267.499,0.0913979894668886,-0.0913979894668886
267.5,0.0798751714643341,-0.0798751714643341
267.501,0.05487343883206841,-0.05487343883206841
267.502,0.023084223370286483,-0.023084223370286483
267.503,0.008541849255798484,0.008541849255798484
267.504,0.03444568247581836,0.03444568247581836
267.505,0.0514781346383435,0.0514781346383435
267.506,0.059130852137534884,0.059130852137534884
267.507,0.05906922154236338,0.05906922154236338
267.508,0.05423232282866253,0.05423232282866253
267.509,0.04782876069576503,0.04782876069576503
267.51,0.04251134267602552,0.04251134267602552
267.511,0.03989461171423736,0.03989461171423736
267.512,0.040441261889497815,0.040441261889497815
267.513,0.04363589138045221,0.04363589138045221
267.514,0.048315321697721236,0.048315321697721236
267.515,0.05303398458157971,0.05303398458157971
267.516,0.056388275956552825,0.056388275956552825
267.517,0.057273788287026894,0.057273788287026894
267.518,0.055078486946934735,0.055078486946934735
267.519,0.04981431815227699,0.04981431815227699
267.52,0.042169089532293924,0.042169089532293924
267.521,0.033441150968888333,0.033441150968888333
267.522,0.025322576622006432,0.025322576622006432
267.523,0.019531543941135876,0.019531543941135876
267.524,0.01735301912357512,0.01735301912357512
267.525,0.019204988355844943,0.019204988355844943
267.52599999999995,0.02437619587974904,0.02437619587974904
267.527,0.03105930434167159,0.03105930434167159
267.528,0.0367278497820791,0.0367278497820791
267.529,0.038795944105921354,0.038795944105921354
267.53,0.035392925584389445,0.035392925584389445
267.531,0.026021633928743126,0.026021633928743126
267.532,0.011877662120279187,0.011877662120279187
267.533,0.004307063375292408,-0.004307063375292408
267.534,0.018892352824676495,-0.018892352824676495
267.535,0.028274213263552506,-0.028274213263552506
267.536,0.029879510622731864,-0.029879510622731864
267.537,0.022913840319415013,-0.022913840319415013
267.53799999999995,0.008629094084767752,-0.008629094084767752
267.539,0.009982375735688276,0.009982375735688276
267.54,0.02898649854123292,0.02898649854123292
267.541,0.04456754000638741,0.04456754000638741
267.542,0.05403810659576691,0.05403810659576691
267.543,0.05650482136025281,0.05650482136025281
267.544,0.05300310972566402,0.05300310972566402
267.545,0.04607740485380152,0.04607740485380152
267.546,0.03894869529772471,0.03894869529772471
267.547,0.03452806110540263,0.03452806110540263
267.548,0.034568669771986915,0.034568669771986915
267.549,0.03919349200077793,0.03919349200077793
267.54999999999995,0.0469139277078765,0.0469139277078765
267.551,0.0551071143782802,0.0551071143782802
267.552,0.06079298268477884,0.06079298268477884
267.553,0.0614816129281075,0.0614816129281075
267.554,0.055861770720968984,0.055861770720968984
267.555,0.04416414619122566,0.04416414619122566
267.556,0.028131783279086164,0.028131783279086164
267.557,0.010632772143341684,0.010632772143341684
267.558,0.004971384497635234,-0.004971384497635234
267.559,0.015549297551681995,-0.015549297551681995
267.56,0.018863194522781068,-0.018863194522781068
267.561,0.014049694526527823,-0.014049694526527823
267.56199999999995,0.0018382644114187663,-0.0018382644114187663
267.563,0.015527002831233094,0.015527002831233094
267.564,0.0346543722945567,0.0346543722945567
267.565,0.051612192669262535,0.051612192669262535
267.566,0.06268916861192553,0.06268916861192553
267.567,0.06518037109631303,0.06518037109631303
267.568,0.058043627898743066,0.058043627898743066
267.569,0.042266457407950764,0.042266457407950764
267.57,0.020816998866136638,0.020816998866136638
267.571,0.001871123419184717,-0.001871123419184717
267.572,0.020819690800232715,-0.020819690800232715
267.573,0.03165340278022233,-0.03165340278022233
267.574,0.03170373993967057,-0.03170373993967057
267.575,0.020770949038697695,-0.020770949038697695
267.576,0.0013024465818919362,-0.0013024465818919362
267.577,0.022116621741737896,0.022116621741737896
267.578,0.04387809552073785,0.04387809552073785
267.579,0.05880470062932863,0.05880470062932863
267.58,0.06355532964423327,0.06355532964423327
267.581,0.05757884818690506,0.05757884818690506
267.582,0.0433197418657878,0.0433197418657878
267.583,0.025582697129184595,0.025582697129184595
267.584,0.010207519403719001,0.010207519403719001
267.585,0.0024165747876860877,0.0024165747876860877
267.586,0.0053065623884496205,0.0053065623884496205
267.587,0.018926312481230667,0.018926312481230667
267.588,0.04021700004312989,0.04021700004312989
267.589,0.06383854384407717,0.06383854384407717
267.59,0.08364302031036663,0.08364302031036663
267.591,0.09436440661580092,0.09436440661580092
267.592,0.09303385893347405,0.09303385893347405
267.593,0.07971946684803277,0.07971946684803277
267.594,0.05739966100755001,0.05739966100755001
267.595,0.031042628936637007,0.031042628936637007
267.596,0.006196683692337057,0.006196683692337057
267.597,0.012473517802343292,-0.012473517802343292
267.598,0.022279888515868707,-0.022279888515868707
267.599,0.022948556965746048,-0.022948556965746048
267.6,0.01633808329674402,-0.01633808329674402
267.601,0.005599057103220506,-0.005599057103220506
267.602,0.005907280560092598,0.005907280560092598
267.603,0.0155716096268661,0.0155716096268661
267.604,0.02209876206518091,0.02209876206518091
267.605,0.025551535439502837,0.025551535439502837
267.606,0.026944746839461242,0.026944746839461242
267.607,0.02760230147245335,0.02760230147245335
267.608,0.02854493923047685,0.02854493923047685
267.609,0.030130065399916806,0.030130065399916806
267.61,0.03204280387967828,0.03204280387967828
267.611,0.033590242924068425,0.033590242924068425
267.612,0.03413580847289199,0.03413580847289199
267.613,0.03346934956557712,0.03346934956557712
267.614,0.03195207809450151,0.03195207809450151
267.615,0.03038189984024786,0.03038189984024786
267.616,0.02964824152847023,0.02964824152847023
267.617,0.030335391261336442,0.030335391261336442
267.618,0.03245363260765455,0.03245363260765455
267.619,0.03542082090612064,0.03542082090612064
267.62,0.03830758794669431,0.03830758794669431
267.621,0.04024272432674891,0.04024272432674891
267.622,0.04080050478563968,0.04080050478563968
267.623,0.0401915035388567,0.0401915035388567
267.624,0.03915568968233507,0.03915568968233507
267.625,0.03858240712853389,0.03858240712853389
267.626,0.03900611099002238,0.03900611099002238
267.627,0.04019737949939706,0.04019737949939706
267.628,0.041052461804122364,0.041052461804122364
267.629,0.039881172792183506,0.039881172792183506
267.63,0.03503697489417368,0.03503697489417368
267.631,0.02568267030957405,0.02568267030957405
267.632,0.012400566996693785,0.012400566996693785
267.633,0.0026233655776909393,-0.0026233655776909393
267.634,0.01598401928246851,-0.01598401928246851
267.635,0.023956722159199417,-0.023956722159199417
267.636,0.02366093044554929,-0.02366093044554929
267.637,0.014111780705609145,-0.014111780705609145
267.638,0.0032181568088369694,0.0032181568088369694
267.639,0.02457152369566118,0.02457152369566118
267.64,0.044827492623369825,0.044827492623369825
267.641,0.058932772290906765,0.058932772290906765
267.642,0.06341410185799834,0.06341410185799834
267.643,0.057488371978493547,0.057488371978493547
267.644,0.04339103485676543,0.04339103485676543
267.645,0.025780684622534134,0.025780684622534134
267.646,0.010373192566439648,0.010373192566439648
267.647,0.0022151528459237735,0.0022151528459237735
267.648,0.004135963802249565,0.004135963802249565
267.649,0.015873164218850544,0.015873164218850544
267.65,0.03415686169090004,0.03415686169090004
267.65099999999995,0.053732189150112575,0.053732189150112575
267.652,0.06899428616017,0.06899428616017
267.653,0.07571002338204869,0.07571002338204869
267.654,0.07227280401981417,0.07227280401981417
267.655,0.06009227226460445,0.06009227226460445
267.656,0.04300878398763608,0.04300878398763608
267.657,0.02594684932602398,0.02594684932602398
267.658,0.013273127550893493,0.013273127550893493
267.659,0.007417649585368613,0.007417649585368613
267.66,0.00821983815512528,0.00821983815512528
267.661,0.013206420502282823,0.013206420502282823
267.662,0.018683379179928794,0.018683379179928794
267.66299999999995,0.021240279954023444,0.021240279954023444
267.664,0.019120876017507227,0.019120876017507227
267.665,0.012959758027324186,0.012959758027324186
267.666,0.005606688758997391,0.005606688758997391
267.667,0.0010828363341697234,0.0010828363341697234
267.668,0.0030254019059796633,0.0030254019059796633
267.669,0.013170234616830312,0.013170234616830312
267.67,0.03042665729364291,0.03042665729364291
267.671,0.05090955203980707,0.05090955203980707
267.672,0.06897207430664931,0.06897207430664931
267.673,0.07893603365458901,0.07893603365458901
267.674,0.0769641976318125,0.0769641976318125
267.67499999999995,0.0624479315167501,0.0624479315167501
267.676,0.03842281350050469,0.03842281350050469
267.677,0.010831724203088866,0.010831724203088866
267.678,0.013170129916395101,-0.013170129916395101
267.679,0.027354492268097608,-0.027354492268097608
267.68,0.028332917709421812,-0.028332917709421812
267.681,0.016631789603645086,-0.016631789603645086
267.682,0.0034236493541661694,0.0034236493541661694
267.683,0.024994958469434447,0.024994958469434447
267.684,0.04079512862503809,0.04079512862503809
267.685,0.045296438859094845,0.045296438859094845
267.686,0.03640354273168955,0.03640354273168955
267.68699999999995,0.01608612673831633,0.01608612673831633
267.688,0.010205474029989836,-0.010205474029989836
267.689,0.03514029710256039,-0.03514029710256039
267.69,0.05161547592754656,-0.05161547592754656
267.691,0.05472888296387812,-0.05472888296387812
267.692,0.043039116796674604,-0.043039116796674604
267.693,0.018781045063508972,-0.018781045063508972
267.694,0.012959076956966298,0.012959076956966298
267.695,0.045789642215682935,0.045789642215682935
267.696,0.0737667122483634,0.0737667122483634
267.697,0.09282073037491978,0.09282073037491978
267.698,0.10147488202343546,0.10147488202343546
267.699,0.10073314068610362,0.10073314068610362
267.7,0.09329091721012861,0.09329091721012861
267.701,0.08241807211226115,0.08241807211226115
267.702,0.07092305350167005,0.07092305350167005
267.703,0.06052020639415767,0.06052020639415767
267.704,0.05173369315870846,0.05173369315870846
267.705,0.044257949014324005,0.044257949014324005
267.706,0.03753664839062498,0.03753664839062498
267.707,0.03127407093842449,0.03127407093842449
267.708,0.025663739047175227,0.025663739047175227
267.709,0.02127192212345541,0.02127192212345541
267.71,0.018680333558880546,0.018680333558880546
267.711,0.01810231009283636,0.01810231009283636
267.712,0.019194246944534754,0.019194246944534754
267.713,0.02118653623718969,0.02118653623718969
267.714,0.02329755133737632,0.02329755133737632
267.715,0.02524016182619948,0.02524016182619948
267.716,0.02755283811379816,0.02755283811379816
267.717,0.03152799930903072,0.03152799930903072
267.718,0.03866314493441725,0.03866314493441725
267.719,0.04977194540756136,0.04977194540756136
267.72,0.06407965524764636,0.06407965524764636
267.721,0.07870807520039125,0.07870807520039125
267.722,0.08888180909636212,0.08888180909636212
267.723,0.08896741301497446,0.08896741301497446
267.724,0.07415575920195328,0.07415575920195328
267.725,0.04231940876172113,0.04231940876172113
267.726,0.0045721597370166345,-0.0045721597370166345
267.727,0.06004537485326711,-0.06004537485326711
267.728,0.1140324624715302,-0.1140324624715302
267.729,0.15501206832965075,-0.15501206832965075
267.73,0.17288243636371758,-0.17288243636371758
267.731,0.1617788079999598,-0.1617788079999598
267.732,0.12198593530198865,-0.12198593530198865
267.733,0.06030343571533825,-0.06030343571533825
267.734,0.011352423344750173,0.011352423344750173
267.735,0.07880601622399808,0.07880601622399808
267.736,0.12918012978522486,0.12918012978522486
267.737,0.15415606139458982,0.15415606139458982
267.738,0.15199720148268736,0.15199720148268736
267.739,0.1277463628902502,0.1277463628902502
267.74,0.09154367381918105,0.09154367381918105
267.741,0.05557118393555238,0.05557118393555238
267.742,0.030537649391989774,0.030537649391989774
267.743,0.022743845093493587,0.022743845093493587
267.744,0.03257525821303431,0.03257525821303431
267.745,0.05481721457530564,0.05481721457530564
267.746,0.0806216734478431,0.0806216734478431
267.747,0.10045483790011245,0.10045483790011245
267.748,0.1070771752951658,0.1070771752951658
267.749,0.09763563764569949,0.09763563764569949
267.75,0.07426524336413465,0.07426524336413465
267.751,0.043094217534796364,0.043094217534796364
267.752,0.01205847829631801,0.01205847829631801
267.753,0.011708168453642198,-0.011708168453642198
267.754,0.024043880645166715,-0.024043880645166715
267.755,0.02481155161277404,-0.02481155161277404
267.756,0.01755739865191608,-0.01755739865191608
267.757,0.007971202146291878,-0.007971202146291878
267.758,0.0017305456299477884,-0.0017305456299477884
267.759,0.0024866092637869652,-0.0024866092637869652
267.76,0.01066325152773362,-0.01066325152773362
267.761,0.02343401354053687,-0.02343401354053687
267.762,0.035826062333245035,-0.035826062333245035
267.763,0.04252104912863175,-0.04252104912863175
267.764,0.03970737884077302,-0.03970737884077302
267.765,0.026352674886452765,-0.026352674886452765
267.766,0.00449424597460657,-0.00449424597460657
267.767,0.021499022408078883,0.021499022408078883
267.768,0.04638588795157128,0.04638588795157128
267.769,0.06569551377408134,0.06569551377408134
267.77,0.07698429906984572,0.07698429906984572
267.771,0.08030564900115911,0.08030564900115911
267.772,0.07779191320665224,0.07779191320665224
267.773,0.07256809933289876,0.07256809933289876
267.774,0.06744267640345458,0.06744267640345458
267.775,0.06387515399929988,0.06387515399929988
267.77599999999995,0.061590484285462654,0.061590484285462654
267.777,0.05895046555529082,0.05895046555529082
267.778,0.05390117812252582,0.05390117812252582
267.779,0.045100362969380914,0.045100362969380914
267.78,0.0327664154074061,0.0327664154074061
267.781,0.01890081626626161,0.01890081626626161
267.782,0.006774857009006041,0.006774857009006041
267.783,0.00014999507654522848,-0.00014999507654522848
267.784,0.0005170344963347784,0.0005170344963347784
267.785,0.009114242370520609,0.009114242370520609
267.786,0.02359358844912851,0.02359358844912851
267.787,0.03997955487530591,0.03997955487530591
267.78799999999995,0.053489803685519366,0.053489803685519366
267.789,0.059957307994338516,0.059957307994338516
267.79,0.05709036650561239,0.05709036650561239
267.791,0.0451636126445456,0.0451636126445456
267.792,0.026926798437381105,0.026926798437381105
267.793,0.006778601960023778,0.006778601960023778
267.794,0.010511250509176118,-0.010511250509176118
267.795,0.02111616525631199,-0.02111616525631199
267.796,0.023099955678334894,-0.023099955678334894
267.797,0.016738937580295654,-0.016738937580295654
267.798,0.004181248994108322,-0.004181248994108322
267.799,0.011378078853667928,0.011378078853667928
267.79999999999995,0.02669017154601727,0.02669017154601727
267.801,0.03927992676471481,0.03927992676471481
267.802,0.047873600726733745,0.047873600726733745
267.803,0.05236188342127246,0.05236188342127246
267.804,0.053407451870891576,0.053407451870891576
267.805,0.05191872815617349,0.05191872815617349
267.806,0.04862675846109199,0.04862675846109199
267.807,0.04392249773781942,0.04392249773781942
267.808,0.03797640515435674,0.03797640515435674
267.809,0.031029694283742915,0.031029694283742915
267.81,0.023671260959770235,0.023671260959770235
267.811,0.016925321877590882,0.016925321877590882
267.81199999999995,0.01206520546687262,0.01206520546687262
267.813,0.010199228003298089,0.010199228003298089
267.814,0.011789713962357729,0.011789713962357729
267.815,0.016316731193403156,0.016316731193403156
267.816,0.022260624859707034,0.022260624859707034
267.817,0.027463831257627414,0.027463831257627414
267.818,0.02978545446121994,0.02978545446121994
267.819,0.027838788794250835,0.027838788794250835
267.82,0.021551727500922935,0.021551727500922935
267.821,0.012335211413606606,0.012335211413606606
267.822,0.00277201060468224,0.00277201060468224
267.823,0.004097549062229255,-0.004097549062229255
267.824,0.005674175200198528,-0.005674175200198528
267.825,0.0005956826555629791,-0.0005956826555629791
267.826,0.010825339008043056,0.010825339008043056
267.827,0.026659239469425833,0.026659239469425833
267.828,0.04388529389339757,0.04388529389339757
267.829,0.05920806317528471,0.05920806317528471
267.83,0.06990114814338955,0.06990114814338955
267.831,0.07442324099866693,0.07442324099866693
267.832,0.07264497632629285,0.07264497632629285
267.833,0.06566639762591597,0.06566639762591597
267.834,0.055340328136228356,0.055340328136228356
267.835,0.04369809864201568,0.04369809864201568
267.836,0.032475654396172615,0.032475654396172615
267.837,0.02286659190184448,0.02286659190184448
267.838,0.01551862359205125,0.01551862359205125
267.839,0.010688952982703448,0.010688952982703448
267.84,0.008423260132438548,0.008423260132438548
267.841,0.008640627740213569,0.008640627740213569
267.842,0.01108094778236035,0.01108094778236035
267.843,0.015165661224521676,0.015165661224521676
267.844,0.019891573937911522,0.019891573937911522
267.845,0.02388592969577874,0.02388592969577874
267.846,0.025689920741021277,0.025689920741021277
267.847,0.024229514681315845,0.024229514681315845
267.848,0.019322321397125863,0.019322321397125863
267.849,0.012007990624406606,0.012007990624406606
267.85,0.004512169923234,0.004512169923234
267.851,0.00023674728265410394,-0.00023674728265410394
267.852,0.0005438809086060203,0.0005438809086060203
267.853,0.008516537757953913,0.008516537757953913
267.854,0.023451221394398925,0.023451221394398925
267.855,0.042959985989097005,0.042959985989097005
267.856,0.06290373311046848,0.06290373311046848
267.857,0.07842043112234709,0.07842043112234709
267.858,0.08530267051524887,0.08530267051524887
267.859,0.0813058050795945,0.0813058050795945
267.86,0.0669545793535089,0.0669545793535089
267.861,0.0455509150351483,0.0455509150351483
267.862,0.02233126434873678,0.02233126434873678
267.863,0.002999924480978189,0.002999924480978189
267.864,0.007919359274958904,-0.007919359274958904
267.865,0.00839444582486193,-0.00839444582486193
267.866,0.0005660428542535456,0.0005660428542535456
267.867,0.01531034561102751,0.01531034561102751
267.868,0.030765115404022048,0.030765115404022048
267.869,0.04208497459952021,0.04208497459952021
267.87,0.04618917058020644,0.04618917058020644
267.871,0.04267908843286028,0.04267908843286028
267.872,0.03383566432433338,0.03383566432433338
267.873,0.02370419960852499,0.02370419960852499
267.874,0.01658217816260632,0.01658217816260632
267.875,0.015428986459910865,0.015428986459910865
267.876,0.020745330831777986,0.020745330831777986
267.877,0.03031391173575182,0.03031391173575182
267.878,0.039903571973470386,0.039903571973470386
267.879,0.044713825810004826,0.044713825810004826
267.88,0.041084619582587134,0.041084619582587134
267.881,0.027901641609164196,0.027901641609164196
267.882,0.007221523421732767,0.007221523421732767
267.883,0.016108282542698915,-0.016108282542698915
267.884,0.035737024526825256,-0.035737024526825256
267.885,0.04561829407400053,-0.04561829407400053
267.886,0.04178825016464893,-0.04178825016464893
267.887,0.023579182561820566,-0.023579182561820566
267.888,0.00608547521058922,0.00608547521058922
267.889,0.041383541795643186,0.041383541795643186
267.89,0.07504836123788583,0.07504836123788583
267.891,0.10014857807901234,0.10014857807901234
267.892,0.11169079055333198,0.11169079055333198
267.893,0.107631701729058,0.107631701729058
267.894,0.08909134081823611,0.08909134081823611
267.895,0.0598056235256863,0.0598056235256863
267.896,0.025063763294495223,0.025063763294495223
267.897,0.009517040907112362,-0.009517040907112362
267.898,0.03904252749128223,-0.03904252749128223
267.899,0.05999735369285719,-0.05999735369285719
267.9,0.07045073543507674,-0.07045073543507674
267.90099999999995,0.06990705955082532,-0.06990705955082532
267.902,0.058982816514578595,-0.058982816514578595
267.903,0.03909174568486573,-0.03909174568486573
267.904,0.01224839675799927,-0.01224839675799927
267.905,0.019004449460108264,0.019004449460108264
267.906,0.051628900239780506,0.051628900239780506
267.907,0.08220718653884096,0.08220718653884096
267.908,0.10723147761121754,0.10723147761121754
267.909,0.12357966953449262,0.12357966953449262
267.91,0.12909079639349264,0.12909079639349264
267.911,0.12308086104669536,0.12308086104669536
267.912,0.10662344229155063,0.10662344229155063
267.91299999999995,0.08246901581671007,0.08246901581671007
267.914,0.05457707777507226,0.05457707777507226
267.915,0.027351668691753206,0.027351668691753206
267.916,0.0047637310579580205,0.0047637310579580205
267.917,0.01041844458513086,-0.01041844458513086
267.918,0.017098571165722,-0.017098571165722
267.919,0.01591479797553852,-0.01591479797553852
267.92,0.008901667668517965,-0.008901667668517965
267.921,0.001136653542747501,0.001136653542747501
267.922,0.011363159714504967,0.011363159714504967
267.923,0.01956346189822411,0.01956346189822411
267.924,0.02456825686052011,0.02456825686052011
267.92499999999995,0.026365977268085317,0.026365977268085317
267.926,0.02591395352554904,0.02591395352554904
267.927,0.024728217175899347,0.024728217175899347
267.928,0.02437477426386403,0.02437477426386403
267.929,0.025993800850868665,0.025993800850868665
267.93,0.02996720280367504,0.02996720280367504
267.931,0.03579917947075617,0.03579917947075617
267.932,0.04222968878810773,0.04222968878810773
267.933,0.04755106810849696,0.04755106810849696
267.934,0.0500552247529642,0.0500552247529642
267.935,0.048508273378118805,0.048508273378118805
267.936,0.042536787862033076,0.042536787862033076
267.93699999999995,0.03282031438536759,0.03282031438536759
267.938,0.021021498555494844,0.021021498555494844
267.939,0.009445521070504004,0.009445521070504004
267.94,0.0004937386743180117,0.0004937386743180117
267.941,0.003956191787156227,-0.003956191787156227
267.942,0.003072244832500459,-0.003072244832500459
267.943,0.0026718437977053533,0.0026718437977053533
267.944,0.01160116099758568,0.01160116099758568
267.945,0.021308546936860573,0.021308546936860573
267.946,0.029370186576221258,0.029370186576221258
267.947,0.034097170927082976,0.034097170927082976
267.948,0.0350794717405134,0.0350794717405134
267.949,0.033325525904446485,0.033325525904446485
267.95,0.030920381201114955,0.030920381201114955
267.951,0.030284206384253665,0.030284206384253665
267.952,0.03325874545176899,0.03325874545176899
267.953,0.04032867437876231,0.04032867437876231
267.954,0.05026292279909361,0.05026292279909361
267.955,0.06033630137642976,0.06033630137642976
267.956,0.06709995428951676,0.06709995428951676
267.957,0.06747363128184847,0.06747363128184847
267.958,0.05980373198902633,0.05980373198902633
267.959,0.04452016560919225,0.04452016560919225
267.96,0.024144765899215104,0.024144765899215104
267.961,0.0026198349860462322,0.0026198349860462322
267.962,0.015834956298897307,-0.015834956298897307
267.963,0.02795184092818226,-0.02795184092818226
267.964,0.032299277046353714,-0.032299277046353714
267.965,0.029501294237724074,-0.029501294237724074
267.966,0.021708279813687392,-0.021708279813687392
267.967,0.011517008771212311,-0.011517008771212311
267.968,0.0007611122756144839,-0.0007611122756144839
267.969,0.010330170777881786,0.010330170777881786
267.97,0.023217575974118,0.023217575974118
267.971,0.040265204554111866,0.040265204554111866
267.972,0.06330744278039568,0.06330744278039568
267.973,0.09208562694266442,0.09208562694266442
267.974,0.12319500377951442,0.12319500377951442
267.975,0.1500777803165516,0.1500777803165516
267.976,0.16427988769878055,0.16427988769878055
267.977,0.15775226043529833,0.15775226043529833
267.978,0.1255677404883664,0.1255677404883664
267.979,0.06819062488268401,0.06819062488268401
267.98,0.007524014568294546,-0.007524014568294546
267.981,0.08909934913919526,-0.08909934913919526
267.982,0.16095012860358004,-0.16095012860358004
267.983,0.20805775642520552,-0.20805775642520552
267.984,0.2198130880331104,-0.2198130880331104
267.985,0.19291326162782862,-0.19291326162782862
267.986,0.1324256644273788,-0.1324256644273788
267.987,0.050647701154547864,-0.050647701154547864
267.988,0.03595974123136303,0.03595974123136303
267.989,0.11090827757418031,0.11090827757418031
267.99,0.161708083096737,0.161708083096737
267.991,0.1826447074545401,0.1826447074545401
267.992,0.17555940640271794,0.17555940640271794
267.993,0.14850464380298622,0.14850464380298622
267.994,0.11279284392334676,0.11279284392334676
267.995,0.07942299336629355,0.07942299336629355
267.996,0.05600965375494926,0.05600965375494926
267.997,0.04511506486553252,0.04511506486553252
267.998,0.04438090231307856,0.04438090231307856
267.999,0.04824692695105659,0.04824692695105659
268.0,0.05053532604096822,0.05053532604096822
268.001,0.04693881267744837,0.04693881267744837
268.002,0.03654892467872051,0.03654892467872051
268.003,0.021951839845771204,0.021951839845771204
268.004,0.007956244197374174,0.007956244197374174
268.005,0.0004916256728120239,-0.0004916256728120239
268.006,0.0003782355059123166,-0.0003782355059123166
268.007,0.008113110939159451,0.008113110939159451
268.008,0.021612203979498368,0.021612203979498368
268.009,0.03482636268400996,0.03482636268400996
268.01,0.0425681637816393,0.0425681637816393
268.011,0.04177100000649303,0.04177100000649303
268.012,0.03272188996860459,0.03272188996860459
268.013,0.019031151912727085,0.019031151912727085
268.014,0.006326859112838701,0.006326859112838701
268.015,0.0001371439042359146,0.0001371439042359146
268.016,0.0037320685604091963,0.0037320685604091963
268.017,0.01672596630184775,0.01672596630184775
268.018,0.03497880255553554,0.03497880255553554
268.019,0.0518742293368637,0.0518742293368637
268.02,0.060557212216298506,0.060557212216298506
268.021,0.05636255720315497,0.05636255720315497
268.022,0.038583680603744286,0.038583680603744286
268.023,0.01094900032322732,0.01094900032322732
268.024,0.01938473163149279,-0.01938473163149279
268.025,0.04400233958987443,-0.04400233958987443
268.02599999999995,0.05584368301129761,-0.05584368301129761
268.027,0.05139110324239127,-0.05139110324239127
268.028,0.031711993180013054,-0.031711993180013054
268.029,0.0020334164748596617,-0.0020334164748596617
268.03,0.029974276789554333,0.029974276789554333
268.031,0.05659918290484289,0.05659918290484289
268.032,0.07235958549026655,0.07235958549026655
268.033,0.07540769966305239,0.07540769966305239
268.034,0.06765719123914415,0.06765719123914415
268.035,0.05368530469163524,0.05368530469163524
268.036,0.03888248943905648,0.03888248943905648
268.037,0.027558282400633294,0.027558282400633294
268.03799999999995,0.02168307516046708,0.02168307516046708
268.039,0.020670033348430428,0.020670033348430428
268.04,0.02218781515394075,0.02218781515394075
268.041,0.023599449942648176,0.023599449942648176
268.042,0.02339317451246936,0.02339317451246936
268.043,0.02199136367444643,0.02199136367444643
268.044,0.021584303375203895,0.021584303375203895
268.045,0.025036807967198982,0.025036807967198982
268.046,0.03430470066226321,0.03430470066226321
268.047,0.04902515185350986,0.04902515185350986
268.048,0.06591852242608853,0.06591852242608853
268.049,0.07936139235383544,0.07936139235383544
268.04999999999995,0.08305644188824313,0.08305644188824313
268.051,0.0722910051429706,0.0722910051429706
268.052,0.0460036435729978,0.0460036435729978
268.053,0.007874918887276872,0.007874918887276872
268.054,0.03406078328313478,-0.03406078328313478
268.055,0.06930737280013533,-0.06930737280013533
268.056,0.08781162878366633,-0.08781162878366633
268.057,0.08301174737200934,-0.08301174737200934
268.058,0.05405890771017818,-0.05405890771017818
268.059,0.006457726822794663,-0.006457726822794663
268.06,0.04915478199273515,0.04915478199273515
268.061,0.09979147336030669,0.09979147336030669
268.06199999999995,0.1336588810044088,0.1336588810044088
268.063,0.14340855281531528,0.14340855281531528
268.064,0.12811753882847388,0.12811753882847388
268.065,0.09340328377552543,0.09340328377552543
268.066,0.04964820852175489,0.04964820852175489
268.067,0.008884786828858182,0.008884786828858182
268.068,0.01870817934078306,-0.01870817934078306
268.069,0.027646069647703775,-0.027646069647703775
268.07,0.018487390406100035,-0.018487390406100035
268.071,0.0026650825639249476,0.0026650825639249476
268.072,0.026299194413779148,0.026299194413779148
268.073,0.042566749018245975,0.042566749018245975
268.074,0.04434069905705651,0.04434069905705651
268.075,0.029343620426777184,0.029343620426777184
268.076,0.0007508646398013408,0.0007508646398013408
268.077,0.03384676312625834,-0.03384676312625834
268.078,0.06474313172623225,-0.06474313172623225
268.079,0.08294757446815715,-0.08294757446815715
268.08,0.08269735378107335,-0.08269735378107335
268.081,0.06294478418803762,-0.06294478418803762
268.082,0.027454164803334624,-0.027454164803334624
268.083,0.016429296018872774,0.016429296018872774
268.084,0.05989748194073807,0.05989748194073807
268.085,0.09502141199765335,0.09502141199765335
268.086,0.11664344710938912,0.11664344710938912
268.087,0.12333212340810462,0.12333212340810462
268.088,0.11722458961277504,0.11722458961277504
268.089,0.10291761234019936,0.10291761234019936
268.09,0.08582675048601507,0.08582675048601507
268.091,0.07054549220678297,0.07054549220678297
268.092,0.05968215454723924,0.05968215454723924
268.093,0.05346308612654638,0.05346308612654638
268.094,0.050133992716729914,0.050133992716729914
268.095,0.04694846369766803,0.04694846369766803
268.096,0.04137414822055252,0.04137414822055252
268.097,0.03211210857659763,0.03211210857659763
268.098,0.019614087475324782,0.019614087475324782
268.099,0.005960287543079534,0.005960287543079534
268.1,0.005831596864081745,-0.005831596864081745
268.101,0.012820025775545418,-0.012820025775545418
268.102,0.013137223668429954,-0.013137223668429954
268.103,0.006645742737432014,-0.006645742737432014
268.104,0.00495863903016347,0.00495863903016347
268.105,0.018634729811458417,0.018634729811458417
268.106,0.030925461192048198,0.030925461192048198
268.107,0.039038817555506755,0.039038817555506755
268.108,0.04173551913900031,0.04173551913900031
268.109,0.03972934829619046,0.03972934829619046
268.11,0.03544916939198983,0.03544916939198983
268.111,0.03220781179334531,0.03220781179334531
268.112,0.03301507127999215,0.03301507127999215
268.113,0.039401378487002425,0.039401378487002425
268.114,0.05064172328856942,0.05064172328856942
268.115,0.06367194990016434,0.06367194990016434
268.116,0.07379291209783312,0.07379291209783312
268.117,0.07601551928100525,0.07601551928100525
268.118,0.0666830172691506,0.0666830172691506
268.119,0.044885330623603004,0.044885330623603004
268.12,0.01319947874529892,0.01319947874529892
268.121,0.022544520824488212,-0.022544520824488212
268.122,0.054500756699908615,-0.054500756699908615
268.123,0.0747730601721579,-0.0747730601721579
268.124,0.07759199363590286,-0.07759199363590286
268.125,0.06108256989362193,-0.06108256989362193
268.126,0.028079079860187872,-0.028079079860187872
268.127,0.014311267509461434,0.014311267509461434
268.128,0.05634545476608488,0.05634545476608488
268.129,0.0880803381116726,0.0880803381116726
268.13,0.10195627147803599,0.10195627147803599
268.131,0.09481205321193964,0.09481205321193964
268.132,0.06875723179448912,0.06875723179448912
268.133,0.030642185372175224,0.030642185372175224
268.134,0.009737941915619719,-0.009737941915619719
268.135,0.042209481494264844,-0.042209481494264844
268.136,0.058844339709499094,-0.058844339709499094
268.137,0.05592152920881521,-0.05592152920881521
268.138,0.034707081721164657,-0.034707081721164657
268.139,0.0008814322256956997,-0.0008814322256956997
268.14,0.037168520685709305,0.037168520685709305
268.141,0.0706644198334625,0.0706644198334625
268.142,0.092686752314036,0.092686752314036
268.143,0.09974886385514714,0.09974886385514714
268.144,0.09231894817512631,0.09231894817512631
268.145,0.0742446465611073,0.0742446465611073
268.146,0.051353374209219815,0.051353374209219815
268.147,0.029711488966070565,0.029711488966070565
268.148,0.014070666706499813,0.014070666706499813
268.149,0.0069103421257510345,0.0069103421257510345
268.15,0.008253668570287198,0.008253668570287198
268.15099999999995,0.016176031173340766,0.016176031173340766
268.152,0.027726192945056738,0.027726192945056738
268.153,0.039899516838239224,0.039899516838239224
268.154,0.050353613342239756,0.050353613342239756
268.155,0.05770572360242787,0.05770572360242787
268.156,0.06143332360238385,0.06143332360238385
268.157,0.061544191300748174,0.061544191300748174
268.158,0.058239190824973974,0.058239190824973974
268.159,0.05174748291186804,0.05174748291186804
268.16,0.042396900255528,0.042396900255528
268.161,0.03084629850464582,0.03084629850464582
268.162,0.018311222794073823,0.018311222794073823
268.16299999999995,0.00660010637446562,0.00660010637446562
268.164,0.002147884274071643,-0.002147884274071643
268.165,0.0060000447260769585,-0.0060000447260769585
268.166,0.0038827649674370024,-0.0038827649674370024
268.167,0.003892960445431415,0.003892960445431415
268.168,0.01546717664124464,0.01546717664124464
268.169,0.02775812929160182,0.02775812929160182
268.17,0.037245553616134464,0.037245553616134464
268.171,0.041005093097750356,0.041005093097750356
268.172,0.03767769897779161,0.03767769897779161
268.173,0.02804879570839458,0.02804879570839458
268.174,0.015013764809756802,0.015013764809756802
268.17499999999995,0.002889047102719866,0.002889047102719866
268.176,0.003766563280639623,-0.003766563280639623
268.177,0.001495085593159362,-0.001495085593159362
268.178,0.010941888018836776,0.010941888018836776
268.179,0.032003083202116756,0.032003083202116756
268.18,0.05754488510590061,0.05754488510590061
268.181,0.081707506963274,0.081707506963274
268.182,0.09828533344246204,0.09828533344246204
268.183,0.10222914904156255,0.10222914904156255
268.184,0.09090175250926746,0.09090175250926746
268.185,0.06478427335559656,0.06478427335559656
268.186,0.027479252966184475,0.027479252966184475
268.18699999999995,0.01496850003660355,-0.01496850003660355
268.188,0.055259180164029864,-0.055259180164029864
268.189,0.08626291566610778,-0.08626291566610778
268.19,0.10238596470121974,-0.10238596470121974
268.191,0.10061922426997927,-0.10061922426997927
268.192,0.0810902503577473,-0.0810902503577473
268.193,0.047038625400224965,-0.047038625400224965
268.194,0.004232230211650312,-0.004232230211650312
268.195,0.040072217106088104,0.040072217106088104
268.196,0.07845146265354708,0.07845146265354708
268.197,0.10469746944571168,0.10469746944571168
268.198,0.11500966428442094,0.11500966428442094
268.199,0.10875826499925156,0.10875826499925156
268.2,0.08863460485450791,0.08863460485450791
268.201,0.06010927164053048,0.06010927164053048
268.202,0.0302628510861771,0.0302628510861771
268.203,0.006209221363464357,0.006209221363464357
268.204,0.006543439055571643,-0.006543439055571643
268.205,0.005396397756390003,-0.005396397756390003
268.206,0.008718981234959733,0.008718981234959733
268.207,0.03159807164204409,0.03159807164204409
268.208,0.05686631923677732,0.05686631923677732
268.209,0.07766092937316826,0.07766092937316826
268.21,0.08844563185486876,0.08844563185486876
268.211,0.08645657165269571,0.08645657165269571
268.212,0.0723682682789275,0.0723682682789275
268.213,0.04998832946581899,0.04998832946581899
268.214,0.025075970090130628,0.025075970090130628
268.215,0.0036443650105859593,0.0036443650105859593
268.216,0.009735296949848982,-0.009735296949848982
268.217,0.013113824412088748,-0.013113824412088748
268.218,0.007481857878674281,-0.007481857878674281
268.219,0.003840215332253649,0.003840215332253649
268.22,0.016504067302082648,0.016504067302082648
268.221,0.026667897825580544,0.026667897825580544
268.222,0.032236525915677605,0.032236525915677605
268.223,0.03339130026354753,0.03339130026354753
268.224,0.03224768830166558,0.03224768830166558
268.225,0.031787984335600594,0.031787984335600594
268.226,0.03447488987618441,0.03447488987618441
268.227,0.04106787768204834,0.04106787768204834
268.228,0.050095736739923735,0.050095736739923735
268.229,0.05820711230919362,0.05820711230919362
268.23,0.06130546676657023,0.06130546676657023
268.231,0.05608577131780579,0.05608577131780579
268.232,0.04143014365610065,0.04143014365610065
268.233,0.019147792122588214,0.019147792122588214
268.234,0.0062447680749661005,-0.0062447680749661005
268.235,0.028683952936283452,-0.028683952936283452
268.236,0.04231478711371217,-0.04231478711371217
268.237,0.04328168779208397,-0.04328168779208397
268.238,0.03096532870595492,-0.03096532870595492
268.239,0.008247210184756493,-0.008247210184756493
268.24,0.019302141136321893,0.019302141136321893
268.241,0.045062809341962495,0.045062809341962495
268.242,0.06331242330467579,0.06331242330467579
268.243,0.07086014918379857,0.07086014918379857
268.244,0.06785323658632603,0.06785323658632603
268.245,0.05751624644269282,0.05751624644269282
268.246,0.04493336279883842,0.04493336279883842
268.247,0.03529242062103499,0.03529242062103499
268.248,0.03217365579083009,0.03217365579083009
268.249,0.03643505780179357,0.03643505780179357
268.25,0.046034649622351376,0.046034649622351376
268.251,0.0568132236490595,0.0568132236490595
268.252,0.06394735531385809,0.06394735531385809
268.253,0.06357575419757788,0.06357575419757788
268.254,0.054066589591369896,0.054066589591369896
268.255,0.03653387928758822,0.03653387928758822
268.256,0.014472817956294515,0.014472817956294515
268.257,0.007325609295879665,-0.007325609295879665
268.258,0.024198857874077384,-0.024198857874077384
268.259,0.032910679838859536,-0.032910679838859536
268.26,0.03243103447945861,-0.03243103447945861
268.261,0.024002004330107796,-0.024002004330107796
268.262,0.010537258252758419,-0.010537258252758419
268.263,0.004390464026160945,0.004390464026160945
268.264,0.017614912452142528,0.017614912452142528
268.265,0.02715962750258738,0.02715962750258738
268.266,0.03253506046130106,0.03253506046130106
268.267,0.0345292977260272,0.0345292977260272
268.268,0.034640116793462905,0.034640116793462905
268.269,0.03439271336444927,0.03439271336444927
268.27,0.034788226637399555,0.034788226637399555
268.271,0.03604539640101856,0.03604539640101856
268.272,0.03767195455359129,0.03767195455359129
268.273,0.03878461851918513,0.03878461851918513
268.274,0.03852779319258204,0.03852779319258204
268.275,0.0364378968213519,0.0364378968213519
268.27599999999995,0.032651374170384884,0.032651374170384884
268.277,0.027928944322512583,0.027928944322512583
268.278,0.02353109609653914,0.02353109609653914
268.279,0.021006466891717146,0.021006466891717146
268.28,0.021942789953733666,0.021942789953733666
268.281,0.027697315039765025,0.027697315039765025
268.282,0.039098012486713296,0.039098012486713296
268.283,0.05611170211983807,0.05611170211983807
268.284,0.07751598048450403,0.07751598048450403
268.285,0.1006713182374408,0.1006713182374408
268.286,0.12153422512197665,0.12153422512197665
268.287,0.13504645199882037,0.13504645199882037
268.28799999999995,0.135959300780081,0.135959300780081
268.289,0.1200155373488827,0.1200155373488827
268.29,0.08525400771030256,0.08525400771030256
268.291,0.03308286275683048,0.03308286275683048
268.292,0.03125682229688409,-0.03125682229688409
268.293,0.09911312327934829,-0.09911312327934829
268.294,0.1597898441070149,-0.1597898441070149
268.295,0.20263948810789567,-0.20263948810789567
268.296,0.21941338579170244,-0.21941338579170244
268.297,0.2062622822678799,-0.2062622822678799
268.298,0.16481606073545896,-0.16481606073545896
268.299,0.10198614329111988,-0.10198614329111988
268.29999999999995,0.028475541866289977,-0.028475541866289977
268.301,0.04364959730583884,0.04364959730583884
268.302,0.10369170429076346,0.10369170429076346
268.303,0.1446204890908256,0.1446204890908256
268.304,0.1643205149914051,0.1643205149914051
268.305,0.16547614768000818,0.16547614768000818
268.306,0.1541851458931327,0.1541851458931327
268.307,0.13776576607339752,0.13776576607339752
268.308,0.1224490929079538,0.1224490929079538
268.309,0.1116572538703231,0.1116572538703231
268.31,0.10535839077532638,0.10535839077532638
268.311,0.10063069146715242,0.10063069146715242
268.31199999999995,0.09317799525699155,0.09317799525699155
268.313,0.07924459215642976,0.07924459215642976
268.314,0.05726977616211393,0.05726977616211393
268.315,0.028733006676685102,0.028733006676685102
268.316,0.0020743183879134985,-0.0020743183879134985
268.317,0.02925328573196373,-0.02925328573196373
268.318,0.04706450538831597,-0.04706450538831597
268.319,0.05167456791063574,-0.05167456791063574
268.32,0.04232556094117457,-0.04232556094117457
268.321,0.021577223432756587,-0.021577223432756587
268.322,0.005419602935319956,0.005419602935319956
268.323,0.03235388587745924,0.03235388587745924
268.324,0.05342290052093834,0.05342290052093834
268.325,0.0647320842968313,0.0647320842968313
268.326,0.06504511607886365,0.06504511607886365
268.327,0.055738950779081975,0.055738950779081975
268.328,0.040077901198551924,0.040077901198551924
268.329,0.022115256520351068,0.022115256520351068
268.33,0.005601551505147961,0.005601551505147961
268.331,0.006785219467930204,-0.006785219467930204
268.332,0.013732795019006705,-0.013732795019006705
268.333,0.01514544073768287,-0.01514544073768287
268.334,0.011731445686422037,-0.011731445686422037
268.335,0.004558823467310402,-0.004558823467310402
268.336,0.005237800299282336,0.005237800299282336
268.337,0.016533472130901172,0.016533472130901172
268.338,0.02813555367265197,0.02813555367265197
268.339,0.03869811685796565,0.03869811685796565
268.34,0.0467739805736711,0.0467739805736711
268.341,0.05107085898347474,0.05107085898347474
268.342,0.05085606932544162,0.05085606932544162
268.343,0.04634659287491272,0.04634659287491272
268.344,0.03888066646860566,0.03888066646860566
268.345,0.030719358658064966,0.030719358658064966
268.346,0.024458750705631527,0.024458750705631527
268.347,0.02219696089820733,0.02219696089820733
268.348,0.0247293632275305,0.0247293632275305
268.349,0.03108223207471128,0.03108223207471128
268.35,0.03861394269743501,0.03861394269743501
268.351,0.043732408073756446,0.043732408073756446
268.352,0.04305648971351417,0.04305648971351417
268.353,0.03466693248465691,0.03466693248465691
268.354,0.019019979886759186,0.019019979886759186
268.355,0.0008299452247606531,-0.0008299452247606531
268.356,0.019847921916167466,-0.019847921916167466
268.357,0.03235348962754192,-0.03235348962754192
268.358,0.033699523621172345,-0.033699523621172345
268.359,0.021781226153811395,-0.021781226153811395
268.36,0.002115509444661212,0.002115509444661212
268.361,0.03343080821062672,0.03343080821062672
268.362,0.06542336352465727,0.06542336352465727
268.363,0.09094234117270306,0.09094234117270306
268.364,0.10436196795739061,0.10436196795739061
268.365,0.1031025370522285,0.1031025370522285
268.366,0.0882838421947787,0.0882838421947787
268.367,0.06432276588873798,0.06432276588873798
268.368,0.03761039342798389,0.03761039342798389
268.369,0.014681582873417476,0.014681582873417476
268.37,0.0004334370020346867,0.0004334370020346867
268.371,0.0030844379498662367,-0.0030844379498662367
268.372,0.0030196558911157467,0.0030196558911157467
268.373,0.015106156919083569,0.015106156919083569
268.374,0.028317211490631378,0.028317211490631378
268.375,0.038129992796738676,0.038129992796738676
268.376,0.0416603343193902,0.0416603343193902
268.377,0.0383398864563238,0.0383398864563238
268.378,0.029815168105144618,0.029815168105144618
268.379,0.01917441523811525,0.01917441523811525
268.38,0.009812382216330295,0.009812382216330295
268.381,0.0043312691590482455,0.0043312691590482455
268.382,0.0038271672526004608,0.0038271672526004608
268.383,0.007752056879121616,0.007752056879121616
268.384,0.014332808801328367,0.014332808801328367
268.385,0.02134439931128096,0.02134439931128096
268.386,0.026934755044365266,0.026934755044365266
268.387,0.030210385585915933,0.030210385585915933
268.388,0.031402326034367656,0.031402326034367656
268.389,0.03159516558641462,0.03159516558641462
268.39,0.03215757328704383,0.03215757328704383
268.391,0.03410741211804491,0.03410741211804491
268.392,0.03765006600044707,0.03765006600044707
268.393,0.04204992243303951,0.04204992243303951
268.394,0.045865960617947676,0.045865960617947676
268.395,0.047451961739505055,0.047451961739505055
268.396,0.04553556767117195,0.04553556767117195
268.397,0.03967480849161209,0.03967480849161209
268.398,0.03044545543482391,0.03044545543482391
268.399,0.0193126991339716,0.0193126991339716
268.4,0.00824754095160607,0.00824754095160607
268.40099999999995,0.0007755675979368437,-0.0007755675979368437
268.402,0.0062409399227352225,-0.0062409399227352225
268.403,0.007387909529505521,-0.007387909529505521
268.404,0.004285541100538137,-0.004285541100538137
268.405,0.002292045226652384,0.002292045226652384
268.406,0.011111225746180287,0.011111225746180287
268.407,0.02074922718498584,0.02074922718498584
268.408,0.029814839483827127,0.029814839483827127
268.409,0.03709074422326708,0.03709074422326708
268.41,0.04161522728852285,0.04161522728852285
268.411,0.04274706236212,0.04274706236212
268.412,0.04025221656395872,0.04025221656395872
268.41299999999995,0.034418694015504014,0.034418694015504014
268.414,0.026162752585512372,0.026162752585512372
268.415,0.017057728395832195,0.017057728395832195
268.416,0.009213773361527178,0.009213773361527178
268.417,0.004969487565375186,0.004969487565375186
268.418,0.006416677073928012,0.006416677073928012
268.419,0.014847226474024255,0.014847226474024255
268.42,0.030261421049308845,0.030261421049308845
268.421,0.05108928148372116,0.05108928148372116
268.422,0.07424173976602622,0.07424173976602622
268.423,0.0955332852702997,0.0955332852702997
268.424,0.11042206252194964,0.11042206252194964
268.42499999999995,0.11492449874746535,0.11492449874746535
268.426,0.1065051803199557,0.1065051803199557
268.427,0.08473544153308188,0.08473544153308188
268.428,0.051558654725653685,0.051558654725653685
268.429,0.011085119941212973,0.011085119941212973
268.43,0.031056805897782036,-0.031056805897782036
268.431,0.06868939864439016,-0.06868939864439016
268.432,0.0961815158904582,-0.0961815158904582
268.433,0.10945341473645909,-0.10945341473645909
268.434,0.10669261193720414,-0.10669261193720414
268.435,0.08864350626742223,-0.08864350626742223
268.436,0.05842011729296326,-0.05842011729296326
268.43699999999995,0.02088613167975384,-0.02088613167975384
268.438,0.01826891796111063,0.01826891796111063
268.439,0.05357008309571443,0.05357008309571443
268.44,0.08070583002991727,0.08070583002991727
268.441,0.09719837697201816,0.09719837697201816
268.442,0.10266923624388413,0.10266923624388413
268.443,0.09866239772313601,0.09866239772313601
268.444,0.08808623492954193,0.08808623492954193
268.445,0.07442140111455742,0.07442140111455742
268.446,0.06089404558450173,0.06089404558450173
268.447,0.049816498158751665,0.049816498158751665
268.448,0.04224777409515257,0.04224777409515257
268.449,0.03803488120317855,0.03803488120317855
268.45,0.03618699379331347,0.03618699379331347
268.451,0.03543928403924945,0.03543928403924945
268.452,0.0348108984296811,0.0348108984296811
268.453,0.03397011185081933,0.03397011185081933
268.454,0.033288618025419714,0.033288618025419714
268.455,0.033575988325056594,0.033575988325056594
268.456,0.03559974334131266,0.03559974334131266
268.457,0.03957755505535121,0.03957755505535121
268.458,0.044846267549813135,0.044846267549813135
268.459,0.04985811223877068,0.04985811223877068
268.46,0.05254281654883397,0.05254281654883397
268.461,0.05094143606188495,0.05094143606188495
268.462,0.04390956516205402,0.04390956516205402
268.463,0.03164413084722728,0.03164413084722728
268.464,0.01582889793262998,0.01582889793262998
268.465,0.0006898402169726037,-0.0006898402169726037
268.466,0.014630262847891706,-0.014630262847891706
268.467,0.023194760417226457,-0.023194760417226457
268.468,0.024893069119362177,-0.024893069119362177
268.469,0.019994728896616132,-0.019994728896616132
268.47,0.010446516470247524,-0.010446516470247524
268.471,0.0007384215756525148,0.0007384215756525148
268.472,0.010436545697011024,0.010436545697011024
268.473,0.01641022020738081,0.01641022020738081
268.474,0.018016513196215556,0.018016513196215556
268.475,0.016387541081663626,0.016387541081663626
268.476,0.014011997740864812,0.014011997740864812
268.477,0.013846137816478254,0.013846137816478254
268.478,0.018242348952637766,0.018242348952637766
268.479,0.028049522521546466,0.028049522521546466
268.48,0.042187759896636035,0.042187759896636035
268.481,0.05784650127759439,0.05784650127759439
268.482,0.07125090886149921,0.07125090886149921
268.483,0.0787550251605118,0.0787550251605118
268.484,0.07791473738916022,0.07791473738916022
268.485,0.06820410055067816,0.06820410055067816
268.486,0.051160357707803916,0.051160357707803916
268.487,0.02993308883367818,0.02993308883367818
268.488,0.008405336103039618,0.008405336103039618
268.489,0.009816419138391042,-0.009816419138391042
268.49,0.022223233762002415,-0.022223233762002415
268.491,0.02780208625072822,-0.02780208625072822
268.492,0.026939970570298066,-0.026939970570298066
268.493,0.02093839631223826,-0.02093839631223826
268.494,0.011369720017718632,-0.011369720017718632
268.495,0.0004604456768118048,0.0004604456768118048
268.496,0.013749883798494178,0.013749883798494178
268.497,0.028081965264405984,0.028081965264405984
268.498,0.04305611045563684,0.04305611045563684
268.499,0.05787834636039979,0.05787834636039979
268.5,0.07114236768317217,0.07114236768317217
268.501,0.08095165800738968,0.08095165800738968
268.502,0.08538585996002035,0.08538585996002035
268.503,0.08315804157077467,0.08315804157077467
268.504,0.07420740710185125,0.07420740710185125
268.505,0.059968577321267924,0.059968577321267924
268.506,0.04316081116372561,0.04316081116372561
268.507,0.027114140931959962,0.027114140931959962
268.508,0.014830367741266892,0.014830367741266892
268.509,0.008095005800014654,0.008095005800014654
268.51,0.00696185508270819,0.00696185508270819
268.511,0.009815689114437864,0.009815689114437864
268.512,0.014017293125412111,0.014017293125412111
268.513,0.016919791002364182,0.016919791002364182
268.514,0.016896054678613437,0.016896054678613437
268.515,0.013993701634188227,0.013993701634188227
268.516,0.009952608670855234,0.009952608670855234
268.517,0.0075439167737210155,0.0075439167737210155
268.518,0.00944196045791168,0.00944196045791168
268.519,0.01702959507661994,0.01702959507661994
268.52,0.029589661243869525,0.029589661243869525
268.521,0.04422374324791711,0.04422374324791711
268.522,0.056595295534231926,0.056595295534231926
268.523,0.06229880710068403,0.06229880710068403
268.524,0.058413928300097506,0.058413928300097506
268.525,0.04470375688135575,0.04470375688135575
268.52599999999995,0.02400345274638549,0.02400345274638549
268.527,0.001598335803967732,0.001598335803967732
268.528,0.016270884329995128,-0.016270884329995128
268.529,0.024328439440213567,-0.024328439440213567
268.53,0.019990549924149503,-0.019990549924149503
268.531,0.004312652957771834,-0.004312652957771834
268.532,0.018195923706589623,0.018195923706589623
268.533,0.0408792514134122,0.0408792514134122
268.534,0.0569795367938386,0.0569795367938386
268.535,0.061776602539996395,0.061776602539996395
268.536,0.054127601555689075,0.054127601555689075
268.537,0.036890104055253614,0.036890104055253614
268.53799999999995,0.016064985962761513,0.016064985962761513
268.539,0.0010895097912599905,-0.0010895097912599905
268.54,0.008381213471397198,-0.008381213471397198
268.541,0.002702283699682173,-0.002702283699682173
268.542,0.014911010269387459,0.014911010269387459
268.543,0.03952735294351162,0.03952735294351162
268.544,0.0638102314903648,0.0638102314903648
268.545,0.0802828521128609,0.0802828521128609
268.546,0.08365488333272775,0.08365488333272775
268.547,0.07248000002765487,0.07248000002765487
268.548,0.04962908509035646,0.04962908509035646
268.549,0.021441249980230115,0.021441249980230115
268.54999999999995,0.004170053743236757,-0.004170053743236757
268.551,0.02005917701779858,-0.02005917701779858
268.552,0.02191788748281509,-0.02191788748281509
268.553,0.009456651148233797,-0.009456651148233797
268.554,0.013625088706084032,0.013625088706084032
268.555,0.04082091904962826,0.04082091904962826
268.556,0.06474749100630461,0.06474749100630461
268.557,0.07921549943402373,0.07921549943402373
268.558,0.08083013191074206,0.08083013191074206
268.559,0.06969260126325616,0.06969260126325616
268.56,0.049074746241020595,0.049074746241020595
268.561,0.024253467571639487,0.024253467571639487
268.56199999999995,0.0009212779255460823,0.0009212779255460823
268.563,0.016330573120868275,-0.016330573120868275
268.564,0.025039281382043033,-0.025039281382043033
268.565,0.025187333108037002,-0.025187333108037002
268.566,0.01882596596788766,-0.01882596596788766
268.567,0.009220149964509816,-0.009220149964509816
268.568,0.000169352841866921,0.000169352841866921
268.569,0.006565274894138051,0.006565274894138051
268.57,0.00841732437279008,0.00841732437279008
268.571,0.005555640920352545,0.005555640920352545
268.572,0.0009757117858184561,-0.0009757117858184561
268.573,0.009269838418960896,-0.009269838418960896
268.574,0.01696115935436915,-0.01696115935436915
268.575,0.021604108571749547,-0.021604108571749547
268.576,0.021012090416199114,-0.021012090416199114
268.577,0.013580482264944127,-0.013580482264944127
268.578,0.001390148027929028,0.001390148027929028
268.579,0.023401171061065984,0.023401171061065984
268.58,0.05058068155151929,0.05058068155151929
268.581,0.07974236206092766,0.07974236206092766
268.582,0.10676831056990999,0.10676831056990999
268.583,0.12731979755844924,0.12731979755844924
268.584,0.13775968436524044,0.13775968436524044
268.585,0.13606158786632805,0.13606158786632805
268.586,0.122432756873192,0.122432756873192
268.587,0.09942130140222294,0.09942130140222294
268.588,0.07141228159639135,0.07141228159639135
268.589,0.04360367120836406,0.04360367120836406
268.59,0.020730032772921403,0.020730032772921403
268.591,0.005903689189008965,0.005903689189008965
268.592,7.303659008150998e-05,-7.303659008150998e-05
268.593,0.0012914359049178703,0.0012914359049178703
268.594,0.006862023075264956,0.006862023075264956
268.595,0.013017689221692219,0.013017689221692219
268.596,0.016866248543023765,0.016866248543023765
268.597,0.01712538227510385,0.01712538227510385
268.598,0.014378870854192316,0.014378870854192316
268.599,0.01063832823043187,0.01063832823043187
268.6,0.008389446801414291,0.008389446801414291
268.601,0.009488500056007876,0.009488500056007876
268.602,0.014330132017448705,0.014330132017448705
268.603,0.02160799410437675,0.02160799410437675
268.604,0.028768605230489186,0.028768605230489186
268.605,0.03299498038583781,0.03299498038583781
268.606,0.03234752879912639,0.03234752879912639
268.607,0.026615794146823024,0.026615794146823024
268.608,0.017528581693106116,0.017528581693106116
268.609,0.008203138756338824,0.008203138756338824
268.61,0.0020042648002214225,0.0020042648002214225
268.611,0.001224420094478651,0.001224420094478651
268.612,0.0060926004950045964,0.0060926004950045964
268.613,0.01452838952390656,0.01452838952390656
268.614,0.022801369237251956,0.022801369237251956
268.615,0.02692069927560259,0.02692069927560259
268.616,0.024285120940565452,0.024285120940565452
268.617,0.014981980926007,0.014981980926007
268.618,0.002198022418263168,0.002198022418263168
268.619,0.008517027714455172,-0.008517027714455172
268.62,0.010996795642859603,-0.010996795642859603
268.621,0.0006968638075499634,-0.0006968638075499634
268.622,0.023319999578812922,0.023319999578812922
268.623,0.05738206855037875,0.05738206855037875
268.624,0.09364986242377604,0.09364986242377604
268.625,0.12201046907714841,0.12201046907714841
268.626,0.1329487695068876,0.1329487695068876
268.627,0.12055785519476059,0.12055785519476059
268.628,0.08474208055380505,0.08474208055380505
268.629,0.031859170136063986,0.031859170136063986
268.63,0.026506166311564106,-0.026506166311564106
268.631,0.07637935086954462,-0.07637935086954462
268.632,0.10507857083664363,-0.10507857083664363
268.633,0.10469155739012403,-0.10469155739012403
268.634,0.07432643811968753,-0.07432643811968753
268.635,0.020461842636569694,-0.020461842636569694
268.636,0.04472269646821281,0.04472269646821281
268.637,0.10655937890977785,0.10655937890977785
268.638,0.15171975024548057,0.15171975024548057
268.639,0.17156058505012828,0.17156058505012828
268.64,0.1640546158047873,0.1640546158047873
268.641,0.13381297391240143,0.13381297391240143
268.642,0.09028315213362292,0.09028315213362292
268.643,0.04473986298672483,0.04473986298672483
268.644,0.007014230040604641,0.007014230040604641
268.645,0.017064288786408643,-0.017064288786408643
268.646,0.026806531805435463,-0.026806531805435463
268.647,0.02614576493387588,-0.02614576493387588
268.648,0.021744054721949735,-0.021744054721949735
268.649,0.020407246450892647,-0.020407246450892647
268.65,0.02666307495577136,-0.02666307495577136
268.65099999999995,0.04125306818453178,-0.04125306818453178
268.652,0.06095824589661958,-0.06095824589661958
268.653,0.07973696730508928,-0.07973696730508928
268.654,0.09074486458614739,-0.09074486458614739
268.655,0.08855714569172479,-0.08855714569172479
268.656,0.07089088108763564,-0.07089088108763564
268.657,0.039321929987192195,-0.039321929987192195
268.658,0.0011679220894009745,0.0011679220894009745
268.659,0.043609285966704325,0.043609285966704325
268.66,0.08094489320372888,0.08094489320372888
268.661,0.10781662089537125,0.10781662089537125
268.662,0.12172684533493117,0.12172684533493117
268.66299999999995,0.1232932834546896,0.1232932834546896
268.664,0.11561513943576984,0.11561513943576984
268.665,0.1030349654582503,0.1030349654582503
268.666,0.0897348031577696,0.0897348031577696
268.667,0.07860872847612321,0.07860872847612321
268.668,0.07071947910624399,0.07071947910624399
268.669,0.06542944928352146,0.06542944928352146
268.67,0.061072351127668956,0.061072351127668956
268.671,0.05587284735567222,0.05587284735567222
268.672,0.04877198726333143,0.04877198726333143
268.673,0.039882104791113315,0.039882104791113315
268.674,0.0304446216526717,0.0304446216526717
268.67499999999995,0.022342684514654154,0.022342684514654154
268.676,0.017368109876167326,0.017368109876167326
268.677,0.016513789123354883,0.016513789123354883
268.678,0.01954108073711658,0.01954108073711658
268.679,0.024969932048683807,0.024969932048683807
268.68,0.030494696125836773,0.030494696125836773
268.681,0.033688765630512485,0.033688765630512485
268.682,0.032769603554521076,0.032769603554521076
268.683,0.027178685585217632,0.027178685585217632
268.684,0.017790704027720983,0.017790704027720983
268.685,0.006682581201583604,0.006682581201583604
268.686,0.003470885128610046,-0.003470885128610046
268.68699999999995,0.01019252520067715,-0.01019252520067715
268.688,0.011946663074356545,-0.011946663074356545
268.689,0.008600572496768266,-0.008600572496768266
268.69,0.0014543476091062324,-0.0014543476091062324
268.691,0.007181571682166821,0.007181571682166821
268.692,0.014743173279489374,0.014743173279489374
268.693,0.01927710003767813,0.01927710003767813
268.694,0.02014010923434162,0.02014010923434162
268.695,0.018296457370825525,0.018296457370825525
268.696,0.01608574604724544,0.01608574604724544
268.697,0.01649092521491058,0.01649092521491058
268.698,0.022096944752334036,0.022096944752334036
268.699,0.03404654485030978,0.03404654485030978
268.7,0.05133155922797927,0.05133155922797927
268.701,0.07068830130291204,0.07068830130291204
268.702,0.08720579064704892,0.08720579064704892
268.703,0.09554611485803055,0.09554611485803055
268.704,0.09147668537003706,0.09147668537003706
268.705,0.07328684608922198,0.07328684608922198
268.706,0.04265217321951198,0.04265217321951198
268.707,0.0046325019627029285,0.0046325019627029285
268.708,0.03328173302973192,-0.03328173302973192
268.709,0.06288682782830368,-0.06288682782830368
268.71,0.07732030885218666,-0.07732030885218666
268.711,0.07289764728774184,-0.07289764728774184
268.712,0.05020420224827049,-0.05020420224827049
268.713,0.014100900836951924,-0.014100900836951924
268.714,0.027402246411383224,0.027402246411383224
268.715,0.06512888766313374,0.06512888766313374
268.716,0.09104726513595818,0.09104726513595818
268.717,0.10027706163201011,0.10027706163201011
268.718,0.09223899465335483,0.09223899465335483
268.719,0.07063636265116213,0.07063636265116213
268.72,0.042292558092641874,0.042292558092641874
268.721,0.01519546051495424,0.01519546051495424
268.722,0.0036801290198263947,-0.0036801290198263947
268.723,0.010153180772091375,-0.010153180772091375
268.724,0.0037384444606032297,-0.0037384444606032297
268.725,0.012535812042827832,0.012535812042827832
268.726,0.033272693461319,0.033272693461319
268.727,0.05241658991939335,0.05241658991939335
268.728,0.06498907221764982,0.06498907221764982
268.729,0.06834275162352998,0.06834275162352998
268.73,0.0626101035814628,0.0626101035814628
268.731,0.050296263222839865,0.050296263222839865
268.732,0.03523197760812957,0.03523197760812957
268.733,0.0212798935317422,0.0212798935317422
268.734,0.01122333773193307,0.01122333773193307
268.735,0.00616071684990227,0.00616071684990227
268.736,0.0055271963681007286,0.0055271963681007286
268.737,0.007644028277609571,0.007644028277609571
268.738,0.01053173333447277,0.01053173333447277
268.739,0.01266773459467685,0.01266773459467685
268.74,0.01343139045573949,0.01343139045573949
268.741,0.013126386103614607,0.013126386103614607
268.742,0.012640838996847314,0.012640838996847314
268.743,0.012934174581872737,0.012934174581872737
268.744,0.014582271136224678,0.014582271136224678
268.745,0.017559982644929528,0.017559982644929528
268.746,0.021321488468332372,0.021321488468332372
268.747,0.025106611071514795,0.025106611071514795
268.748,0.028310148556316195,0.028310148556316195
268.749,0.03073661008892148,0.03073661008892148
268.75,0.03262670643476828,0.03262670643476828
268.751,0.034453844562027935,0.034453844562027935
268.752,0.03659855580991911,0.03659855580991911
268.753,0.03906779775623037,0.03906779775623037
268.754,0.04140797573409061,0.04140797573409061
268.755,0.04287217342739713,0.04287217342739713
268.756,0.04278113340718459,0.04278113340718459
268.757,0.04091715238800653,0.04091715238800653
268.758,0.037756729690939794,0.037756729690939794
268.759,0.034401221384636305,0.034401221384636305
268.76,0.03218810978600306,0.03218810978600306
268.761,0.03211057416731289,0.03211057416731289
268.762,0.034278559646275575,0.034278559646275575
268.763,0.0376709369389856,0.0376709369389856
268.764,0.0403392676474561,0.0403392676474561
268.765,0.040055228505845974,0.040055228505845974
268.766,0.03520708200750988,0.03520708200750988
268.767,0.02561997725243792,0.02561997725243792
268.768,0.01295892568552981,0.01295892568552981
268.769,0.0004904183420866293,0.0004904183420866293
268.77,0.007803393161676442,-0.007803393161676442
268.771,0.008519455918648888,-0.008519455918648888
268.772,0.00011853844587450535,-0.00011853844587450535
268.773,0.016261762060139295,0.016261762060139295
268.774,0.036804832565201284,0.036804832565201284
268.775,0.05590706445961935,0.05590706445961935
268.77599999999995,0.06774213350319469,0.06774213350319469
268.777,0.06802760007399522,0.06802760007399522
268.778,0.055425464404208924,0.055425464404208924
268.779,0.03210232168476601,0.03210232168476601
268.78,0.0032367319015935703,0.0032367319015935703
268.781,0.024394449953569097,-0.024394449953569097
268.782,0.04431107556544556,-0.04431107556544556
268.783,0.052103603794607434,-0.052103603794607434
268.784,0.04652594980050173,-0.04652594980050173
268.785,0.02958277904321327,-0.02958277904321327
268.786,0.005633349909070273,-0.005633349909070273
268.787,0.020131340805237485,0.020131340805237485
268.78799999999995,0.043278946641357896,0.043278946641357896
268.789,0.06123762688244638,0.06123762688244638
268.79,0.07356026139558258,0.07356026139558258
268.791,0.08133541296973079,0.08133541296973079
268.792,0.0860637641429487,0.0860637641429487
268.793,0.08852594546038195,0.08852594546038195
268.794,0.08816557355376342,0.08816557355376342
268.795,0.08329597901634456,0.08329597901634456
268.796,0.07208870405513834,0.07208870405513834
268.797,0.05394984888540155,0.05394984888540155
268.798,0.03067684237914503,0.03067684237914503
268.799,0.006806906667489621,0.006806906667489621
268.79999999999995,0.011171114848216757,-0.011171114848216757
268.801,0.016650357650395242,-0.016650357650395242
268.802,0.005263572756665225,-0.005263572756665225
268.803,0.02303486533819954,0.02303486533819954
268.804,0.06297150949294039,0.06297150949294039
268.805,0.10456410959273321,0.10456410959273321
268.806,0.13536149400143316,0.13536149400143316
268.807,0.14378016096793478,0.14378016096793478
268.808,0.12258693416152622,0.12258693416152622
268.809,0.07144926400123452,0.07144926400123452
268.81,0.002303202758400902,-0.002303202758400902
268.811,0.08504804577176905,-0.08504804577176905
268.81199999999995,0.16006587684322626,-0.16006587684322626
268.813,0.21168732262610013,-0.21168732262610013
268.814,0.2292100419280576,-0.2292100419280576
268.815,0.2094665948834763,-0.2094665948834763
268.816,0.15733585790800653,-0.15733585790800653
268.817,0.08411856363778791,-0.08411856363778791
268.818,0.004336721959174006,-0.004336721959174006
268.819,0.06803894026536339,0.06803894026536339
268.82,0.12281762256400253,0.12281762256400253
268.821,0.155402104318356,0.155402104318356
268.822,0.16682202581437022,0.16682202581437022
268.823,0.16220818577414908,0.16220818577414908
268.824,0.14839735034089196,0.14839735034089196
268.825,0.13155644427169588,0.13155644427169588
268.826,0.1155957623725894,0.1155957623725894
268.827,0.10176709476154056,0.10176709476154056
268.828,0.08936532207205583,0.08936532207205583
268.829,0.07705129971448077,0.07705129971448077
268.83,0.06413262664777997,0.06413262664777997
268.831,0.051231630672460726,0.051231630672460726
268.832,0.04008523591737578,0.04008523591737578
268.833,0.03262448817066166,0.03262448817066166
268.834,0.029807340248640957,0.029807340248640957
268.835,0.030795439015470327,0.030795439015470327
268.836,0.03292688097999519,0.03292688097999519
268.837,0.03259731968968693,0.03259731968968693
268.838,0.026757770194186126,0.026757770194186126
268.839,0.01443408252940337,0.01443408252940337
268.84,0.002399972362473135,-0.002399972362473135
268.841,0.01906415686960028,-0.01906415686960028
268.842,0.029586865343079194,-0.029586865343079194
268.843,0.028883932806541557,-0.028883932806541557
268.844,0.014942491525156698,-0.014942491525156698
268.845,0.009833519600410234,0.009833519600410234
268.846,0.038729439786515885,0.038729439786515885
268.847,0.062410954180838196,0.062410954180838196
268.848,0.07176594231590538,0.07176594231590538
268.849,0.06101053504522058,0.06101053504522058
268.85,0.030006742080793014,0.030006742080793014
268.851,0.015065164211744753,-0.015065164211744753
268.852,0.06302946188913017,-0.06302946188913017
268.853,0.10072852659064646,-0.10072852659064646
268.854,0.11684216318808482,-0.11684216318808482
268.855,0.10532398192009329,-0.10532398192009329
268.856,0.06735124096992584,-0.06735124096992584
268.857,0.011139229040771026,-0.011139229040771026
268.858,0.05035131298402162,0.05035131298402162
268.859,0.10310987131964922,0.10310987131964922
268.86,0.13602383543142094,0.13602383543142094
268.861,0.14385736804013516,0.14385736804013516
268.862,0.12836986241490567,0.12836986241490567
268.863,0.0972967401471847,0.0972967401471847
268.864,0.06160589451477905,0.06160589451477905
268.865,0.03197819671367719,0.03197819671367719
268.866,0.015665594071854638,0.015665594071854638
268.867,0.014696898962872629,0.014696898962872629
268.868,0.025904649641223854,0.025904649641223854
268.869,0.04261641541506833,0.04261641541506833
268.87,0.057310387977512534,0.057310387977512534
268.871,0.06426017210734614,0.06426017210734614
268.872,0.06126947388723236,0.06126947388723236
268.873,0.04998038298163632,0.04998038298163632
268.874,0.03477948216056115,0.03477948216056115
268.875,0.0208247926740881,0.0208247926740881
268.876,0.01199730037218627,0.01199730037218627
268.877,0.009552622586131987,0.009552622586131987
268.878,0.011935733302414597,0.011935733302414597
268.879,0.015751860754245506,0.015751860754245506
268.88,0.017440352877851728,0.017440352877851728
268.881,0.0149417791624753,0.0149417791624753
268.882,0.008672902261650961,0.008672902261650961
268.883,0.0014133424240569958,0.0014133424240569958
268.884,0.0028533452347023758,-0.0028533452347023758
268.885,0.0006824895546211351,-0.0006824895546211351
268.886,0.009205590838605504,0.009205590838605504
268.887,0.025084718573266773,0.025084718573266773
268.888,0.04254427318723453,0.04254427318723453
268.889,0.055908322052248494,0.055908322052248494
268.89,0.0602619655144041,0.0602619655144041
268.891,0.05334477838865426,0.05334477838865426
268.892,0.03659376602440867,0.03659376602440867
268.893,0.0149084748995294,0.0149084748995294
268.894,0.004834493616829083,-0.004834493616829083
268.895,0.01603572169148182,-0.01603572169148182
268.896,0.01462503290378625,-0.01462503290378625
268.897,0.0005231814775652488,-0.0005231814775652488
268.898,0.02221186272954423,0.02221186272954423
268.899,0.046627689653220505,0.046627689653220505
268.9,0.06510285527867143,0.06510285527867143
268.90099999999995,0.0718090847241939,0.0718090847241939
268.902,0.06458439512626546,0.06458439512626546
268.903,0.04559672298489814,0.04559672298489814
268.904,0.02059394893952482,0.02059394893952482
268.905,0.002984270533565647,-0.002984270533565647
268.906,0.018381954271359136,-0.018381954271359136
268.907,0.021594523499882334,-0.021594523499882334
268.908,0.012464584162065862,-0.012464584162065862
268.909,0.005506491106882283,0.005506491106882283
268.91,0.02649958929056928,0.02649958929056928
268.911,0.04436116347676333,0.04436116347676333
268.912,0.054533187158303464,0.054533187158303464
268.91299999999995,0.05529748526240996,0.05529748526240996
268.914,0.04797948647135741,0.04797948647135741
268.915,0.03613897309581082,0.03613897309581082
268.916,0.024122301551564362,0.024122301551564362
268.917,0.015540775388722672,0.015540775388722672
268.918,0.012214876357623972,0.012214876357623972
268.919,0.013906332734224147,0.013906332734224147
268.92,0.018841043953810477,0.018841043953810477
268.921,0.02472960245545841,0.02472960245545841
268.922,0.029827715648252928,0.029827715648252928
268.923,0.03360075675116181,0.03360075675116181
268.924,0.03674677346678501,0.03674677346678501
268.92499999999995,0.040609369112734495,0.040609369112734495
268.926,0.0462647437884125,0.0462647437884125
268.927,0.053697839884044196,0.053697839884044196
268.928,0.06144306951778056,0.06144306951778056
268.929,0.0668745880208379,0.0668745880208379
268.93,0.0670666071433863,0.0670666071433863
268.931,0.05991011510113764,0.05991011510113764
268.932,0.045059628232007265,0.045059628232007265
268.933,0.024335421579422922,0.024335421579422922
268.934,0.0014026657841583745,0.0014026657841583745
268.935,0.019186215573333998,-0.019186215573333998
268.936,0.03326650340171111,-0.03326650340171111
268.93699999999995,0.038219992611154385,-0.038219992611154385
268.938,0.033630564199703894,-0.033630564199703894
268.939,0.02123629323023657,-0.02123629323023657
268.94,0.004232774561455321,-0.004232774561455321
268.941,0.01379134077675448,0.01379134077675448
268.942,0.02989163602184486,0.02989163602184486
268.943,0.04242071643076084,0.04242071643076084
268.944,0.051109065740855275,0.051109065740855275
268.945,0.056619276559044085,0.056619276559044085
268.946,0.05982254916743179,0.05982254916743179
268.947,0.061142109706258996,0.061142109706258996
268.948,0.060260991993347,0.060260991993347
268.949,0.0563230130337784,0.0563230130337784
268.95,0.04853506719370948,0.04853506719370948
268.951,0.03689574929012118,0.03689574929012118
268.952,0.022704626317043397,0.022704626317043397
268.953,0.008578787343636263,0.008578787343636263
268.954,0.0021073228532673127,-0.0021073228532673127
268.955,0.006209125080707256,-0.006209125080707256
268.956,0.0018903164791018723,-0.0018903164791018723
268.957,0.01060695386391175,0.01060695386391175
268.958,0.02881127424543295,0.02881127424543295
268.959,0.04859033454911321,0.04859033454911321
268.96,0.0652806962961876,0.0652806962961876
268.961,0.07501348287832332,0.07501348287832332
268.962,0.07579180473629998,0.07579180473629998
268.963,0.06795793711699005,0.06795793711699005
268.964,0.053903273409408925,0.053903273409408925
268.965,0.03714365091077809,0.03714365091077809
268.966,0.02110731001004673,0.02110731001004673
268.967,0.008078958469604824,0.008078958469604824
268.968,0.0013249256468308435,-0.0013249256468308435
268.969,0.007982018034526583,-0.007982018034526583
268.97,0.013492975869634383,-0.013492975869634383
268.971,0.019144418313702727,-0.019144418313702727
268.972,0.025040237102165963,-0.025040237102165963
268.973,0.029771738458175045,-0.029771738458175045
268.974,0.030789346605840873,-0.030789346605840873
268.975,0.025363851480581512,-0.025363851480581512
268.976,0.01178680409473054,-0.01178680409473054
268.977,0.009651231389036674,0.009651231389036674
268.978,0.03630463759764613,0.03630463759764613
268.979,0.06362474862141743,0.06362474862141743
268.98,0.08631500619318477,0.08631500619318477
268.981,0.09982338085403142,0.09982338085403142
268.982,0.10167181706440442,0.10167181706440442
268.983,0.09216639103769486,0.09216639103769486
268.984,0.07424091238145936,0.07424091238145936
268.985,0.05248703625670181,0.05248703625670181
268.986,0.03170764018631522,0.03170764018631522
268.987,0.01549446042570124,0.01549446042570124
268.988,0.005315778016403483,0.005315778016403483
268.989,0.0004103153717491814,0.0004103153717491814
268.99,0.0015119505987850612,-0.0015119505987850612
268.991,0.0030551553004668497,-0.0030551553004668497
268.992,0.005887022982252521,-0.005887022982252521
268.993,0.009938284601968217,-0.009938284601968217
268.994,0.013365282125789468,-0.013365282125789468
268.995,0.01329849201880462,-0.01329849201880462
268.996,0.007097583567320043,-0.007097583567320043
268.997,0.0063684483317763,0.0063684483317763
268.998,0.02592325059034839,0.02592325059034839
268.999,0.04811087162150485,0.04811087162150485
269.0,0.06809639693700187,0.06809639693700187
269.001,0.08116237416652017,0.08116237416652017
269.002,0.08428983735692563,0.08428983735692563
269.003,0.07725624519712437,0.07725624519712437
269.004,0.0628293689281827,0.0628293689281827
269.005,0.04593963325988315,0.04593963325988315
269.006,0.0320703779735525,0.0320703779735525
269.007,0.02539144056203968,0.02539144056203968
269.008,0.02727390669584495,0.02727390669584495
269.009,0.03571854890765924,0.03571854890765924
269.01,0.0459375090154579,0.0459375090154579
269.011,0.05194345155808944,0.05194345155808944
269.012,0.048651450712358324,0.048651450712358324
269.013,0.03380515142115392,0.03380515142115392
269.014,0.009069096435161628,0.009069096435161628
269.015,0.02012122935688243,-0.02012122935688243
269.016,0.045968518294396965,-0.045968518294396965
269.017,0.060590345491333464,-0.060590345491333464
269.018,0.058478517138325414,-0.058478517138325414
269.019,0.038373993104800164,-0.038373993104800164
269.02,0.003948758328789825,-0.003948758328789825
269.021,0.03696177159431735,0.03696177159431735
269.022,0.07439414259956711,0.07439414259956711
269.023,0.09898926017194842,0.09898926017194842
269.024,0.10463046154975664,0.10463046154975664
269.025,0.09021163672254762,0.09021163672254762
269.02599999999995,0.06000731253636493,0.06000731253636493
269.027,0.022521780758471,0.022521780758471
269.028,0.011863514002118714,-0.011863514002118714
269.029,0.033776388902985954,-0.033776388902985954
269.03,0.03745228293848979,-0.03745228293848979
269.031,0.022306798134990258,-0.022306798134990258
269.032,0.006959641465446698,0.006959641465446698
269.033,0.04174677291152906,0.04174677291152906
269.034,0.07202742780065363,0.07202742780065363
269.035,0.0892007627905742,0.0892007627905742
269.036,0.08851534570878328,0.08851534570878328
269.037,0.0703792453431733,0.0703792453431733
269.03799999999995,0.04019424817318984,0.04019424817318984
269.039,0.0067719830080121834,0.0067719830080121834
269.04,0.02020820264106693,-0.02020820264106693
269.041,0.03296973503291589,-0.03296973503291589
269.042,0.02784582211750708,-0.02784582211750708
269.043,0.006294687164352775,-0.006294687164352775
269.044,0.025562287223735325,0.025562287223735325
269.045,0.05873963605086385,0.05873963605086385
269.046,0.08399823980837717,0.08399823980837717
269.047,0.09450590383522317,0.09450590383522317
269.048,0.08777181491221464,0.08777181491221464
269.049,0.06629059127188297,0.06629059127188297
