Czas,AbsSum,Sum
101.569,0.01829925595771853,-0.01829925595771853
101.57,0.009599318115335431,-0.009599318115335431
101.571,0.005544136053965865,0.005544136053965865
101.572,0.025114514891250606,0.025114514891250606
101.573,0.04570365163613643,0.04570365163613643
101.574,0.06319934715926023,0.06319934715926023
101.575,0.0737774152978703,0.0737774152978703
101.576,0.07493532400390612,0.07493532400390612
101.577,0.06625653877945581,0.06625653877945581
101.578,0.04964633761782178,0.04964633761782178
101.579,0.028924184458401836,0.028924184458401836
101.58,0.008853691219866677,0.008853691219866677
101.581,0.0061244067124519574,-0.0061244067124519574
101.582,0.013082205509807099,-0.013082205509807099
101.583,0.011352744316210583,-0.011352744316210583
101.584,0.002602120955930376,-0.002602120955930376
101.585,0.009795487501844669,0.009795487501844669
101.586,0.021875202693506512,0.021875202693506512
101.587,0.030325103944476295,0.030325103944476295
101.588,0.033450357308907996,0.033450357308907996
101.589,0.031550341265005555,0.031550341265005555
101.59,0.026605610290500792,0.026605610290500792
101.591,0.021411356130899506,0.021411356130899506
101.592,0.018484706522634342,0.018484706522634342
101.593,0.019146159079449054,0.019146159079449054
101.594,0.02310349982263782,0.02310349982263782
101.595,0.028674883024757847,0.028674883024757847
101.596,0.03354595665453042,0.03354595665453042
101.597,0.035753467679392026,0.035753467679392026
101.598,0.03450132106214543,0.03450132106214543
101.599,0.030479483807704044,0.030479483807704044
101.6,0.025550216817149973,0.025550216817149973
101.601,0.02191872523377003,0.02191872523377003
101.602,0.021120417036950112,0.021120417036950112
101.603,0.0232490554905469,0.0232490554905469
101.604,0.026777120982543146,0.026777120982543146
101.605,0.029101028927444705,0.029101028927444705
101.606,0.027655995653205423,0.027655995653205423
101.607,0.02119598137027645,0.02119598137027645
101.608,0.010723099928279023,0.010723099928279023
101.609,0.0003679991993648102,-0.0003679991993648102
101.61,0.007107253062472396,-0.007107253062472396
101.611,0.004552402055866933,-0.004552402055866933
101.612,0.010318521692196603,0.010318521692196603
101.613,0.03709080095807504,0.03709080095807504
101.614,0.07137839818709146,0.07137839818709146
101.615,0.10559102716573343,0.10559102716573343
101.616,0.13089526191160306,0.13089526191160306
101.617,0.13983349112435128,0.13983349112435128
101.618,0.12878625566699808,0.12878625566699808
101.619,0.0994438857373594,0.0994438857373594
101.62,0.05871742622389631,0.05871742622389631
101.621,0.016994901179566924,0.016994901179566924
101.622,0.014811686526142065,-0.014811686526142065
101.623,0.02855893268347698,-0.02855893268347698
101.624,0.02147356485648333,-0.02147356485648333
101.625,0.002798764515783647,0.002798764515783647
101.626,0.03510141681869827,0.03510141681869827
101.627,0.06342772377568773,0.06342772377568773
101.628,0.07656676746704871,0.07656676746704871
101.629,0.06762941818793955,0.06762941818793955
101.63,0.036356787933331525,0.036356787933331525
101.631,0.010531359250056771,-0.010531359250056771
101.632,0.06109432535716386,-0.06109432535716386
101.633,0.1015302587097251,-0.1015302587097251
101.634,0.12013638418339778,-0.12013638418339778
101.635,0.11068154144034814,-0.11068154144034814
101.636,0.07418618696292778,-0.07418618696292778
101.637,0.018598401829059696,-0.018598401829059696
101.638,0.04350041344703648,0.04350041344703648
101.639,0.09843443900173177,0.09843443900173177
101.64,0.13513691470067002,0.13513691470067002
101.641,0.1479268205110178,0.1479268205110178
101.642,0.1375924367499961,0.1375924367499961
101.643,0.11056353617982984,0.11056353617982984
101.644,0.07654435095271594,0.07654435095271594
101.645,0.045424631780522695,0.045424631780522695
101.646,0.02445254960829657,0.02445254960829657
101.647,0.01650249785550084,0.01650249785550084
101.648,0.019868262938724568,0.019868262938724568
101.649,0.029500536487330864,0.029500536487330864
101.65,0.03915781248683081,0.03915781248683081
101.651,0.043692225918856575,0.043692225918856575
101.652,0.040713567519517824,0.040713567519517824
101.653,0.031140316981721483,0.031140316981721483
101.654,0.018552514351511507,0.018552514351511507
101.655,0.007664670186510625,0.007664670186510625
101.656,0.0025051469606531818,0.0025051469606531818
101.657,0.0049427590143675815,0.0049427590143675815
101.658,0.014039417454618786,0.014039417454618786
101.659,0.026399150100165247,0.026399150100165247
101.66,0.03734198013622714,0.03734198013622714
101.661,0.04247158335165713,0.04247158335165713
101.662,0.039107391488644394,0.039107391488644394
101.663,0.02713363147291359,0.02713363147291359
101.664,0.009036894571419873,0.009036894571419873
101.665,0.01082428348399278,-0.01082428348399278
101.666,0.027443427917553942,-0.027443427917553942
101.667,0.03648961517939042,-0.03648961517939042
101.668,0.03535314057436212,-0.03535314057436212
101.669,0.023665936588553982,-0.023665936588553982
101.67,0.003234058891465885,-0.003234058891465885
101.671,0.02250915715202151,0.02250915715202151
101.672,0.04931571700606452,0.04931571700606452
101.673,0.07296980641770112,0.07296980641770112
101.674,0.08999189258375528,0.08999189258375528
101.675,0.09811212394518942,0.09811212394518942
101.676,0.09650546659844128,0.09650546659844128
101.677,0.08582375787178798,0.08582375787178798
101.678,0.0680604076438438,0.0680604076438438
101.679,0.04626049260431353,0.04626049260431353
101.68,0.024072365023976694,0.024072365023976694
101.681,0.005151019826011183,0.005151019826011183
101.682,0.007526609000256701,-0.007526609000256701
101.683,0.012307263216914666,-0.012307263216914666
101.684,0.009292032992675558,-0.009292032992675558
101.685,0.00038170025059514057,-0.00038170025059514057
101.686,0.011155845437973655,0.011155845437973655
101.687,0.0215503817545577,0.0215503817545577
101.688,0.027623653739585752,0.027623653739585752
101.689,0.027794041613897758,0.027794041613897758
101.69,0.022650256277598757,0.022650256277598757
101.691,0.014850513122752762,0.014850513122752762
101.692,0.00830436327241757,0.00830436327241757
101.693,0.006839083932162371,0.006839083932162371
101.694,0.012757697291351677,0.012757697291351677
101.695,0.025781835921181884,0.025781835921181884
101.696,0.0427945626347177,0.0427945626347177
101.697,0.05856519093011192,0.05856519093011192
101.698,0.0673160625056839,0.0673160625056839
101.699,0.06468423655940736,0.06468423655940736
101.7,0.04944766411282342,0.04944766411282342
101.701,0.024400577508117305,0.024400577508117305
101.702,0.004011130026130849,-0.004011130026130849
101.703,0.02730604470437914,-0.02730604470437914
101.704,0.0374324429645605,-0.0374324429645605
101.705,0.02936579599270739,-0.02936579599270739
101.706,0.003018560307372131,-0.003018560307372131
101.707,0.036201816258605746,0.036201816258605746
101.708,0.07847045471986824,0.07847045471986824
101.709,0.11204756529931137,0.11204756529931137
101.71,0.12653958667771548,0.12653958667771548
101.711,0.11598247372734649,0.11598247372734649
101.712,0.08081926433914455,0.08081926433914455
101.713,0.028138837065048605,0.028138837065048605
101.714,0.02995925004976463,-0.02995925004976463
101.715,0.07945674358841248,-0.07945674358841248
101.716,0.10811077626260357,-0.10811077626260357
101.717,0.1087077532230375,-0.1087077532230375
101.718,0.08095641776268359,-0.08095641776268359
101.719,0.03149429627066613,-0.03149429627066613
101.72,0.02797035723359742,0.02797035723359742
101.721,0.0838242442003101,0.0838242442003101
101.722,0.12410424361650407,0.12410424361650407
101.723,0.14144120482794675,0.14144120482794675
101.724,0.13460453906654446,0.13460453906654446
101.725,0.10829618001763386,0.10829618001763386
101.726,0.07136324873166688,0.07136324873166688
101.727,0.0340442633810325,0.0340442633810325
101.728,0.005103433560698534,0.005103433560698534
101.729,0.0103205809767426,-0.0103205809767426
101.73,0.011598138633560628,-0.011598138633560628
101.731,0.002091825130597025,-0.002091825130597025
101.732,0.012462214823120377,0.012462214823120377
101.733,0.026068789764427613,0.026068789764427613
101.734,0.03438079999126131,0.03438079999126131
101.735,0.03582524080391636,0.03582524080391636
101.736,0.031674183609320394,0.031674183609320394
101.737,0.025150313665494917,0.025150313665494917
101.738,0.019963076388542333,0.019963076388542333
101.739,0.018826014442639982,0.018826014442639982
101.74,0.022468292873733864,0.022468292873733864
101.741,0.029448311178587927,0.029448311178587927
101.742,0.03678259436555242,0.03678259436555242
101.743,0.041121838298072255,0.041121838298072255
101.744,0.04003114164688659,0.04003114164688659
101.745,0.03291615298441908,0.03291615298441908
101.746,0.02127854228058612,0.02127854228058612
101.747,0.008228061473812387,0.008228061473812387
101.748,0.002562149466186159,-0.002562149466186159
101.749,0.008083801048617723,-0.008083801048617723
101.75,0.006978928945244323,-0.006978928945244323
101.751,4.97027252006621e-05,4.97027252006621e-05
101.752,0.010530776531392005,0.010530776531392005
101.753,0.021103617871353286,0.021103617871353286
101.754,0.02867096331734076,0.02867096331734076
101.755,0.03142522384368496,0.03142522384368496
101.756,0.029399805470286422,0.029399805470286422
101.757,0.024366687055875635,0.024366687055875635
101.758,0.019129301243449248,0.019129301243449248
101.759,0.01646732426772135,0.01646732426772135
101.76,0.018106764552705545,0.018106764552705545
101.761,0.02407591281991195,0.02407591281991195
101.762,0.032670847561282024,0.032670847561282024
101.763,0.04104098681893498,0.04104098681893498
101.764,0.04618908367167318,0.04618908367167318
101.765,0.04603528638412979,0.04603528638412979
101.766,0.04017123738016104,0.04017123738016104
101.767,0.030036161096877345,0.030036161096877345
101.768,0.018446655253414823,0.018446655253414823
101.769,0.008637256050305853,0.008637256050305853
101.77,0.003142231246554994,0.003142231246554994
101.771,0.00290990417415693,0.00290990417415693
101.772,0.00696644888760134,0.00696644888760134
101.773,0.012760002058076036,0.012760002058076036
101.774,0.017080437887742717,0.017080437887742717
101.775,0.01724575403426476,0.01724575403426476
101.776,0.012144155764011622,0.012144155764011622
101.777,0.0027592741130515464,0.0027592741130515464
101.778,0.008025263595312193,-0.008025263595312193
101.779,0.016301455368252227,-0.016301455368252227
101.78,0.01841499060007057,-0.01841499060007057
101.781,0.01221984847418689,-0.01221984847418689
101.782,0.002121843190256545,0.002121843190256545
101.783,0.02208260944255591,0.02208260944255591
101.784,0.04349618845520542,0.04349618845520542
101.785,0.06184090848968693,0.06184090848968693
101.786,0.07365565089703252,0.07365565089703252
101.787,0.0776078585598241,0.0776078585598241
101.788,0.07484129578908982,0.07484129578908982
101.789,0.0684714402273594,0.0684714402273594
101.79,0.0623892257865053,0.0623892257865053
101.791,0.05977945052577627,0.05977945052577627
101.792,0.061871903110884974,0.061871903110884974
101.793,0.06737822082258971,0.06737822082258971
101.794,0.07284263657115231,0.07284263657115231
101.795,0.07382291984844613,0.07382291984844613
101.796,0.06652413031493709,0.06652413031493709
101.797,0.049334375572404277,0.049334375572404277
101.798,0.023722223635469053,0.023722223635469053
101.799,0.005848163535506767,-0.005848163535506767
101.8,0.033007639296082525,-0.033007639296082525
101.801,0.0512635707700253,-0.0512635707700253
101.802,0.05591619678474202,-0.05591619678474202
101.803,0.04549411409402404,-0.04549411409402404
101.804,0.02223886839886957,-0.02223886839886957
101.805,0.008526191269137229,0.008526191269137229
101.806,0.039944228785383284,0.039944228785383284
101.807,0.06559274985212848,0.06559274985212848
101.808,0.081240330019418,0.081240330019418
101.809,0.08584043177679845,0.08584043177679845
101.81,0.08147407502343462,0.08147407502343462
101.811,0.07231059473449908,0.07231059473449908
101.812,0.06298351699411153,0.06298351699411153
101.813,0.056963471994556425,0.056963471994556425
101.814,0.05548896328954522,0.05548896328954522
101.815,0.05739830920667188,0.05739830920667188
101.816,0.0598713493275389,0.0598713493275389
101.817,0.05975847950123425,0.05975847950123425
101.818,0.054966809442158704,0.054966809442158704
101.819,0.0453638865261492,0.0453638865261492
101.82,0.032851677995362705,0.032851677995362705
101.821,0.020586651077748375,0.020586651077748375
101.822,0.011656141335336656,0.011656141335336656
101.823,0.0077412017217102225,0.0077412017217102225
101.824,0.008316449461962527,0.008316449461962527
101.825,0.010745291789912903,0.010745291789912903
101.826,0.011290561519518683,0.011290561519518683
101.827,0.006698971294551104,0.006698971294551104
101.828,0.004231200053042783,-0.004231200053042783
101.829,0.019727050988698536,-0.019727050988698536
101.83,0.035191574868796316,-0.035191574868796316
101.831,0.04448347827178678,-0.04448347827178678
101.832,0.04196338707438041,-0.04196338707438041
101.833,0.024630894888765242,-0.024630894888765242
101.834,0.00640990997560853,0.00640990997560853
101.835,0.04573626448418544,0.04573626448418544
101.836,0.08482326246165495,0.08482326246165495
101.837,0.11438373430935789,0.11438373430935789
101.838,0.12711901870933295,0.12711901870933295
101.839,0.11999050855187243,0.11999050855187243
101.84,0.09524294904884756,0.09524294904884756
101.841,0.05979958583912426,0.05979958583912426
101.842,0.02318124328321458,0.02318124328321458
101.843,0.005402268420056977,-0.005402268420056977
101.844,0.01985042298652384,-0.01985042298652384
101.845,0.01894299004961275,-0.01894299004961275
101.846,0.006497849640765274,-0.006497849640765274
101.847,0.010136598230349403,0.010136598230349403
101.848,0.0227486936664556,0.0227486936664556
101.849,0.02519196678675706,0.02519196678675706
101.85,0.01558398457090071,0.01558398457090071
101.851,0.0029731149732176165,-0.0029731149732176165
101.852,0.023402522645637358,-0.023402522645637358
101.853,0.03706127791886604,-0.03706127791886604
101.854,0.03674191469534771,-0.03674191469534771
101.855,0.019258822614615423,-0.019258822614615423
101.856,0.013252747065457982,0.013252747065457982
101.857,0.053768338405918215,0.053768338405918215
101.858,0.09240453530245141,0.09240453530245141
101.859,0.1193882316416317,0.1193882316416317
101.86,0.12800231919539273,0.12800231919539273
101.861,0.11656517905892949,0.11656517905892949
101.862,0.08883242845133821,0.08883242845133821
101.863,0.05273470333618446,0.05273470333618446
101.864,0.017904827821921376,0.017904827821921376
101.865,0.007179051567971717,-0.007179051567971717
101.866,0.017520403346514835,-0.017520403346514835
101.867,0.012704912343424302,-0.012704912343424302
101.868,0.0034842324963053617,0.0034842324963053617
101.869,0.024694924418050768,0.024694924418050768
101.87,0.04424610607674029,0.04424610607674029
101.871,0.05719262102909495,0.05719262102909495
101.872,0.061551796250108204,0.061551796250108204
101.873,0.05837140983678002,0.05837140983678002
101.874,0.0507489881628036,0.0507489881628036
101.875,0.042273524612324476,0.042273524612324476
101.876,0.03552799873991108,0.03552799873991108
101.877,0.03121497491945635,0.03121497491945635
101.878,0.028188657425228136,0.028188657425228136
101.879,0.02430775474226854,0.02430775474226854
101.88,0.017705598789041543,0.017705598789041543
101.881,0.007924355173631215,0.007924355173631215
101.882,0.003570376358102645,-0.003570376358102645
101.883,0.013722257870783072,-0.013722257870783072
101.884,0.018950991486477275,-0.018950991486477275
101.885,0.01654565041469902,-0.01654565041469902
101.886,0.005841023689335034,-0.005841023689335034
101.887,0.011293641299795043,0.011293641299795043
101.888,0.030870746417772654,0.030870746417772654
101.889,0.04798474722961443,0.04798474722961443
101.89,0.058381100993763146,0.058381100993763146
101.891,0.05983586879477709,0.05983586879477709
101.892,0.05285194050181308,0.05285194050181308
101.893,0.04042384873235805,0.04042384873235805
101.894,0.026959989158496178,0.026959989158496178
101.895,0.016754290842963426,0.016754290842963426
101.896,0.012557567001778791,0.012557567001778791
101.897,0.014754666429201091,0.014754666429201091
101.898,0.021424841977286446,0.021424841977286446
101.899,0.029235105860459187,0.029235105860459187
101.9,0.03481130833445567,0.03481130833445567
101.901,0.03606163258141226,0.03606163258141226
101.902,0.03295391710708895,0.03295391710708895
101.903,0.027460347394847817,0.027460347394847817
101.904,0.022700695751172395,0.022700695751172395
101.905,0.021619793357870343,0.021619793357870343
101.906,0.025712883724312574,0.025712883724312574
101.907,0.03429761879524462,0.03429761879524462
101.908,0.04462887831829443,0.04462887831829443
101.909,0.05283696428948792,0.05283696428948792
101.91,0.05535764839479418,0.05535764839479418
101.911,0.0503297156626108,0.0503297156626108
101.912,0.03843434341974317,0.03843434341974317
101.913,0.02284323925071874,0.02284323925071874
101.914,0.008260391364222075,0.008260391364222075
101.915,0.0006290157755222126,-0.0006290157755222126
101.916,0.0007685368096712608,-0.0007685368096712608
101.917,0.008166502886656435,0.008166502886656435
101.918,0.02356902643037495,0.02356902643037495
101.919,0.040687909218212415,0.040687909218212415
101.92,0.054144769407351356,0.054144769407351356
101.921,0.05966763143163156,0.05966763143163156
101.922,0.05545441879791135,0.05545441879791135
101.923,0.042708697709145316,0.042708697709145316
101.924,0.02517717013219456,0.02517717013219456
101.925,0.007861446506741698,0.007861446506741698
101.926,0.004644501211576446,-0.004644501211576446
101.927,0.009621114265668917,-0.009621114265668917
101.928,0.007004172802504538,-0.007004172802504538
101.929,0.0007629948790082164,0.0007629948790082164
101.93,0.009723678015826076,0.009723678015826076
101.931,0.015877250657058806,0.015877250657058806
101.932,0.016599792761813115,0.016599792761813115
101.933,0.011523916691332126,0.011523916691332126
101.934,0.002587325888078418,0.002587325888078418
101.935,0.006743899527142161,-0.006743899527142161
101.936,0.012784923183675856,-0.012784923183675856
101.937,0.01300453094725651,-0.01300453094725651
101.938,0.006978922372091523,-0.006978922372091523
101.939,0.0034002439374927196,0.0034002439374927196
101.94,0.014529024997695927,0.014529024997695927
101.941,0.022294415900951048,0.022294415900951048
101.942,0.023468932613006865,0.023468932613006865
101.943,0.01683292688895044,0.01683292688895044
101.944,0.0036612477579429648,0.0036612477579429648
101.945,0.01257370673791458,-0.01257370673791458
101.946,0.02717619602902177,-0.02717619602902177
101.947,0.03556394717969347,-0.03556394717969347
101.948,0.034555130847166216,-0.034555130847166216
101.949,0.023229826913607643,-0.023229826913607643
101.95,0.0031401579542505997,-0.0031401579542505997
101.951,0.022149968589090463,0.022149968589090463
101.952,0.04802026172718876,0.04802026172718876
101.953,0.06994599946638647,0.06994599946638647
101.954,0.0845251813881871,0.0845251813881871
101.955,0.090131714905197,0.090131714905197
101.956,0.08707794779358369,0.08707794779358369
101.957,0.07731427799716917,0.07731427799716917
101.958,0.063805769349079,0.063805769349079
101.959,0.04977954316746436,0.04977954316746436
101.96,0.03802945450880957,0.03802945450880957
101.961,0.03041302548374958,0.03041302548374958
101.962,0.027606040632496276,0.027606040632496276
101.963,0.029116682965824037,0.029116682965824037
101.964,0.03351729302850992,0.03351729302850992
101.965,0.03882902299358504,0.03882902299358504
101.966,0.042985580844183024,0.042985580844183024
101.967,0.04429827419596233,0.04429827419596233
101.968,0.041842014480805156,0.041842014480805156
101.969,0.0356845574929876,0.0356845574929876
101.97,0.026897467053432322,0.026897467053432322
101.971,0.017323974410262677,0.017323974410262677
101.972,0.009134907923062263,0.009134907923062263
101.973,0.004266888599216756,0.004266888599216756
101.974,0.0038860516862340155,0.0038860516862340155
101.975,0.008033643091131415,0.008033643091131415
101.976,0.015573766865978111,0.015573766865978111
101.977,0.02448177679504626,0.02448177679504626
101.978,0.03240624578222451,0.03240624578222451
101.979,0.037342762184346734,0.037342762184346734
101.98,0.03820944338727661,0.03820944338727661
101.981,0.03513445536942572,0.03513445536942572
101.982,0.029354143926321408,0.029354143926321408
101.983,0.022750350779887407,0.022750350779887407
101.984,0.017182988028170865,0.017182988028170865
101.985,0.01385220389612729,0.01385220389612729
101.986,0.012921558627958962,0.012921558627958962
101.987,0.013545628189668424,0.013545628189668424
101.988,0.014299931118212372,0.014299931118212372
101.989,0.013858819529281918,0.013858819529281918
101.99,0.011664418759303796,0.011664418759303796
101.991,0.008318107856968737,0.008318107856968737
101.992,0.005515165747789208,0.005515165747789208
101.993,0.005505848687181736,0.005505848687181736
101.994,0.010246158904001712,0.010246158904001712
101.995,0.020533061057873114,0.020533061057873114
101.996,0.035450186838392295,0.035450186838392295
101.997,0.052363356797966665,0.052363356797966665
101.998,0.0675249565098448,0.0675249565098448
101.999,0.07713212297051486,0.07713212297051486
102.0,0.07851096562379323,0.07851096562379323
102.001,0.07103169588434155,0.07103169588434155
102.002,0.05642698955099035,0.05642698955099035
102.003,0.03837102574901996,0.03837102574901996
102.004,0.02142005970385541,0.02142005970385541
102.005,0.009634992808826182,0.009634992808826182
102.006,0.005325545591695846,0.005325545591695846
102.007,0.008330129002342757,0.008330129002342757
102.008,0.016079887139125892,0.016079887139125892
102.009,0.024442449209726602,0.024442449209726602
102.01,0.029084406726202383,0.029084406726202383
102.011,0.026917715055267966,0.026917715055267966
102.012,0.017163359489025698,0.017163359489025698
102.013,0.0016874135689806113,0.0016874135689806113
102.014,0.015500070277483236,-0.015500070277483236
102.015,0.02942242378946136,-0.02942242378946136
102.016,0.03561333529831667,-0.03561333529831667
102.017,0.03142667608595884,-0.03142667608595884
102.018,0.016775909916330822,-0.016775909916330822
102.019,0.005907008171230244,0.005907008171230244
102.02,0.03244739358092574,0.03244739358092574
102.021,0.058160203810313504,0.058160203810313504
102.022,0.07912887404595326,0.07912887404595326
102.023,0.0931289936756734,0.0931289936756734
102.024,0.0999361232377427,0.0999361232377427
102.025,0.10097753629458106,0.10097753629458106
102.026,0.09850959573456297,0.09850959573456297
102.027,0.09464997406295028,0.09464997406295028
102.028,0.09061944559378676,0.09061944559378676
102.029,0.086447858092499,0.086447858092499
102.03,0.0812133664171697,0.0812133664171697
102.031,0.07368197699665013,0.07368197699665013
102.032,0.06306865548164242,0.06306865548164242
102.033,0.04960271161719354,0.04960271161719354
102.034,0.03466073122578406,0.03466073122578406
102.035,0.020399154165555045,0.020399154165555045
102.036,0.009013660681063795,0.009013660681063795
102.037,0.0019026979166982816,0.0019026979166982816
102.038,0.0009374490007523217,-0.0009374490007523217
102.039,0.0010286616362189527,-0.0010286616362189527
102.04,0.0009485878670987269,-0.0009485878670987269
102.041,0.003409159702458253,-0.003409159702458253
102.042,0.01017265242614851,-0.01017265242614851
102.043,0.02118440047260728,-0.02118440047260728
102.044,0.03425633518930815,-0.03425633518930815
102.045,0.04547260756669269,-0.04547260756669269
102.046,0.0502569542418102,-0.0502569542418102
102.047,0.04481478241838521,-0.04481478241838521
102.048,0.02751576897239194,-0.02751576897239194
102.049,0.00023335435001525795,0.00023335435001525795
102.05,0.03394965943892325,0.03394965943892325
102.051,0.06695628605834947,0.06695628605834947
102.052,0.0919967186809787,0.0919967186809787
102.053,0.10315710124415878,0.10315710124415878
102.054,0.09755421433970102,0.09755421433970102
102.055,0.07628542064358013,0.07628542064358013
102.056,0.044327577002117424,0.044327577002117424
102.057,0.009363761178390106,0.009363761178390106
102.058,0.020173159581112654,-0.020173159581112654
102.059,0.03731374326931303,-0.03731374326931303
102.06,0.03840380812979316,-0.03840380812979316
102.061,0.0240626456734665,-0.0240626456734665
102.062,0.0010403420533657837,0.0010403420533657837
102.063,0.029542813250562627,0.029542813250562627
102.064,0.05350195841742855,0.05350195841742855
102.065,0.06665632889536321,0.06665632889536321
102.066,0.0661778631458878,0.0661778631458878
102.067,0.05339710429092692,0.05339710429092692
102.068,0.03328505959250383,0.03328505959250383
102.069,0.012847458349423135,0.012847458349423135
102.07,0.0010802328520369553,-0.0010802328520369553
102.071,0.003959212319606276,-0.003959212319606276
102.072,0.005066067164841925,0.005066067164841925
102.073,0.02295871142034267,0.02295871142034267
102.074,0.04382857213131586,0.04382857213131586
102.075,0.06089300079984472,0.06089300079984472
102.076,0.06872957010554015,0.06872957010554015
102.077,0.0650840384366218,0.0650840384366218
102.078,0.05162688100921686,0.05162688100921686
102.079,0.03338497101621485,0.03338497101621485
102.08,0.017009529308755544,0.017009529308755544
102.081,0.008437575964498123,0.008437575964498123
102.082,0.010728658056839757,0.010728658056839757
102.083,0.0228294723882827,0.0228294723882827
102.084,0.03973491109724536,0.03973491109724536
102.085,0.05405906507324776,0.05405906507324776
102.086,0.05854915023010254,0.05854915023010254
102.087,0.048729957441569605,0.048729957441569605
102.088,0.024779118732640493,0.024779118732640493
102.089,0.008054117411637973,-0.008054117411637973
102.09,0.04071927841385625,-0.04071927841385625
102.091,0.06300186803324892,-0.06300186803324892
102.092,0.06673164850423174,-0.06673164850423174
102.093,0.0485371193835239,-0.0485371193835239
102.094,0.011223536149957636,-0.011223536149957636
102.095,0.03673537418009887,0.03673537418009887
102.096,0.08350448578479575,0.08350448578479575
102.097,0.11731637219469815,0.11731637219469815
102.098,0.12996103868820175,0.12996103868820175
102.099,0.11922894601679879,0.11922894601679879
102.1,0.08951700979692911,0.08951700979692911
102.101,0.050390384072933614,0.050390384072933614
102.102,0.013553509746867975,0.013553509746867975
102.103,0.010796501861318974,-0.010796501861318974
102.104,0.017057861873548852,-0.017057861873548852
102.105,0.005761936268199208,-0.005761936268199208
102.106,0.01691618459292199,0.01691618459292199
102.107,0.04147777924547347,0.04147777924547347
102.108,0.0584477093729332,0.0584477093729332
102.109,0.06161016351364146,0.06161016351364146
102.11,0.0500449994535499,0.0500449994535499
102.111,0.028295787563695107,0.028295787563695107
102.112,0.004644559351757893,0.004644559351757893
102.113,0.011883947459001898,-0.011883947459001898
102.114,0.014736591544414424,-0.014736591544414424
102.115,0.002149170333068273,-0.002149170333068273
102.116,0.022226403278511997,0.022226403278511997
102.117,0.050583915303720195,0.050583915303720195
102.118,0.07365425958312222,0.07365425958312222
102.119,0.0838748684094317,0.0838748684094317
102.12,0.07793039156098702,0.07793039156098702
102.121,0.05779157842983973,0.05779157842983973
102.122,0.029916824796329955,0.029916824796329955
102.123,0.0029302270233679817,0.0029302270233679817
102.124,0.015379211740103038,-0.015379211740103038
102.125,0.020667446613329532,-0.020667446613329532
102.126,0.013342354459478734,-0.013342354459478734
102.127,0.0018632348701110857,0.0018632348701110857
102.128,0.017854447370810433,0.017854447370810433
102.129,0.027925317013541617,0.027925317013541617
102.13,0.02827661054822439,0.02827661054822439
102.131,0.019379426547995626,0.019379426547995626
102.132,0.005698079097026465,0.005698079097026465
102.133,0.006105134888927943,-0.006105134888927943
102.134,0.009800202222074117,-0.009800202222074117
102.135,0.002064687529328646,-0.002064687529328646
102.136,0.016127175280795658,0.016127175280795658
102.137,0.03973004538924618,0.03973004538924618
102.138,0.06139719902169993,0.06139719902169993
102.139,0.07414899308781275,0.07414899308781275
102.14,0.073955790480144,0.073955790480144
102.141,0.06127439403554069,0.06127439403554069
102.142,0.040955982284445414,0.040955982284445414
102.143,0.020540565827662727,0.020540565827662727
102.144,0.00754933233056021,0.00754933233056021
102.145,0.006761863812527524,0.006761863812527524
102.146,0.0184796874505726,0.0184796874505726
102.147,0.038422496111388815,0.038422496111388815
102.148,0.05930632764665522,0.05930632764665522
102.149,0.07353203610332115,0.07353203610332115
102.15,0.0759964472855088,0.0759964472855088
102.151,0.06598334522268501,0.06598334522268501
102.152,0.0474213001660968,0.0474213001660968
102.153,0.02739313505703067,0.02739313505703067
102.154,0.013430332977215409,0.013430332977215409
102.155,0.01058643802777337,0.01058643802777337
102.156,0.019384113832670913,0.019384113832670913
102.157,0.03542873263531332,0.03542873263531332
102.158,0.05088201586328034,0.05088201586328034
102.159,0.05730755844582203,0.05730755844582203
102.16,0.048884149754961914,0.048884149754961914
102.161,0.024823344962794813,0.024823344962794813
102.162,0.009912166909591291,-0.009912166909591291
102.163,0.04590196808969216,-0.04590196808969216
102.164,0.07217367880880299,-0.07217367880880299
102.165,0.07974399603969518,-0.07974399603969518
102.166,0.06458323943757072,-0.06458323943757072
102.167,0.028985971757822915,-0.028985971757822915
102.168,0.01911486138452312,0.01911486138452312
102.169,0.06863604999229422,0.06863604999229422
102.17,0.10875867682253504,0.10875867682253504
102.171,0.1320891494594585,0.1320891494594585
102.172,0.13650674005164665,0.13650674005164665
102.173,0.12513415126515692,0.12513415126515692
102.174,0.10455619412408645,0.10455619412408645
102.175,0.0820388079751262,0.0820388079751262
102.176,0.06283687451078857,0.06283687451078857
102.177,0.04860352879778729,0.04860352879778729
102.178,0.03745807180758698,0.03745807180758698
102.179,0.025607767365559253,0.025607767365559253
102.18,0.00980183852828076,0.00980183852828076
102.181,0.01044075460076277,-0.01044075460076277
102.182,0.03181303884723108,-0.03181303884723108
102.183,0.04793001972083777,-0.04793001972083777
102.184,0.05160209277770056,-0.05160209277770056
102.185,0.03786108008727651,-0.03786108008727651
102.186,0.006568689095456937,-0.006568689095456937
102.187,0.036487763859744504,0.036487763859744504
102.188,0.08060850169373523,0.08060850169373523
102.189,0.1131454326086152,0.1131454326086152
102.19,0.12351972289239521,0.12351972289239521
102.191,0.106943237255954,0.106943237255954
102.192,0.06650770298997766,0.06650770298997766
102.193,0.012799116251996034,0.012799116251996034
102.194,0.03898880600136678,-0.03898880600136678
102.195,0.07360717207348977,-0.07360717207348977
102.196,0.08053095187916959,-0.08053095187916959
102.197,0.057395648043634284,-0.057395648043634284
102.198,0.010925524763304217,-0.010925524763304217
102.199,0.045005203718686104,0.045005203718686104
102.2,0.0935943447722607,0.0935943447722607
102.201,0.12027500495469634,0.12027500495469634
102.202,0.11716357581559911,0.11716357581559911
102.203,0.08537238137374548,0.08537238137374548
102.204,0.034474576993649864,0.034474576993649864
102.205,0.020653041708965647,-0.020653041708965647
102.206,0.0645328422127075,-0.0645328422127075
102.207,0.08577977274344717,-0.08577977274344717
102.208,0.08027905249103917,-0.08027905249103917
102.209,0.05189076991869723,-0.05189076991869723
102.21,0.010576611784561929,-0.010576611784561929
102.211,0.03129601363451928,0.03129601363451928
102.212,0.06314165311899367,0.06314165311899367
102.213,0.07940184759563818,0.07940184759563818
102.214,0.08080205049990896,0.08080205049990896
102.215,0.07330726241833485,0.07330726241833485
102.216,0.06527558479147633,0.06527558479147633
102.217,0.06391793756048081,0.06391793756048081
102.218,0.07237318735529996,0.07237318735529996
102.219,0.08844369291598753,0.08844369291598753
102.22,0.10541288323550058,0.10541288323550058
102.221,0.11461188829762103,0.11461188829762103
102.222,0.10878357531818716,0.10878357531818716
102.223,0.08502197473866313,0.08502197473866313
102.224,0.046228445603513135,0.046228445603513135
102.225,0.0005556260387831191,0.0005556260387831191
102.226,0.04098605377585851,-0.04098605377585851
102.227,0.0679535873524586,-0.0679535873524586
102.228,0.07377897948481937,-0.07377897948481937
102.229,0.05786291186704262,-0.05786291186704262
102.23,0.02577850738220655,-0.02577850738220655
102.231,0.012456315512882954,0.012456315512882954
102.232,0.04545043418021932,0.04545043418021932
102.233,0.06385292121648845,0.06385292121648845
102.234,0.0630335339025403,0.0630335339025403
102.235,0.04423277176609641,0.04423277176609641
102.236,0.013902318529222635,0.013902318529222635
102.237,0.018465727605185944,-0.018465727605185944
102.238,0.04327546061591614,-0.04327546061591614
102.239,0.053601954899867965,-0.053601954899867965
102.24,0.04699676736001346,-0.04699676736001346
102.241,0.025875838902827075,-0.025875838902827075
102.242,0.0034955922860695487,0.0034955922860695487
102.243,0.03299537146992049,0.03299537146992049
102.244,0.05495175078695147,0.05495175078695147
102.245,0.06409359354949729,0.06409359354949729
102.246,0.0586617789075361,0.0586617789075361
102.247,0.040503187325150236,0.040503187325150236
102.248,0.014273752242245807,0.014273752242245807
102.249,0.01390910590993688,-0.01390910590993688
102.25,0.037948917747997024,-0.037948917747997024
102.251,0.05302741594553173,-0.05302741594553173
102.252,0.05641436999070193,-0.05641436999070193
102.253,0.04776310222565061,-0.04776310222565061
102.254,0.028944697178869272,-0.028944697178869272
102.255,0.0035350014782341566,-0.0035350014782341566
102.256,0.02392094582329829,0.02392094582329829
102.257,0.04875454629733622,0.04875454629733622
102.258,0.06702344223804624,0.06702344223804624
102.259,0.07624880343924922,0.07624880343924922
102.26,0.07590593402958956,0.07590593402958956
102.261,0.0675362774198982,0.0675362774198982
102.262,0.05439677856779368,0.05439677856779368
102.263,0.04066384715629212,0.04066384715629212
102.264,0.030343464098048667,0.030343464098048667
102.265,0.02616104433455968,0.02616104433455968
102.266,0.028760855257277784,0.028760855257277784
102.267,0.0364963387907733,0.0364963387907733
102.268,0.0459360398885893,0.0459360398885893
102.269,0.052984500766011244,0.052984500766011244
102.27,0.05429655412953194,0.05429655412953194
102.271,0.04852904200047914,0.04852904200047914
102.272,0.03698597296070272,0.03698597296070272
102.273,0.023383390109255497,0.023383390109255497
102.274,0.01274310164478587,0.01274310164478587
102.275,0.009728531191617984,0.009728531191617984
102.276,0.016954336409410686,0.016954336409410686
102.277,0.03384996850367328,0.03384996850367328
102.278,0.05650708315181263,0.05650708315181263
102.279,0.07863199993536951,0.07863199993536951
102.28,0.09335619999724032,0.09335619999724032
102.281,0.09535518385265718,0.09535518385265718
102.282,0.08259653901576214,0.08259653901576214
102.283,0.057133160401144245,0.057133160401144245
102.284,0.024652236492012536,0.024652236492012536
102.285,0.0071099162387494586,-0.0071099162387494586
102.286,0.03060587507254664,-0.03060587507254664
102.287,0.040669406083847615,-0.040669406083847615
102.288,0.03597462791881523,-0.03597462791881523
102.289,0.019311459706771728,-0.019311459706771728
102.29,0.003390247168616023,0.003390247168616023
102.291,0.024954989169535535,0.024954989169535535
102.292,0.03915665999686624,0.03915665999686624
102.293,0.04251990853688503,0.04251990853688503
102.294,0.035184573123110185,0.035184573123110185
102.295,0.02061198783921303,0.02061198783921303
102.296,0.004291797620836091,0.004291797620836091
102.297,0.008082726646291283,-0.008082726646291283
102.298,0.012363112502397189,-0.012363112502397189
102.299,0.007076997893058823,-0.007076997893058823
102.3,0.006359758983828234,0.006359758983828234
102.301,0.024332749007701437,0.024332749007701437
102.302,0.042315544984029785,0.042315544984029785
102.303,0.05628670722341722,0.05628670722341722
102.304,0.06381907801635278,0.06381907801635278
102.305,0.06454258633877075,0.06454258633877075
102.306,0.05992288060874995,0.05992288060874995
102.307,0.052529097667722846,0.052529097667722846
102.308,0.045105678836480534,0.045105678836480534
102.309,0.039776291175465994,0.039776291175465994
102.31,0.03760450171332863,0.03760450171332863
102.311,0.038569604102860255,0.038569604102860255
102.312,0.041858156048290684,0.041858156048290684
102.313,0.04628195217466646,0.04628195217466646
102.314,0.05063686640832876,0.05063686640832876
102.315,0.05389846473831761,0.05389846473831761
102.316,0.055262360516252995,0.055262360516252995
102.317,0.05412372044879099,0.05412372044879099
102.318,0.05011076395986902,0.05011076395986902
102.319,0.0432342623245503,0.0432342623245503
102.32,0.0341172647849739,0.0341172647849739
102.321,0.02417745693828599,0.02417745693828599
102.322,0.015599230449386381,0.015599230449386381
102.323,0.010980738434019699,0.010980738434019699
102.324,0.0126628803158233,0.0126628803158233
102.325,0.021897140723748487,0.021897140723748487
102.326,0.0381243129935831,0.0381243129935831
102.327,0.058660784264888965,0.058660784264888965
102.328,0.07899918377018111,0.07899918377018111
102.329,0.09374566715098864,0.09374566715098864
102.33,0.09799616672807998,0.09799616672807998
102.331,0.08877680901467211,0.08877680901467211
102.332,0.06610781538535737,0.06610781538535737
102.333,0.03332787659934877,0.03332787659934877
102.334,0.0034802400558046065,-0.0034802400558046065
102.335,0.03685501206449715,-0.03685501206449715
102.336,0.059760999764600475,-0.059760999764600475
102.337,0.06734221300926724,-0.06734221300926724
102.338,0.058143312526249935,-0.058143312526249935
102.339,0.034473580183940644,-0.034473580183940644
102.34,0.0018369754216830403,-0.0018369754216830403
102.341,0.032388499369683466,0.032388499369683466
102.342,0.060648419749570914,0.060648419749570914
102.343,0.07684480655728043,0.07684480655728043
102.344,0.07752574073228602,0.07752574073228602
102.345,0.0624129274701557,0.0624129274701557
102.346,0.03424237094040672,0.03424237094040672
102.347,0.0019431237813964941,-0.0019431237813964941
102.348,0.03982134373988233,-0.03982134373988233
102.349,0.0729034998965884,-0.0729034998965884
102.35,0.0955521385668533,-0.0955521385668533
102.351,0.1037973010102603,-0.1037973010102603
102.352,0.09589920490008708,-0.09589920490008708
102.353,0.0726249281905319,-0.0726249281905319
102.354,0.03719923545666881,-0.03719923545666881
102.355,0.00511515680126573,0.00511515680126573
102.356,0.04782347214735516,0.04782347214735516
102.357,0.08432893922879958,0.08432893922879958
102.358,0.1092135036670121,0.1092135036670121
102.359,0.1193921292040856,0.1193921292040856
102.36,0.11482169707643508,0.11482169707643508
102.361,0.09850613207635961,0.09850613207635961
102.362,0.07570842150218571,0.07570842150218571
102.363,0.05251818157689736,0.05251818157689736
102.364,0.03415370510994564,0.03415370510994564
102.365,0.023511583848696338,0.023511583848696338
102.366,0.02044908603729123,0.02044908603729123
102.367,0.022080847775949097,0.022080847775949097
102.368,0.024043577714653486,0.024043577714653486
102.369,0.022335563190179153,0.022335563190179153
102.37,0.015096959569827817,0.015096959569827817
102.371,0.003662041354845158,0.003662041354845158
102.372,0.00757993339158014,-0.00757993339158014
102.373,0.012583755219353399,-0.012583755219353399
102.374,0.005917014136196497,-0.005917014136196497
102.375,0.014853379599947925,0.014853379599947925
102.376,0.04753350044943083,0.04753350044943083
102.377,0.0851308667147781,0.0851308667147781
102.378,0.11739002776200058,0.11739002776200058
102.379,0.13370812185911007,0.13370812185911007
102.38,0.12658612204377873,0.12658612204377873
102.381,0.09450124831459661,0.09450124831459661
102.382,0.043175607038040686,0.043175607038040686
102.383,0.01533870253951164,-0.01533870253951164
102.384,0.06566391358677204,-0.06566391358677204
102.385,0.09340626782781825,-0.09340626782781825
102.386,0.08951051274585708,-0.08951051274585708
102.387,0.05330502978591256,-0.05330502978591256
102.388,0.006778434795666088,0.006778434795666088
102.389,0.07514859500490556,0.07514859500490556
102.39,0.13318952697429043,0.13318952697429043
102.391,0.1644267878741419,0.1644267878741419
102.392,0.15922230294552708,0.15922230294552708
102.393,0.11761147600372146,0.11761147600372146
102.394,0.04943803595054019,0.04943803595054019
102.395,0.02825803473103561,-0.02825803473103561
102.396,0.09583602440234007,-0.09583602440234007
102.397,0.13630293014713502,-0.13630293014713502
102.398,0.13972717746460406,-0.13972717746460406
102.399,0.10561897909578077,-0.10561897909578077
102.4,0.042709287936721685,-0.042709287936721685
102.401,0.03367510898278825,0.03367510898278825
102.402,0.10578060140081469,0.10578060140081469
102.403,0.1579137327208835,0.1579137327208835
102.404,0.18003715032450862,0.18003715032450862
102.405,0.1696281039174019,0.1696281039174019
102.406,0.13151880184880693,0.13151880184880693
102.407,0.07601504182114649,0.07601504182114649
102.408,0.016003513308205708,0.016003513308205708
102.409,0.03609282129111557,-0.03609282129111557
102.41,0.07077141990224833,-0.07077141990224833
102.411,0.0828832910258761,-0.0828832910258761
102.412,0.07196454728236412,-0.07196454728236412
102.413,0.04167351088640514,-0.04167351088640514
102.414,0.001322684229664084,0.001322684229664084
102.415,0.04868458959219191,0.04868458959219191
102.416,0.09174578121283083,0.09174578121283083
102.417,0.12277683411513607,0.12277683411513607
102.418,0.13613969350848554,0.13613969350848554
102.419,0.12927660437360133,0.12927660437360133
102.42,0.10338917554034888,0.10338917554034888
102.421,0.06358273908296108,0.06358273908296108
102.422,0.018254186105532533,0.018254186105532533
102.423,0.022369199952961605,-0.022369199952961605
102.424,0.04839198616036722,-0.04839198616036722
102.425,0.05268918947472623,-0.05268918947472623
102.426,0.03299234330783396,-0.03299234330783396
102.427,0.007036591909900469,0.007036591909900469
102.428,0.05821130868153901,0.05821130868153901
102.429,0.10779024836606999,0.10779024836606999
102.43,0.142620268564982,0.142620268564982
102.431,0.15265986435908485,0.15265986435908485
102.432,0.13389057962138273,0.13389057962138273
102.433,0.08972521254194521,0.08972521254194521
102.434,0.030409525335413745,0.030409525335413745
102.435,0.02951535231596858,-0.02951535231596858
102.436,0.07504219399044243,-0.07504219399044243
102.437,0.09476420868081548,-0.09476420868081548
102.438,0.08402502866017425,-0.08402502866017425
102.439,0.0462445673842542,-0.0462445673842542
102.44,0.007966370840372994,0.007966370840372994
102.441,0.06365359401505177,0.06365359401505177
102.442,0.10552209124057432,0.10552209124057432
102.443,0.12197410594403024,0.12197410594403024
102.444,0.10808327020504938,0.10808327020504938
102.445,0.06674022732468199,0.06674022732468199
102.446,0.007741590361943773,0.007741590361943773
102.447,0.05483620285250601,-0.05483620285250601
102.448,0.10620095600472967,-0.10620095600472967
102.449,0.13438236725500852,-0.13438236725500852
102.45,0.1328704007539222,-0.1328704007539222
102.451,0.10179609163015668,-0.10179609163015668
102.452,0.04751945438089489,-0.04751945438089489
102.453,0.01911068879972322,0.01911068879972322
102.454,0.08528739950357478,0.08528739950357478
102.455,0.1389334656491905,0.1389334656491905
102.456,0.1709827933911392,0.1709827933911392
102.457,0.1768706816090877,0.1768706816090877
102.458,0.15706359755876487,0.15706359755876487
102.459,0.1166502291501339,0.1166502291501339
102.46,0.06415213048275925,0.06415213048275925
102.461,0.009794881869381378,0.009794881869381378
102.462,0.03647195057364394,-0.03647195057364394
102.463,0.06688819198656282,-0.06688819198656282
102.464,0.077398923504429,-0.077398923504429
102.465,0.06846369059398638,-0.06846369059398638
102.466,0.04493299259222472,-0.04493299259222472
102.467,0.014926417903871836,-0.014926417903871836
102.468,0.012128383725131142,0.012128383725131142
102.469,0.027896395221175485,0.027896395221175485
102.47,0.02739543687758439,0.02739543687758439
102.471,0.01049097483985939,0.01049097483985939
102.472,0.017862424606839844,-0.017862424606839844
102.473,0.04881231884280224,-0.04881231884280224
102.474,0.07200442322122391,-0.07200442322122391
102.475,0.07856966976204449,-0.07856966976204449
102.476,0.06385358525019291,-0.06385358525019291
102.477,0.029049593509373195,-0.029049593509373195
102.478,0.01882551184986725,0.01882551184986725
102.479,0.06869969931557596,0.06869969931557596
102.48,0.10850771743672816,0.10850771743672816
102.481,0.12867252019754272,0.12867252019754272
102.482,0.12496207447737406,0.12496207447737406
102.483,0.09983111761479146,0.09983111761479146
102.484,0.06179848318878833,0.06179848318878833
102.485,0.023007197187407735,0.023007197187407735
102.486,0.004320818545306193,-0.004320818545306193
102.487,0.011472933737318392,-0.011472933737318392
102.488,0.004206580649455338,0.004206580649455338
102.489,0.038574464572501244,0.038574464572501244
102.49,0.08195942417741264,0.08195942417741264
102.491,0.12203561539350405,0.12203561539350405
102.492,0.14740655307611927,0.14740655307611927
102.493,0.15081296293524504,0.15081296293524504
102.494,0.13102631684873645,0.13102631684873645
102.495,0.09292413581028747,0.09292413581028747
102.496,0.045816431908381805,0.045816431908381805
102.497,0.0006179938141510632,0.0006179938141510632
102.498,0.033225269436069516,-0.033225269436069516
102.499,0.05013397212933379,-0.05013397212933379
102.5,0.049467576218441334,-0.049467576218441334
102.501,0.035076044283650076,-0.035076044283650076
102.502,0.013613827326983685,-0.013613827326983685
102.503,0.00775173325372247,0.00775173325372247
102.504,0.02348561027638385,0.02348561027638385
102.505,0.03105822968279326,0.03105822968279326
102.506,0.031228663884334873,0.031228663884334873
102.507,0.02729160259964014,0.02729160259964014
102.508,0.023651068636193484,0.023651068636193484
102.509,0.024239425525818037,0.024239425525818037
102.51,0.031272796512025414,0.031272796512025414
102.511,0.0446588958466787,0.0446588958466787
102.512,0.06213006538212551,0.06213006538212551
102.513,0.0799531334201049,0.0799531334201049
102.514,0.09393583236891279,0.09393583236891279
102.515,0.10043073921937062,0.10043073921937062
102.516,0.09711097162086202,0.09711097162086202
102.517,0.08340733493782992,0.08340733493782992
102.518,0.060600849817035396,0.060600849817035396
102.519,0.03162357394746662,0.03162357394746662
102.52,0.0006310366762027897,0.0006310366762027897
102.521,0.027605375771594054,-0.027605375771594054
102.522,0.04844485565773715,-0.04844485565773715
102.523,0.05819741115908761,-0.05819741115908761
102.524,0.05489966164985549,-0.05489966164985549
102.525,0.038872530486350865,-0.038872530486350865
102.526,0.012870000923756897,-0.012870000923756897
102.527,0.01831816732670588,0.01831816732670588
102.528,0.04881700980682169,0.04881700980682169
102.529,0.07300255407383283,0.07300255407383283
102.53,0.08689608272141625,0.08689608272141625
102.531,0.08921135295136229,0.08921135295136229
102.532,0.08170094161449448,0.08170094161449448
102.533,0.06863078633704811,0.06863078633704811
102.534,0.0554783153169458,0.0554783153169458
102.535,0.047212919706268064,0.047212919706268064
102.536,0.046682891594843845,0.046682891594843845
102.537,0.053632370737663804,0.053632370737663804
102.538,0.0646925956991804,0.0646925956991804
102.539,0.07438531574014307,0.07438531574014307
102.54,0.07684326016640264,0.07684326016640264
102.541,0.0677083970842225,0.0677083970842225
102.542,0.04560145990730802,0.04560145990730802
102.543,0.012693337255933024,0.012693337255933024
102.544,0.025794758005088236,-0.025794758005088236
102.545,0.06298285728582032,-0.06298285728582032
102.546,0.09215113930891727,-0.09215113930891727
102.547,0.10840388575133286,-0.10840388575133286
102.548,0.10968331376757412,-0.10968331376757412
102.549,0.09689249979970582,-0.09689249979970582
102.55,0.07320930844056994,-0.07320930844056994
102.551,0.04294185069676859,-0.04294185069676859
102.552,0.010391740202455146,-0.010391740202455146
102.553,0.02088276128141109,0.02088276128141109
102.554,0.04823688506376422,0.04823688506376422
102.555,0.0696532890870496,0.0696532890870496
102.556,0.08332029416750597,0.08332029416750597
102.557,0.08744647151993723,0.08744647151993723
102.558,0.08055194201250848,0.08055194201250848
102.559,0.06221551394949998,0.06221551394949998
102.56,0.03397843825247859,0.03397843825247859
102.561,6.333314736017837e-05,-6.333314736017837e-05
102.562,0.033417705041064116,-0.033417705041064116
102.563,0.05830819407853727,-0.05830819407853727
102.564,0.06757333123308806,-0.06757333123308806
102.565,0.05682869605380303,-0.05682869605380303
102.566,0.026165146991730004,-0.026165146991730004
102.567,0.019286607565298652,0.019286607565298652
102.568,0.07027400459744348,0.07027400459744348
102.569,0.11568383775425839,0.11568383775425839
102.57,0.14552205232991033,0.14552205232991033
102.571,0.15368789513651926,0.15368789513651926
102.572,0.1396298917588379,0.1396298917588379
102.573,0.10831082077412013,0.10831082077412013
102.574,0.06847120333651113,0.06847120333651113
102.575,0.02977116925661294,0.02977116925661294
102.576,0.00020655718055595518,-0.00020655718055595518
102.577,0.018050601184626203,-0.018050601184626203
102.578,0.024989601304578835,-0.024989601304578835
102.579,0.025607352059800803,-0.025607352059800803
102.58,0.02533253379946543,-0.02533253379946543
102.581,0.027705693416480992,-0.027705693416480992
102.582,0.03253283642193028,-0.03253283642193028
102.583,0.03571856707974419,-0.03571856707974419
102.584,0.030934471378778916,-0.030934471378778916
102.585,0.012548949280038024,-0.012548949280038024
102.586,0.02130239043709392,0.02130239043709392
102.587,0.06677185118496154,0.06677185118496154
102.588,0.11441053415303304,0.11441053415303304
102.589,0.1515463721381065,0.1515463721381065
102.59,0.16628622438620222,0.16628622438620222
102.591,0.15182113528095087,0.15182113528095087
102.592,0.10947715616449116,0.10947715616449116
102.593,0.04927490670357959,0.04927490670357959
102.594,0.012442717064119369,-0.012442717064119369
102.595,0.05774382769222741,-0.05774382769222741
102.596,0.07275649616415292,-0.07275649616415292
102.597,0.052371329749994366,-0.052371329749994366
102.598,0.002348911867984027,-0.002348911867984027
102.599,0.06201785969967122,0.06201785969967122
102.6,0.12040603114036164,0.12040603114036164
102.601,0.1537675452169156,0.1537675452169156
102.602,0.150419696704869,0.150419696704869
102.603,0.10991479760134704,0.10991479760134704
102.604,0.043374571483733027,0.043374571483733027
102.605,0.029873984467465586,-0.029873984467465586
102.606,0.08829933315961258,-0.08829933315961258
102.607,0.11485937414885505,-0.11485937414885505
102.608,0.10221244370452143,-0.10221244370452143
102.609,0.054768750627462004,-0.054768750627462004
102.61,0.013030699391351597,0.013030699391351597
102.611,0.08155717341541568,0.08155717341541568
102.612,0.13227935263506896,0.13227935263506896
102.613,0.15336753455347552,0.15336753455347552
102.614,0.14278441667354858,0.14278441667354858
102.615,0.10794496399372755,0.10794496399372755
102.616,0.06224049242630003,0.06224049242630003
102.617,0.019803676050337726,0.019803676050337726
102.618,0.009537168272067631,-0.009537168272067631
102.619,0.023299624048549905,-0.023299624048549905
102.62,0.026351278418305868,-0.026351278418305868
102.621,0.02798528491788954,-0.02798528491788954
102.622,0.037264242219696375,-0.037264242219696375
102.623,0.05846983678909656,-0.05846983678909656
102.624,0.08845807175576648,-0.08845807175576648
102.625,0.11701794121746045,-0.11701794121746045
102.626,0.13021845694928857,-0.13021845694928857
102.627,0.1156068438313066,-0.1156068438313066
102.628,0.06739582040800374,-0.06739582040800374
102.629,0.010284525757345175,0.010284525757345175
102.63,0.10336537512125887,0.10336537512125887
102.631,0.1912396040695985,0.1912396040695985
102.632,0.2525837127356547,0.2525837127356547
102.633,0.27174036659698153,0.27174036659698153
102.634,0.2435735232852696,0.2435735232852696
102.635,0.17519433363466086,0.17519433363466086
102.636,0.08398603637616064,0.08398603637616064
102.637,0.007427577247195227,-0.007427577247195227
102.638,0.07764101198494022,-0.07764101198494022
102.639,0.1123029952261112,-0.1123029952261112
102.64,0.10755199050443309,-0.10755199050443309
102.641,0.07012786203323829,-0.07012786203323829
102.642,0.014360826957429795,-0.014360826957429795
102.643,0.0427611551840823,0.0427611551840823
102.644,0.08670796700904693,0.08670796700904693
102.645,0.10905564056274941,0.10905564056274941
102.646,0.10866716345431504,0.10866716345431504
102.647,0.09035618161256154,0.09035618161256154
102.648,0.061877507421623346,0.061877507421623346
102.649,0.030603182149271824,0.030603182149271824
102.65,0.0012098529395678792,0.0012098529395678792
102.651,0.024836637621023394,-0.024836637621023394
102.652,0.04803011132362478,-0.04803011132362478
102.653,0.06860141820924326,-0.06860141820924326
102.654,0.08452983190174057,-0.08452983190174057
102.655,0.0908900451758412,-0.0908900451758412
102.656,0.08105891453194203,-0.08105891453194203
102.657,0.04948195966565039,-0.04948195966565039
102.658,0.005044356249789939,0.005044356249789939
102.659,0.07697905273738348,0.07697905273738348
102.66,0.15374959496885365,0.15374959496885365
102.661,0.21809655851785847,0.21809655851785847
102.662,0.2526124791284099,0.2526124791284099
102.663,0.2451530643987565,0.2451530643987565
102.664,0.1933283108135717,0.1933283108135717
102.665,0.10642292105792017,0.10642292105792017
102.666,0.003835518634181412,0.003835518634181412
102.667,0.0897643160915349,-0.0897643160915349
102.668,0.15125163725776192,-0.15125163725776192
102.669,0.16579549272045147,-0.16579549272045147
102.67,0.13141833127452485,-0.13141833127452485
102.671,0.05985225223475865,-0.05985225223475865
102.672,0.026697733650703936,0.026697733650703936
102.673,0.10199436184326549,0.10199436184326549
102.674,0.1435030039297347,0.1435030039297347
102.675,0.13908147224152878,0.13908147224152878
102.676,0.09058825539763471,0.09058825539763471
102.677,0.013312479299343316,0.013312479299343316
102.678,0.0685938372707845,-0.0685938372707845
102.679,0.12928964606336357,-0.12928964606336357
102.68,0.1488647511796256,-0.1488647511796256
102.681,0.11914856266353524,-0.11914856266353524
102.682,0.04603788556600008,-0.04603788556600008
102.683,0.052254674768126286,0.052254674768126286
102.684,0.1504169724004849,0.1504169724004849
102.685,0.22312000291590195,0.22312000291590195
102.686,0.25189824895446367,0.25189824895446367
102.687,0.22991398767107118,0.22991398767107118
102.688,0.16338988067662252,0.16338988067662252
102.689,0.06949558799007982,0.06949558799007982
102.69,0.028533243517399498,-0.028533243517399498
102.691,0.1075660888986596,-0.1075660888986596
102.692,0.15032927781158367,-0.15032927781158367
102.693,0.1492856261307094,-0.1492856261307094
102.694,0.10781303555760258,-0.10781303555760258
102.695,0.03863108078926247,-0.03863108078926247
102.696,0.03987387825720323,0.03987387825720323
102.697,0.10832808129416382,0.10832808129416382
102.698,0.15084811982283042,0.15084811982283042
102.699,0.1583159300637038,0.1583159300637038
102.7,0.1298647477959609,0.1298647477959609
102.701,0.07247331942779156,0.07247331942779156
102.702,0.0010128509613375192,-0.0010128509613375192
102.703,0.07484112801553633,-0.07484112801553633
102.704,0.13360310039312018,-0.13360310039312018
102.705,0.16514536125881507,-0.16514536125881507
102.706,0.16266632746894194,-0.16266632746894194
102.707,0.12572931442359903,-0.12572931442359903
102.708,0.06012503483158227,-0.06012503483158227
102.709,0.02330750780888513,0.02330750780888513
102.71,0.1106549194440487,0.1106549194440487
102.711,0.18735480287200978,0.18735480287200978
102.712,0.24067755200805907,0.24067755200805907
102.713,0.26186826009433695,0.26186826009433695
102.714,0.24760697707578094,0.24760697707578094
102.715,0.20055425171343977,0.20055425171343977
102.716,0.12889860153608912,0.12889860153608912
102.717,0.044988343174181544,0.044988343174181544
102.718,0.03671917302825811,-0.03671917302825811
102.719,0.10205109121674383,-0.10205109121674383
102.72,0.13947005415023817,-0.13947005415023817
102.721,0.1420154258953792,-0.1420154258953792
102.722,0.10853761714386612,-0.10853761714386612
102.723,0.04403249038603463,-0.04403249038603463
102.724,0.040996076356166755,0.040996076356166755
102.725,0.13208996835204734,0.13208996835204734
102.726,0.2131227561472988,0.2131227561472988
102.727,0.2690087938543515,0.2690087938543515
102.728,0.28841857818323247,0.28841857818323247
102.729,0.2660169264259411,0.2660169264259411
102.73,0.20374820310639907,0.20374820310639907
102.731,0.11080373683188371,0.11080373683188371
102.732,0.0021294327693004433,0.0021294327693004433
102.733,0.10435937333041179,-0.10435937333041179
102.734,0.19135770606471192,-0.19135770606471192
102.735,0.24578536693624797,-0.24578536693624797
102.736,0.26157564937226563,-0.26157564937226563
102.737,0.2408999844992361,-0.2408999844992361
102.738,0.19343479809513142,-0.19343479809513142
102.739,0.13377253240215503,-0.13377253240215503
102.74,0.07759409324945055,-0.07759409324945055
102.741,0.03759963094430818,-0.03759963094430818
102.742,0.020308807021192532,-0.020308807021192532
102.743,0.024633096628627782,-0.024633096628627782
102.744,0.042632890401755,-0.042632890401755
102.745,0.06223702375947526,-0.06223702375947526
102.746,0.07111391050132931,-0.07111391050132931
102.747,0.06052953424761631,-0.06052953424761631
102.748,0.028028602032006855,-0.028028602032006855
102.749,0.02185969105504726,0.02185969105504726
102.75,0.07907081596106513,0.07907081596106513
102.751,0.13111247741777365,0.13111247741777365
102.752,0.16682067724258687,0.16682067724258687
102.753,0.17957203749574613,0.17957203749574613
102.754,0.1689678737641982,0.1689678737641982
102.755,0.1405309627557958,0.1405309627557958
102.756,0.10361911349383313,0.10361911349383313
102.757,0.06833439184466084,0.06833439184466084
102.758,0.042499401212594545,0.042499401212594545
102.759,0.029688726552542066,0.029688726552542066
102.76,0.028883553277588403,0.028883553277588403
102.761,0.03571773312119597,0.03571773312119597
102.762,0.04472246855393358,0.04472246855393358
102.763,0.05165469790441701,0.05165469790441701
102.764,0.05502117154183073,0.05502117154183073
102.765,0.05626634260807295,0.05626634260807295
102.766,0.05863638198697285,0.05863638198697285
102.767,0.06525453782721136,0.06525453782721136
102.768,0.07724580860737063,0.07724580860737063
102.769,0.09271783419688284,0.09271783419688284
102.77,0.10705455398836161,0.10705455398836161
102.771,0.11444689909329941,0.11444689909329941
102.772,0.11007873404148438,0.11007873404148438
102.773,0.09210584580917258,0.09210584580917258
102.774,0.06262452007715136,0.06262452007715136
102.775,0.027206585118742854,0.027206585118742854
102.776,0.006864330620813153,-0.006864330620813153
102.777,0.033002192716567236,-0.033002192716567236
102.778,0.04744843531603593,-0.04744843531603593
102.779,0.05028696044497938,-0.05028696044497938
102.78,0.04493666676253605,-0.04493666676253605
102.781,0.03632100209039013,-0.03632100209039013
102.782,0.028464438718407203,-0.028464438718407203
102.783,0.022535658628014765,-0.022535658628014765
102.784,0.01622340693988522,-0.01622340693988522
102.785,0.004823999268014578,-0.004823999268014578
102.786,0.01628040716520851,0.01628040716520851
102.787,0.048698816539445744,0.048698816539445744
102.788,0.08890431959955558,0.08890431959955558
102.789,0.1279636262603614,0.1279636262603614
102.79,0.15355972476587265,0.15355972476587265
102.791,0.1538802479448702,0.1538802479448702
102.792,0.12215250170486458,0.12215250170486458
102.793,0.060195630361238095,0.060195630361238095
102.794,0.020479581725507456,-0.020479581725507456
102.795,0.10077089690042895,-0.10077089690042895
102.796,0.15896522697305138,-0.15896522697305138
102.797,0.17722602972462698,-0.17722602972462698
102.798,0.14755200408390334,-0.14755200408390334
102.799,0.07516612644164022,-0.07516612644164022
102.8,0.022006606953249852,0.022006606953249852
102.801,0.11790666244581915,0.11790666244581915
102.802,0.1857550844943019,0.1857550844943019
102.803,0.20611057136501998,0.20611057136501998
102.804,0.1730356090508991,0.1730356090508991
102.805,0.09633300744161621,0.09633300744161621
102.806,0.0010023632281088712,-0.0010023632281088712
102.807,0.08946802078641525,-0.08946802078641525
102.808,0.14188861947841547,-0.14188861947841547
102.809,0.1416877192602889,-0.1416877192602889
102.81,0.08801552498795062,-0.08801552498795062
102.811,0.0038871966065312513,0.0038871966065312513
102.812,0.10722251716535802,0.10722251716535802
102.813,0.19166649448460116,0.19166649448460116
102.814,0.23241305618407826,0.23241305618407826
102.815,0.21745459847026294,0.21745459847026294
102.816,0.15091209716476728,0.15091209716476728
102.817,0.05149441522477005,0.05149441522477005
102.818,0.05330712894572054,-0.05330712894572054
102.819,0.135390807846685,-0.135390807846685
102.82,0.17403228082092015,-0.17403228082092015
102.821,0.1613092062422835,-0.1613092062422835
102.822,0.10349178719089414,-0.10349178719089414
102.823,0.018248755094491864,-0.018248755094491864
102.824,0.07119208996332582,0.07119208996332582
102.825,0.14294177110275053,0.14294177110275053
102.826,0.18225753999222083,0.18225753999222083
102.827,0.1846399920427293,0.1846399920427293
102.828,0.1555976294334669,0.1555976294334669
102.829,0.10756041240132364,0.10756041240132364
102.83,0.05526293059210752,0.05526293059210752
102.831,0.011238740406644299,0.011238740406644299
102.832,0.017187462930484565,-0.017187462930484565
102.833,0.028709950301569087,-0.028709950301569087
102.834,0.0267927813630221,-0.0267927813630221
102.835,0.01718164970896674,-0.01718164970896674
102.836,0.005298199199884723,-0.005298199199884723
102.837,0.005507839241901236,0.005507839241901236
102.838,0.014363515153314799,0.014363515153314799
102.839,0.022061654926827545,0.022061654926827545
102.84,0.029646430433978965,0.029646430433978965
102.841,0.03718624778825186,0.03718624778825186
102.842,0.04334968680224982,0.04334968680224982
102.843,0.04596951054348963,0.04596951054348963
102.844,0.04328918157237749,0.04328918157237749
102.845,0.03524786901320365,0.03524786901320365
102.846,0.02411630713612123,0.02411630713612123
102.847,0.01406467870171979,0.01406467870171979
102.848,0.009712317781148228,0.009712317781148228
102.849,0.014181144126123701,0.014181144126123701
102.85,0.027449720538450517,0.027449720538450517
102.851,0.04575861762216804,0.04575861762216804
102.852,0.062453789324877995,0.062453789324877995
102.853,0.07010481879565145,0.07010481879565145
102.854,0.06321022992949743,0.06321022992949743
102.855,0.0405117760287137,0.0405117760287137
102.856,0.00600944251302149,0.00600944251302149
102.857,0.031809857694964805,-0.031809857694964805
102.858,0.06238781217820222,-0.06238781217820222
102.859,0.07640292602029586,-0.07640292602029586
102.86,0.06885792722088657,-0.06885792722088657
102.861,0.04086114973912769,-0.04086114973912769
102.862,0.0005621931513255518,0.0005621931513255518
102.863,0.04462056980037854,0.04462056980037854
102.864,0.08017316391475648,0.08017316391475648
102.865,0.0992627888048534,0.0992627888048534
102.866,0.09955775751387308,0.09955775751387308
102.867,0.08486429688237984,0.08486429688237984
102.868,0.06353843036333173,0.06353843036333173
102.869,0.04535846689359735,0.04535846689359735
102.87,0.03795764397707413,0.03795764397707413
102.871,0.04407006018136217,0.04407006018136217
102.872,0.06055672120415467,0.06055672120415467
102.873,0.07955287181684678,0.07955287181684678
102.874,0.09133311983175618,0.09133311983175618
102.875,0.08788890740911959,0.08788890740911959
102.876,0.06596410106496053,0.06596410106496053
102.877,0.028484119770768812,0.028484119770768812
102.878,0.016126869328334736,-0.016126869328334736
102.879,0.05651514137862701,-0.05651514137862701
102.88,0.08198003034040913,-0.08198003034040913
102.881,0.085856580458059,-0.085856580458059
102.882,0.06756513588391166,-0.06756513588391166
102.883,0.0326620034650541,-0.0326620034650541
102.884,0.009087526223235054,0.009087526223235054
102.885,0.0469252512586289,0.0469252512586289
102.886,0.07249741748206873,0.07249741748206873
102.887,0.0822922537321309,0.0822922537321309
102.888,0.07833167181455769,0.07833167181455769
102.889,0.06694422826129176,0.06694422826129176
102.89,0.05610265973465656,0.05610265973465656
102.891,0.05228510024787947,0.05228510024787947
102.892,0.05795868854140829,0.05795868854140829
102.893,0.07055023372501101,0.07055023372501101
102.894,0.08325026532823943,0.08325026532823943
102.895,0.08737541548032213,0.08737541548032213
102.896,0.07549845638674335,0.07549845638674335
102.897,0.044311052995734235,0.044311052995734235
102.898,0.003718973665771008,-0.003718973665771008
102.899,0.06044072341211659,-0.06044072341211659
102.9,0.11385618097767936,-0.11385618097767936
102.901,0.15116115360668037,-0.15116115360668037
102.902,0.16210766084784656,-0.16210766084784656
102.903,0.14173803508695726,-0.14173803508695726
102.904,0.09175567436999021,-0.09175567436999021
102.905,0.02020891243513767,-0.02020891243513767
102.906,0.060362773622838706,0.060362773622838706
102.907,0.13577730358739748,0.13577730358739748
102.908,0.1932976517707965,0.1932976517707965
102.909,0.22420902334927573,0.22420902334927573
102.91,0.2253319580801587,0.2253319580801587
102.911,0.19922687873602274,0.19922687873602274
102.912,0.15317293334725313,0.15317293334725313
102.913,0.09726672225756983,0.09726672225756983
102.914,0.04213424090030249,0.04213424090030249
102.915,0.003229858072767544,-0.003229858072767544
102.916,0.03306815758710713,-0.03306815758710713
102.917,0.04564078718825637,-0.04564078718825637
102.918,0.04309599706181855,-0.04309599706181855
102.919,0.03052873747148621,-0.03052873747148621
102.92,0.014476311977507872,-0.014476311977507872
102.921,0.0012017551533316517,-0.0012017551533316517
102.922,0.0048474482600002755,0.0048474482600002755
102.923,0.002055428389010183,0.002055428389010183
102.924,0.00810764694044086,-0.00810764694044086
102.925,0.021654163108451696,-0.021654163108451696
102.926,0.03332807603673105,-0.03332807603673105
102.927,0.038207250928527614,-0.038207250928527614
102.928,0.03322001092696014,-0.03322001092696014
102.929,0.018138509472161224,-0.018138509472161224
102.93,0.00426021304231039,0.00426021304231039
102.931,0.028945160454361574,0.028945160454361574
102.932,0.05010413635432531,0.05010413635432531
102.933,0.06291852439646695,0.06291852439646695
102.934,0.06510611381092146,0.06510611381092146
102.935,0.05774321872093657,0.05774321872093657
102.936,0.04507715013489322,0.04507715013489322
102.937,0.03333905581347496,0.03333905581347496
102.938,0.028874835072048022,0.028874835072048022
102.939,0.0361314516539597,0.0361314516539597
102.94,0.05609628308692116,0.05609628308692116
102.941,0.08566674040370659,0.08566674040370659
102.942,0.11816237655850714,0.11816237655850714
102.943,0.14486396252366895,0.14486396252366895
102.944,0.15717398955581463,0.15717398955581463
102.945,0.14882663261838025,0.14882663261838025
102.946,0.11757633008759805,0.11757633008759805
102.947,0.06595261989570722,0.06595261989570722
102.948,0.0009271297212554153,0.0009271297212554153
102.949,0.06738598103566251,-0.06738598103566251
102.95,0.12766075138437227,-0.12766075138437227
102.951,0.16948240327970998,-0.16948240327970998
102.952,0.18523847607060406,-0.18523847607060406
102.953,0.17145776312501615,-0.17145776312501615
102.954,0.12942008867859522,-0.12942008867859522
102.955,0.06499608014696012,-0.06499608014696012
102.956,0.01222188582910766,0.01222188582910766
102.957,0.09036932132976938,0.09036932132976938
102.958,0.1571618992908166,0.1571618992908166
102.959,0.20192040425422597,0.20192040425422597
102.96,0.21747920645636154,0.21747920645636154
102.961,0.2016409826702934,0.2016409826702934
102.962,0.15783974062293127,0.15783974062293127
102.963,0.09475809031533422,0.09475809031533422
102.964,0.024828512927322022,0.024828512927322022
102.965,0.03819127572302683,-0.03819127572302683
102.966,0.0821063052526968,-0.0821063052526968
102.967,0.09897774425946826,-0.09897774425946826
102.968,0.08692870453249346,-0.08692870453249346
102.969,0.05053735031278295,-0.05053735031278295
102.97,0.0003590534435156112,0.0003590534435156112
102.971,0.053185437451562345,0.053185437451562345
102.972,0.09581412639938702,0.09581412639938702
102.973,0.11953193966593956,0.11953193966593956
102.974,0.12095109273721372,0.12095109273721372
102.975,0.10233771375375422,0.10233771375375422
102.976,0.07032276902683599,0.07032276902683599
102.977,0.03347316393952182,0.03347316393952182
102.978,0.0004381466730075667,-0.0004381466730075667
102.979,0.026544571994384203,-0.026544571994384203
102.98,0.04370017733233489,-0.04370017733233489
102.981,0.05379488924483988,-0.05379488924483988
102.982,0.059925571621381346,-0.059925571621381346
102.983,0.06421018829329184,-0.06421018829329184
102.984,0.06617792054896443,-0.06617792054896443
102.985,0.062462592213391455,-0.062462592213391455
102.986,0.048032278749584933,-0.048032278749584933
102.987,0.01857674696749656,-0.01857674696749656
102.988,0.026829449201108968,0.026829449201108968
102.989,0.0838706852047495,0.0838706852047495
102.99,0.1428255792348665,0.1428255792348665
102.991,0.19043017773685356,0.19043017773685356
102.992,0.21338475569550597,0.21338475569550597
102.993,0.2024793953948416,0.2024793953948416
102.994,0.15599019889748234,0.15599019889748234
102.995,0.08112808652119896,0.08112808652119896
102.996,0.0071131868334859405,-0.0071131868334859405
102.997,0.0895379584132533,-0.0895379584132533
102.998,0.14777486846259225,-0.14777486846259225
102.999,0.1692469146334432,-0.1692469146334432
103.0,0.1505487804717348,-0.1505487804717348
103.001,0.09816969644127815,-0.09816969644127815
103.002,0.026336678312890438,-0.026336678312890438
103.003,0.0473249469343302,0.0473249469343302
103.004,0.10691996109384316,0.10691996109384316
103.005,0.14257263509339024,0.14257263509339024
103.006,0.15255794341999573,0.15255794341999573
103.007,0.14270118942804721,0.14270118942804721
103.008,0.12339793741490235,0.12339793741490235
103.009,0.10539207062226463,0.10539207062226463
103.01,0.09582715669305375,0.09582715669305375
103.011,0.09593035111960946,0.09593035111960946
103.012,0.10106217962752839,0.10106217962752839
103.013,0.10299819164306467,0.10299819164306467
103.014,0.09351140504770106,0.09351140504770106
103.015,0.06788107002040245,0.06788107002040245
103.016,0.027017259511731506,0.027017259511731506
103.017,0.02256853628307587,-0.02256853628307587
103.018,0.07090245010613383,-0.07090245010613383
103.019,0.1079662183848148,-0.1079662183848148
103.02,0.12709450048006243,-0.12709450048006243
103.021,0.1270723995674531,-0.1270723995674531
103.022,0.11215505928762748,-0.11215505928762748
103.023,0.09002592751622318,-0.09002592751622318
103.024,0.06850189680288987,-0.06850189680288987
103.025,0.0522841667706635,-0.0522841667706635
103.026,0.041054556661866415,-0.041054556661866415
103.027,0.029719615258607224,-0.029719615258607224
103.028,0.01078661888379695,-0.01078661888379695
103.029,0.02198296573279812,0.02198296573279812
103.03,0.07004077621564919,0.07004077621564919
103.031,0.12807346490929228,0.12807346490929228
103.032,0.1845092896235656,0.1845092896235656
103.033,0.22456268218283237,0.22456268218283237
103.034,0.23492831774783451,0.23492831774783451
103.035,0.20857027735033618,0.20857027735033618
103.036,0.14791302283987218,0.14791302283987218
103.037,0.06519825084699926,0.06519825084699926
103.038,0.020316275243238424,-0.020316275243238424
103.039,0.08757912420333891,-0.08757912420333891
103.04,0.1198077656937363,-0.1198077656937363
103.041,0.10947883209249032,-0.10947883209249032
103.042,0.06063800720105039,-0.06063800720105039
103.043,0.012233404190130859,0.012233404190130859
103.044,0.08845391991508467,0.08845391991508467
103.045,0.14714572564501283,0.14714572564501283
103.046,0.173125289295053,0.173125289295053
103.047,0.1608745386597592,0.1608745386597592
103.048,0.1154507100717681,0.1154507100717681
103.049,0.05021212976764344,0.05021212976764344
103.05,0.017738943953506503,-0.017738943953506503
103.051,0.07281028858651828,-0.07281028858651828
103.052,0.10515688129785372,-0.10515688129785372
103.053,0.11263874280134578,-0.11263874280134578
103.054,0.10008794193622317,-0.10008794193622317
103.055,0.0764135191545029,-0.0764135191545029
103.056,0.050772618392210034,-0.050772618392210034
103.057,0.02926200368939713,-0.02926200368939713
103.058,0.013279771570789078,-0.013279771570789078
103.059,6.609920944811165e-06,-6.609920944811165e-06
103.06,0.015369596843062494,0.015369596843062494
103.061,0.03670629531862124,0.03670629531862124
103.062,0.06448928171065305,0.06448928171065305
103.063,0.09494849335712519,0.09494849335712519
103.064,0.12108122347205819,0.12108122347205819
103.065,0.13519713089937313,0.13519713089937313
103.066,0.13199465762642948,0.13199465762642948
103.067,0.11095499755681892,0.11095499755681892
103.068,0.07707892444500208,0.07707892444500208
103.069,0.03960254673001762,0.03960254673001762
103.07,0.009082461573194811,0.009082461573194811
103.071,0.006140973017224272,-0.006140973017224272
103.072,0.002840096853626961,-0.002840096853626961
103.073,0.0159003348019493,0.0159003348019493
103.074,0.04164532855350789,0.04164532855350789
103.075,0.06343524742530215,0.06343524742530215
103.076,0.07151521048535692,0.07151521048535692
103.077,0.06068655361633413,0.06068655361633413
103.078,0.03212884620373169,0.03212884620373169
103.079,0.006925621878007715,-0.006925621878007715
103.08,0.04553853449490164,-0.04553853449490164
103.081,0.07261612808873696,-0.07261612808873696
103.082,0.08045027049659281,-0.08045027049659281
103.083,0.06706815383016707,-0.06706815383016707
103.084,0.036646853237378485,-0.036646853237378485
103.085,0.002069990270088029,0.002069990270088029
103.086,0.03873715746876094,0.03873715746876094
103.087,0.06469830249013109,0.06469830249013109
103.088,0.07548943120473317,0.07548943120473317
103.089,0.07177452426323527,0.07177452426323527
103.09,0.05851814207071637,0.05851814207071637
103.091,0.04282102804467813,0.04282102804467813
103.092,0.03127913938523075,0.03127913938523075
103.093,0.027828635182453265,0.027828635182453265
103.094,0.03279002695467703,0.03279002695467703
103.095,0.04333334974454561,0.04333334974454561
103.096,0.05504582087042964,0.05504582087042964
103.097,0.06389645609685823,0.06389645609685823
103.098,0.06779521439995562,0.06779521439995562
103.099,0.06715992452180841,0.06715992452180841
103.1,0.06433621406615142,0.06433621406615142
103.101,0.062188788592758115,0.062188788592758115
103.102,0.0625112167389128,0.0625112167389128
103.103,0.06496081233782869,0.06496081233782869
103.104,0.0669971127227953,0.0669971127227953
103.105,0.06488073524577742,0.06488073524577742
103.106,0.055342528319993534,0.055342528319993534
103.107,0.03723854502351043,0.03723854502351043
103.108,0.012482839392408573,0.012482839392408573
103.109,0.014188961580516635,-0.014188961580516635
103.11,0.036623663029163644,-0.036623663029163644
103.111,0.04935479677853738,-0.04935479677853738
103.112,0.04963769049797917,-0.04963769049797917
103.113,0.03862843391373305,-0.03862843391373305
103.114,0.021203106491572643,-0.021203106491572643
103.115,0.004399937487681083,-0.004399937487681083
103.116,0.005019705382980799,0.005019705382980799
103.117,0.003045921258139739,0.003045921258139739
103.118,0.009966779940112747,-0.009966779940112747
103.119,0.029171173780293658,-0.029171173780293658
103.12,0.04669700044773817,-0.04669700044773817
103.121,0.05426504367715157,-0.05426504367715157
103.122,0.04607020446833621,-0.04607020446833621
103.123,0.020935599127756443,-0.020935599127756443
103.124,0.017033568738033633,0.017033568738033633
103.125,0.05956479880629462,0.05956479880629462
103.126,0.0967630670469739,0.0967630670469739
103.127,0.12024618920663954,0.12024618920663954
103.128,0.12581303229414975,0.12581303229414975
103.129,0.11473032820512774,0.11473032820512774
103.13,0.09318403097758221,0.09318403097758221
103.131,0.07006332733980569,0.07006332733980569
103.132,0.053818208419327496,0.053818208419327496
103.133,0.04945919045970282,0.04945919045970282
103.134,0.056736819653252946,0.056736819653252946
103.135,0.07015607229475473,0.07015607229475473
103.136,0.08087168625631325,0.08087168625631325
103.137,0.07987567901095649,0.07987567901095649
103.138,0.06143757636547109,0.06143757636547109
103.139,0.02564084804788691,0.02564084804788691
103.14,0.020883032822827108,-0.020883032822827108
103.141,0.06636806654806748,-0.06636806654806748
103.142,0.09714434460889221,-0.09714434460889221
103.143,0.10176893554377098,-0.10176893554377098
103.144,0.07482521524154617,-0.07482521524154617
103.145,0.019213279732103183,-0.019213279732103183
103.146,0.05383681096939985,0.05383681096939985
103.147,0.1271538363474265,0.1271538363474265
103.148,0.18185118619592977,0.18185118619592977
103.149,0.2022863719158876,0.2022863719158876
103.15,0.18041664392736578,0.18041664392736578
103.151,0.11834657962326367,0.11834657962326367
103.152,0.028326558870706897,0.028326558870706897
103.153,0.06987318617472016,-0.06987318617472016
103.154,0.15359812046179866,-0.15359812046179866
103.155,0.20280659508877752,-0.20280659508877752
103.156,0.20504228007253045,-0.20504228007253045
103.157,0.15861223514355094,-0.15861223514355094
103.158,0.07314329466841185,-0.07314329466841185
103.159,0.032653768760976254,0.032653768760976254
103.16,0.1354758844233186,0.1354758844233186
103.161,0.21305944842754276,0.21305944842754276
103.162,0.24953348289921196,0.24953348289921196
103.163,0.23913121764798517,0.23913121764798517
103.164,0.18730621133319314,0.18730621133319314
103.165,0.1089658363671755,0.1089658363671755
103.166,0.024293046358416337,0.024293046358416337
103.167,0.04672119850552825,-0.04672119850552825
103.168,0.08954747870091218,-0.08954747870091218
103.169,0.09873560551202976,-0.09873560551202976
103.17,0.07886727148044115,-0.07886727148044115
103.171,0.04257295028642749,-0.04257295028642749
103.172,0.006188538467524207,-0.006188538467524207
103.173,0.015663684645738307,0.015663684645738307
103.174,0.014929325709243768,0.014929325709243768
103.175,0.007106904923109836,-0.007106904923109836
103.176,0.04006234554472188,-0.04006234554472188
103.177,0.06773781720180294,-0.06773781720180294
103.178,0.07351387357231054,-0.07351387357231054
103.179,0.046224282833061014,-0.046224282833061014
103.18,0.01536543104457655,0.01536543104457655
103.181,0.10100292835353009,0.10100292835353009
103.182,0.19100019736624585,0.19100019736624585
103.183,0.26146567714023217,0.26146567714023217
103.184,0.2912596120356583,0.2912596120356583
103.185,0.26859031247271226,0.26859031247271226
103.186,0.1951724430184827,0.1951724430184827
103.187,0.0865302304607567,0.0865302304607567
103.188,0.03183085236664174,-0.03183085236664174
103.189,0.1313825913025588,-0.1313825913025588
103.19,0.1886477290271149,-0.1886477290271149
103.191,0.19195767271886743,-0.19195767271886743
103.192,0.1447987708094577,-0.1447987708094577
103.193,0.06465773112431261,-0.06465773112431261
103.194,0.02234698164505211,0.02234698164505211
103.195,0.08944282868907605,0.08944282868907605
103.196,0.11734677206857014,0.11734677206857014
103.197,0.10005092545890926,0.10005092545890926
103.198,0.046443303690461235,0.046443303690461235
103.199,0.02274548945801913,-0.02274548945801913
103.2,0.08170759321218046,-0.08170759321218046
103.201,0.1078979780214745,-0.1078979780214745
103.202,0.08931195943351755,-0.08931195943351755
103.203,0.028402149893990036,-0.028402149893990036
103.204,0.05859076335939162,0.05859076335939162
103.205,0.1466579086991393,0.1466579086991393
103.206,0.2097783140307059,0.2097783140307059
103.207,0.22894368903233087,0.22894368903233087
103.208,0.19792874979434716,0.19792874979434716
103.209,0.12503608433791302,0.12503608433791302
103.21,0.030351808086411136,0.030351808086411136
103.211,0.06052039551096289,-0.06052039551096289
103.212,0.12418956966410177,-0.12418956966410177
103.213,0.14621334502470162,-0.14621334502470162
103.214,0.12478176305196431,-0.12478176305196431
103.215,0.07034347143403252,-0.07034347143403252
103.216,0.001508687136512421,-0.001508687136512421
103.217,0.06125762642678989,0.06125762642678989
103.218,0.10200395069928603,0.10200395069928603
103.219,0.11367299678786624,0.11367299678786624
103.22,0.09921921728410177,0.09921921728410177
103.221,0.0693474698965062,0.0693474698965062
103.222,0.03789762111486983,0.03789762111486983
103.223,0.016633775529061312,0.016633775529061312
103.224,0.01129021911525685,0.01129021911525685
103.225,0.020173666481316577,0.020173666481316577
103.226,0.03564151417735073,0.03564151417735073
103.227,0.04772867816117077,0.04772867816117077
103.228,0.04845334786128008,0.04845334786128008
103.229,0.0351478063449675,0.0351478063449675
103.23,0.01158235733151125,0.01158235733151125
103.231,0.013490923476568106,-0.013490923476568106
103.232,0.029774076985063735,-0.029774076985063735
103.233,0.029505516118186637,-0.029505516118186637
103.234,0.010626454515067385,-0.010626454515067385
103.235,0.022179291095519416,0.022179291095519416
103.236,0.05898589545042188,0.05898589545042188
103.237,0.08813255960517319,0.08813255960517319
103.238,0.1004520222764409,0.1004520222764409
103.239,0.09265559039791493,0.09265559039791493
103.24,0.06860348885787304,0.06860348885787304
103.241,0.037951700183906256,0.037951700183906256
103.242,0.012622781539002537,0.012622781539002537
103.243,0.002353089893307292,0.002353089893307292
103.244,0.010930288023699442,0.010930288023699442
103.245,0.03451857970016503,0.03451857970016503
103.246,0.0627464166105054,0.0627464166105054
103.247,0.08225486631600543,0.08225486631600543
103.248,0.08151850853829457,0.08151850853829457
103.249,0.055268866081652934,0.055268866081652934
103.25,0.006946609611444998,0.006946609611444998
103.251,0.05174489979141528,-0.05174489979141528
103.252,0.1041355349772749,-0.1041355349772749
103.253,0.13371239174896687,-0.13371239174896687
103.254,0.1294158874210266,-0.1294158874210266
103.255,0.08937175791227792,-0.08937175791227792
103.256,0.021823156902584073,-0.021823156902584073
103.257,0.057062947625034166,0.057062947625034166
103.258,0.12782901977101946,0.12782901977101946
103.259,0.17333758913260233,0.17333758913260233
103.26,0.18360885575278552,0.18360885575278552
103.261,0.15841847825903166,0.15841847825903166
103.262,0.10693539520507467,0.10693539520507467
103.263,0.04463017927362545,0.04463017927362545
103.264,0.011478069850993089,-0.011478069850993089
103.265,0.04771059899798835,-0.04771059899798835
103.266,0.05727895985551423,-0.05727895985551423
103.267,0.041535412474324795,-0.041535412474324795
103.268,0.008744316679918374,-0.008744316679918374
103.269,0.029028366451298693,0.029028366451298693
103.27,0.05978968409826235,0.05978968409826235
103.271,0.07502311700697062,0.07502311700697062
103.272,0.07167167765696725,0.07167167765696725
103.273,0.05230629006324716,0.05230629006324716
103.274,0.023695420111403243,0.023695420111403243
103.275,0.005552128246371857,-0.005552128246371857
103.276,0.027431206093078364,-0.027431206093078364
103.277,0.03636728459342364,-0.03636728459342364
103.278,0.030068496776443965,-0.030068496776443965
103.279,0.009441031715796022,-0.009441031715796022
103.28,0.022104567059779034,0.022104567059779034
103.281,0.05954021182125424,0.05954021182125424
103.282,0.09699584213857149,0.09699584213857149
103.283,0.1283443101522188,0.1283443101522188
103.284,0.14772492691691674,0.14772492691691674
103.285,0.15021516834133553,0.15021516834133553
103.286,0.1327662604523392,0.1327662604523392
103.287,0.09529327536102183,0.09529327536102183
103.288,0.04156680723910977,0.04156680723910977
103.289,0.020574672712911912,-0.020574672712911912
103.29,0.08009011151079282,-0.08009011151079282
103.291,0.12477491399864826,-0.12477491399864826
103.292,0.14413757483738976,-0.14413757483738976
103.293,0.13237595742081532,-0.13237595742081532
103.294,0.09051543019492869,-0.09051543019492869
103.295,0.026886371619650018,-0.026886371619650018
103.296,0.044447830647308395,0.044447830647308395
103.297,0.1070685688797195,0.1070685688797195
103.298,0.14651790132662645,0.14651790132662645
103.299,0.15429455688184057,0.15429455688184057
103.3,0.13027541309542623,0.13027541309542623
103.301,0.08273560931770452,0.08273560931770452
103.302,0.025874244551544523,0.025874244551544523
103.303,0.02444214619077867,-0.02444214619077867
103.304,0.05540259316907625,-0.05540259316907625
103.305,0.060940016235270456,-0.060940016235270456
103.306,0.04319675031700265,-0.04319675031700265
103.307,0.011300619313418303,-0.011300619313418303
103.308,0.022120363953344935,0.022120363953344935
103.309,0.04549136565836376,0.04549136565836376
103.31,0.05234942644295648,0.05234942644295648
103.311,0.04350661798419564,0.04350661798419564
103.312,0.02656391629813526,0.02656391629813526
103.313,0.012938625034391915,0.012938625034391915
103.314,0.013440475037760136,0.013440475037760136
103.315,0.033955548773548117,0.033955548773548117
103.316,0.0727850725174819,0.0727850725174819
103.317,0.12063373107933484,0.12063373107933484
103.318,0.16333339423897764,0.16333339423897764
103.319,0.18643359672077242,0.18643359672077242
103.32,0.18012058088182137,0.18012058088182137
103.321,0.1427783199190127,0.1427783199190127
103.322,0.08193600299923509,0.08193600299923509
103.323,0.01221545053006845,0.01221545053006845
103.324,0.049095240136155294,-0.049095240136155294
103.325,0.08740482833111707,-0.08740482833111707
103.326,0.09535197833307751,-0.09535197833307751
103.327,0.07500726065043206,-0.07500726065043206
103.328,0.03701608962085989,-0.03701608962085989
103.329,0.003027470826535872,0.003027470826535872
103.33,0.029768270749815695,0.029768270749815695
103.331,0.033123087400726,0.033123087400726
103.332,0.011512816352219124,0.011512816352219124
103.333,0.027734723323918464,-0.027734723323918464
103.334,0.07088961495909862,-0.07088961495909862
103.335,0.10235276380352953,-0.10235276380352953
103.336,0.10969411424407627,-0.10969411424407627
103.337,0.08755331018838841,-0.08755331018838841
103.338,0.03918917517593923,-0.03918917517593923
103.339,0.024718538788198963,0.024718538788198963
103.34,0.08949573408918798,0.08949573408918798
103.341,0.1409082134458326,0.1409082134458326
103.342,0.1691254340199495,0.1691254340199495
103.343,0.1709896525155843,0.1709896525155843
103.344,0.1500198402083579,0.1500198402083579
103.345,0.1143860341538685,0.1143860341538685
103.346,0.07375904581023285,0.07375904581023285
103.347,0.036243887438388134,0.036243887438388134
103.348,0.006454708849093382,0.006454708849093382
103.349,0.014736130135752368,-0.014736130135752368
103.35,0.028929103601132544,-0.028929103601132544
103.351,0.038146847507352755,-0.038146847507352755
103.352,0.04300323193881095,-0.04300323193881095
103.353,0.04194531740201268,-0.04194531740201268
103.354,0.031928787069272824,-0.031928787069272824
103.355,0.010249121077785306,-0.010249121077785306
103.356,0.02327958488143067,0.02327958488143067
103.357,0.06481567889567197,0.06481567889567197
103.358,0.10646554107131623,0.10646554107131623
103.359,0.13800927829252463,0.13800927829252463
103.36,0.14994780594142898,0.14994780594142898
103.361,0.1368659404856365,0.1368659404856365
103.362,0.09987483850912082,0.09987483850912082
103.363,0.04711806132001817,0.04711806132001817
103.364,0.008058244611741094,-0.008058244611741094
103.365,0.05086385263938231,-0.05086385263938231
103.366,0.06962975745425304,-0.06962975745425304
103.367,0.05969633275097774,-0.05969633275097774
103.368,0.025275805345367885,-0.025275805345367885
103.369,0.02145221185974555,0.02145221185974555
103.37,0.06386550298608418,0.06386550298608418
103.371,0.08602321231488896,0.08602321231488896
103.372,0.0778035097083174,0.0778035097083174
103.373,0.03841278727055375,0.03841278727055375
103.374,0.02289557164302669,-0.02289557164302669
103.375,0.08918829616207746,-0.08918829616207746
103.376,0.14062852042663398,-0.14062852042663398
103.377,0.16022351896681852,-0.16022351896681852
103.378,0.13880275734761138,-0.13880275734761138
103.379,0.07773417991158105,-0.07773417991158105
103.38,0.011398891526778865,0.011398891526778865
103.381,0.10999533807255912,0.10999533807255912
103.382,0.19747908138643155,0.19747908138643155
103.383,0.2566444653722122,0.2566444653722122
103.384,0.27774874511197845,0.27774874511197845
103.385,0.26026612577315666,0.26026612577315666
103.386,0.21199617821244465,0.21199617821244465
103.387,0.14604025777802376,0.14604025777802376
103.388,0.07675702231716164,0.07675702231716164
103.389,0.01600525111588369,0.01600525111588369
103.39,0.029254918672578234,-0.029254918672578234
103.391,0.0574897265138431,-0.0574897265138431
103.392,0.07140314218192101,-0.07140314218192101
103.393,0.07572847111350178,-0.07572847111350178
103.394,0.07493992153176476,-0.07493992153176476
103.395,0.07171122161929622,-0.07171122161929622
103.396,0.06655265548591427,-0.06655265548591427
103.397,0.05854734708085363,-0.05854734708085363
103.398,0.046680242979377784,-0.046680242979377784
103.399,0.03106338287920196,-0.03106338287920196
103.4,0.01346529686604292,-0.01346529686604292
103.401,0.0031066501235543775,0.0031066501235543775
103.402,0.01558964479828484,0.01558964479828484
103.403,0.022284676932790237,0.022284676932790237
103.404,0.023855928844582097,0.023855928844582097
103.405,0.023401673743742357,0.023401673743742357
103.406,0.025452141659403793,0.025452141659403793
103.407,0.034190655543452575,0.034190655543452575
103.408,0.05154049671712979,0.05154049671712979
103.409,0.07587309646008356,0.07587309646008356
103.41,0.10192003474063038,0.10192003474063038
103.411,0.1220646292813754,0.1220646292813754
103.412,0.12868942440849285,0.12868942440849285
103.413,0.11684274174786835,0.11684274174786835
103.414,0.08631404499982898,0.08631404499982898
103.415,0.04234659616729397,0.04234659616729397
103.416,0.005368950605218026,-0.005368950605218026
103.417,0.045217862216803684,-0.045217862216803684
103.418,0.06698339709847467,-0.06698339709847467
103.419,0.0649515137324882,-0.0649515137324882
103.42,0.039807545014925894,-0.039807545014925894
103.421,0.001317762488712182,0.001317762488712182
103.422,0.04673204195470548,0.04673204195470548
103.423,0.08347398417010132,0.08347398417010132
103.424,0.10104840362483114,0.10104840362483114
103.425,0.09448817474775018,0.09448817474775018
103.426,0.06582225878973458,0.06582225878973458
103.427,0.02350610005178755,0.02350610005178755
103.428,0.02001896996110153,-0.02001896996110153
103.429,0.051915177289522774,-0.051915177289522774
103.43,0.06263161777469395,-0.06263161777469395
103.431,0.04861242976085445,-0.04861242976085445
103.432,0.013262750753644914,-0.013262750753644914
103.433,0.03407442143251305,0.03407442143251305
103.434,0.08079844398814151,0.08079844398814151
103.435,0.11458991794130391,0.11458991794130391
103.436,0.12678754332700293,0.12678754332700293
103.437,0.11465906681567262,0.11465906681567262
103.438,0.08196469180897803,0.08196469180897803
103.439,0.03771081877966176,0.03771081877966176
103.44,0.006498863804823896,-0.006498863804823896
103.441,0.03973211617499617,-0.03973211617499617
103.442,0.0546900195076816,-0.0546900195076816
103.443,0.049552782288204145,-0.049552782288204145
103.444,0.02823546146825151,-0.02823546146825151
103.445,0.0009681041355087405,0.0009681041355087405
103.446,0.027932509715229425,0.027932509715229425
103.447,0.043704558512342784,0.043704558512342784
103.448,0.043122553863566226,0.043122553863566226
103.449,0.02633242475315556,0.02633242475315556
103.45,0.001206076210384488,-0.001206076210384488
103.451,0.03021553535612742,-0.03021553535612742
103.452,0.05018627622993843,-0.05018627622993843
103.453,0.05234738663341465,-0.05234738663341465
103.454,0.03221901306681507,-0.03221901306681507
103.455,0.008944878271969214,0.008944878271969214
103.456,0.06421748487750945,0.06421748487750945
103.457,0.12255749341320277,0.12255749341320277
103.458,0.17146016510336182,0.17146016510336182
103.459,0.20000713974722828,0.20000713974722828
103.46,0.2015181106817301,0.2015181106817301
103.461,0.17511951389008695,0.17511951389008695
103.462,0.12584187675809977,0.12584187675809977
103.463,0.0632569223658852,0.0632569223658852
103.464,0.0009431418420916549,-0.0009431418420916549
103.465,0.055748119882956804,-0.055748119882956804
103.466,0.09325876057917837,-0.09325876057917837
103.467,0.11012231760615065,-0.11012231760615065
103.468,0.10766293984673636,-0.10766293984673636
103.469,0.09078214542301666,-0.09078214542301666
103.47,0.06605400616186352,-0.06605400616186352
103.471,0.03964702168874168,-0.03964702168874168
103.472,0.01571047999934516,-0.01571047999934516
103.473,0.0043284889848485,0.0043284889848485
103.474,0.021433488255420796,0.021433488255420796
103.475,0.03781550205163153,0.03781550205163153
103.476,0.055456587157731274,0.055456587157731274
103.477,0.0748646531525865,0.0748646531525865
103.478,0.09451348232039969,0.09451348232039969
103.479,0.11115959372431816,0.11115959372431816
103.48,0.12090579800473789,0.12090579800473789
103.481,0.12061270361409959,0.12061270361409959
103.482,0.1091366379620593,0.1091366379620593
103.483,0.08793638182113095,0.08793638182113095
103.484,0.060817099869117985,0.060817099869117985
103.485,0.03288655609481639,0.03288655609481639
103.486,0.009077019198988623,0.009077019198988623
103.487,0.007262071553888694,-0.007262071553888694
103.488,0.015223275763290522,-0.015223275763290522
103.489,0.016370387901631478,-0.016370387901631478
103.49,0.013948599135161222,-0.013948599135161222
103.491,0.011571214973294275,-0.011571214973294275
103.492,0.011854541254930795,-0.011854541254930795
103.493,0.015478917245760782,-0.015478917245760782
103.494,0.0209913775033419,-0.0209913775033419
103.495,0.025395406430995693,-0.025395406430995693
103.496,0.02529463380061414,-0.02529463380061414
103.497,0.01817010943552677,-0.01817010943552677
103.498,0.0033395797591282417,-0.0033395797591282417
103.499,0.017721873197231508,0.017721873197231508
103.5,0.04178074111280172,0.04178074111280172
103.501,0.0647877432039714,0.0647877432039714
103.502,0.08300979102691608,0.08300979102691608
103.503,0.09395873235737073,0.09395873235737073
103.504,0.09683363924287813,0.09683363924287813
103.505,0.09240007349375978,0.09240007349375978
103.506,0.08244765842395818,0.08244765842395818
103.507,0.06910887667745591,0.06910887667745591
103.508,0.054333470984675225,0.054333470984675225
103.509,0.03969558387235983,0.03969558387235983
103.51,0.026520820922439237,0.026520820922439237
103.511,0.016145227977029775,0.016145227977029775
103.512,0.010040093706039421,0.010040093706039421
103.513,0.009597172030773038,0.009597172030773038
103.514,0.015549303695263195,0.015549303695263195
103.515,0.02722626461700628,0.02722626461700628
103.516,0.042012056415136945,0.042012056415136945
103.517,0.05538936370455105,0.05538936370455105
103.518,0.06179513776322332,0.06179513776322332
103.519,0.05620836652782346,0.05620836652782346
103.52,0.03605342281583379,0.03605342281583379
103.521,0.002766374287137552,0.002766374287137552
103.522,0.037648179633702594,-0.037648179633702594
103.523,0.07550173866977261,-0.07550173866977261
103.524,0.0997315075432611,-0.0997315075432611
103.525,0.10110144544115451,-0.10110144544115451
103.526,0.0753589860707945,-0.0753589860707945
103.527,0.02528705052864244,-0.02528705052864244
103.528,0.039176461257704576,0.039176461257704576
103.529,0.10303120335732752,0.10303120335732752
103.53,0.1500932508284616,0.1500932508284616
103.531,0.1676022547377376,0.1676022547377376
103.532,0.15016394649997333,0.15016394649997333
103.533,0.10173722953655262,0.10173722953655262
103.534,0.03491347128204492,0.03491347128204492
103.535,0.03244073369206946,-0.03244073369206946
103.536,0.08225550745074228,-0.08225550745074228
103.537,0.10152820524624329,-0.10152820524624329
103.538,0.08615015910085766,-0.08615015910085766
103.539,0.04205342600878803,-0.04205342600878803
103.54,0.016732696233615174,0.016732696233615174
103.541,0.07253846467766034,0.07253846467766034
103.542,0.10962139814350191,0.10962139814350191
103.543,0.11905839835474952,0.11905839835474952
103.544,0.10137316654197215,0.10137316654197215
103.545,0.06603713621365315,0.06603713621365315
103.546,0.028008144149618275,0.028008144149618275
103.547,0.0024581708272690683,0.0024581708272690683
103.548,0.0005423418193503116,-0.0005423418193503116
103.549,0.020415344716008255,0.020415344716008255
103.55,0.057498749255946224,0.057498749255946224
103.551,0.09626510825183732,0.09626510825183732
103.552,0.12064528248792716,0.12064528248792716
103.553,0.11861015618219084,0.11861015618219084
103.554,0.08658974508878958,0.08658974508878958
103.555,0.031105995401247144,0.031105995401247144
103.556,0.033001033334910446,-0.033001033334910446
103.557,0.08722976835225871,-0.08722976835225871
103.558,0.11544621042797609,-0.11544621042797609
103.559,0.10928172136462455,-0.10928172136462455
103.56,0.07106892398472775,-0.07106892398472775
103.561,0.01327666133448957,-0.01327666133448957
103.562,0.045441805833667415,0.045441805833667415
103.563,0.08633918350248293,0.08633918350248293
103.564,0.09681894625291276,0.09681894625291276
103.565,0.07476245180893248,0.07476245180893248
103.566,0.029463333547306236,0.029463333547306236
103.567,0.021213513687915242,-0.021213513687915242
103.568,0.056598100725721245,-0.056598100725721245
103.569,0.06008596500644747,-0.06008596500644747
103.57,0.02490345374048586,-0.02490345374048586
103.571,0.04311987816780927,0.04311987816780927
103.572,0.12672685265785266,0.12672685265785266
103.573,0.20206722337431926,0.20206722337431926
103.574,0.24574446664363792,0.24574446664363792
103.575,0.24192490875167683,0.24192490875167683
103.576,0.18733079997167024,0.18733079997167024
103.577,0.0925885477951256,0.0925885477951256
103.578,0.02047998955981689,-0.02047998955981689
103.579,0.12480585234361607,-0.12480585234361607
103.58,0.19548401625220024,-0.19548401625220024
103.581,0.2164694246895833,-0.2164694246895833
103.582,0.18464617508856607,-0.18464617508856607
103.583,0.11018863032369652,-0.11018863032369652
103.584,0.013256400283858993,-0.013256400283858993
103.585,0.08187044918158515,0.08187044918158515
103.586,0.15342212649554599,0.15342212649554599
103.587,0.18761960206567574,0.18761960206567574
103.588,0.1815381058830603,0.1815381058830603
103.589,0.1427408629976381,0.1427408629976381
103.59,0.08604888324704962,0.08604888324704962
103.591,0.028615684777641093,0.028615684777641093
103.592,0.015124065023525923,-0.015124065023525923
103.593,0.03715623872052631,-0.03715623872052631
103.594,0.0372856446897869,-0.0372856446897869
103.595,0.022040241679351924,-0.022040241679351924
103.596,0.0016478674531585913,-0.0016478674531585913
103.597,0.013820081045585075,0.013820081045585075
103.598,0.017883705407623518,0.017883705407623518
103.599,0.009639667845962707,0.009639667845962707
103.6,0.0062189852685389235,-0.0062189852685389235
103.601,0.021235684903335383,-0.021235684903335383
103.602,0.026213234474731895,-0.026213234474731895
103.603,0.014444851544016868,-0.014444851544016868
103.604,0.015842656907698816,0.015842656907698816
103.605,0.06055659970593519,0.06055659970593519
103.606,0.11057611255187672,0.11057611255187672
103.607,0.15410480987877428,0.15410480987877428
103.608,0.17986186244691438,0.17986186244691438
103.609,0.18021413100771633,0.18021413100771633
103.61,0.15338010691148352,0.15338010691148352
103.611,0.10409554618789985,0.10409554618789985
103.612,0.04254615528203809,0.04254615528203809
103.613,0.018165326368755896,-0.018165326368755896
103.614,0.06535937740828468,-0.06535937740828468
103.615,0.09004735776996287,-0.09004735776996287
103.616,0.08925124625204717,-0.08925124625204717
103.617,0.06673364113171265,-0.06673364113171265
103.618,0.03190527357383899,-0.03190527357383899
103.619,0.002837469449277874,0.002837469449277874
103.62,0.0256550690519064,0.0256550690519064
103.621,0.028727266581110467,0.028727266581110467
103.622,0.01065560672800836,0.01065560672800836
103.623,0.022920664907115973,-0.022920664907115973
103.624,0.060748978117521335,-0.060748978117521335
103.625,0.08910743242805907,-0.08910743242805907
103.626,0.0958309782467579,-0.0958309782467579
103.627,0.07407856260050927,-0.07407856260050927
103.628,0.024714643655820434,-0.024714643655820434
103.629,0.04347006392955488,0.04347006392955488
103.63,0.11586804274372131,0.11586804274372131
103.631,0.17597131580865844,0.17597131580865844
103.632,0.20999854758569847,0.20999854758569847
103.633,0.2108686180958419,0.2108686180958419
103.634,0.18029504080429337,0.18029504080429337
103.635,0.12830168251118113,0.12830168251118113
103.636,0.07023023957880792,0.07023023957880792
103.637,0.022093746933405045,0.022093746933405045
103.638,0.004320010436440924,-0.004320010436440924
103.639,0.005062784432925627,-0.005062784432925627
103.64,0.014820684953879004,0.014820684953879004
103.641,0.043033552142429876,0.043033552142429876
103.642,0.06418163685227585,0.06418163685227585
103.643,0.06506629211172132,0.06506629211172132
103.644,0.039424865599724246,0.039424865599724246
103.645,0.00945605901940283,-0.00945605901940283
103.646,0.06919974173045218,-0.06919974173045218
103.647,0.1218561521971715,-0.1218561521971715
103.648,0.14947080887763242,-0.14947080887763242
103.649,0.13999618101206923,-0.13999618101206923
103.65,0.09165729426768487,-0.09165729426768487
103.651,0.014303639810831603,-0.014303639810831603
103.652,0.07281726278480538,0.07281726278480538
103.653,0.14631863832154735,0.14631863832154735
103.654,0.18545034099414281,0.18545034099414281
103.655,0.17836001808200974,0.17836001808200974
103.656,0.12591607421705375,0.12591607421705375
103.657,0.04187816765105534,0.04187816765105534
103.658,0.05070428261162818,-0.05070428261162818
103.659,0.12584408218704501,-0.12584408218704501
103.66,0.1618653476836741,-0.1618653476836741
103.661,0.14743159566386388,-0.14743159566386388
103.662,0.08461584561320579,-0.08461584561320579
103.663,0.011822154061529533,0.011822154061529533
103.664,0.11864998475281086,0.11864998475281086
103.665,0.21055043959359665,0.21055043959359665
103.666,0.26677976693359584,0.26677976693359584
103.667,0.2762027557234008,0.2762027557234008
103.668,0.23939070555862596,0.23939070555862596
103.669,0.16741295888546426,0.16741295888546426
103.67,0.07795112897466483,0.07795112897466483
103.671,0.009896519944148752,-0.009896519944148752
103.672,0.08049016820248078,-0.08049016820248078
103.673,0.1248363239373792,-0.1248363239373792
103.674,0.1413902914858447,-0.1413902914858447
103.675,0.1346021404153468,-0.1346021404153468
103.676,0.11203817595617849,-0.11203817595617849
103.677,0.08126598932635765,-0.08126598932635765
103.678,0.04760869891087416,-0.04760869891087416
103.679,0.013416796838626288,-0.013416796838626288
103.68,0.021136955762957488,0.021136955762957488
103.681,0.05632069980386967,0.05632069980386967
103.682,0.09106777117793441,0.09106777117793441
103.683,0.12202000033131188,0.12202000033131188
103.684,0.14387063076456497,0.14387063076456497
103.685,0.1509326921308689,0.1509326921308689
103.686,0.13934083402026332,0.13934083402026332
103.687,0.10900883649889015,0.10900883649889015
103.688,0.06451688917822507,0.06451688917822507
103.689,0.014472076350333873,0.014472076350333873
103.69,0.030564167168496637,-0.030564167168496637
103.691,0.06095829879740633,-0.06095829879740633
103.692,0.07075790399214987,-0.07075790399214987
103.693,0.059391654873459765,-0.059391654873459765
103.694,0.031733004449082114,-0.031733004449082114
103.695,0.0035067782483397814,0.0035067782483397814
103.696,0.03652739575120689,0.03652739575120689
103.697,0.05942034333262591,0.05942034333262591
103.698,0.06840487699993947,0.06840487699993947
103.699,0.06460957011448909,0.06460957011448909
103.7,0.053195269487824826,0.053195269487824826
103.701,0.041180629244300215,0.041180629244300215
103.702,0.034760577077302734,0.034760577077302734
103.703,0.03705563996272576,0.03705563996272576
103.704,0.047051377095194136,0.047051377095194136
103.705,0.06005211153080592,0.06005211153080592
103.706,0.06943939621615525,0.06943939621615525
103.707,0.06908157463363751,0.06908157463363751
103.708,0.05553865805188174,0.05553865805188174
103.709,0.02930988093195208,0.02930988093195208
103.71,0.005266205668555957,-0.005266205668555957
103.711,0.04136381376465281,-0.04136381376465281
103.712,0.07174692461631182,-0.07174692461631182
103.713,0.09081802848251574,-0.09081802848251574
103.714,0.09593995990216309,-0.09593995990216309
103.715,0.08763836682034587,-0.08763836682034587
103.716,0.0687301479431831,-0.0687301479431831
103.717,0.04282649344551348,-0.04282649344551348
103.718,0.012877032164807511,-0.012877032164807511
103.719,0.019626358490506757,0.019626358490506757
103.72,0.05446161507939595,0.05446161507939595
103.721,0.09160748586313838,0.09160748586313838
103.722,0.12979280330166088,0.12979280330166088
103.723,0.16537215790280024,0.16537215790280024
103.724,0.19216772697329798,0.19216772697329798
103.725,0.20258320785902195,0.20258320785902195
103.726,0.1898083936242645,0.1898083936242645
103.727,0.15046627369884003,0.15046627369884003
103.728,0.08678449825487622,0.08678449825487622
103.729,0.007413648396434658,0.007413648396434658
103.73,0.07362501410686084,-0.07362501410686084
103.731,0.13980336989009312,-0.13980336989009312
103.732,0.17609509357851894,-0.17609509357851894
103.733,0.17302785660000675,-0.17302785660000675
103.734,0.12957219401831155,-0.12957219401831155
103.735,0.05393549149014687,-0.05393549149014687
103.736,0.03808649530330577,0.03808649530330577
103.737,0.1268316630384685,0.1268316630384685
103.738,0.19357314497964695,0.19357314497964695
103.739,0.22507220794387406,0.22507220794387406
103.74,0.21661987079366685,0.21661987079366685
103.741,0.17275270268879805,0.17275270268879805
103.742,0.10551929466325194,0.10551929466325194
103.743,0.030891364380067454,0.030891364380067454
103.744,0.035566358934387754,-0.035566358934387754
103.745,0.0824890414303483,-0.0824890414303483
103.746,0.10492346399128427,-0.10492346399128427
103.747,0.1044621732418668,-0.1044621732418668
103.748,0.08747993273091981,-0.08747993273091981
103.749,0.06223542558473594,-0.06223542558473594
103.75,0.035905139177491385,-0.035905139177491385
103.751,0.0125517257078962,-0.0125517257078962
103.752,0.0073692362931352395,0.0073692362931352395
103.753,0.025946588785476843,0.025946588785476843
103.754,0.0457459721667961,0.0457459721667961
103.755,0.06764214360369247,0.06764214360369247
103.756,0.08947531119479746,0.08947531119479746
103.757,0.10613592975767294,0.10613592975767294
103.758,0.1111374323536789,0.1111374323536789
103.759,0.09915825504254916,0.09915825504254916
103.76,0.0686287542822277,0.0686287542822277
103.761,0.02335374020142189,0.02335374020142189
103.762,0.027562649851015197,-0.027562649851015197
103.763,0.07167003425696983,-0.07167003425696983
103.764,0.09653467213078859,-0.09653467213078859
103.765,0.09351960367012147,-0.09351960367012147
103.766,0.06077337708890018,-0.06077337708890018
103.767,0.004396911458725117,-0.004396911458725117
103.768,0.06271269966787107,0.06271269966787107
103.769,0.12412381432805497,0.12412381432805497
103.77,0.1643403078627228,0.1643403078627228
103.771,0.17316587466829958,0.17316587466829958
103.772,0.14863636648291156,0.14863636648291156
103.773,0.09760211646251493,0.09760211646251493
103.774,0.03374976867416479,0.03374976867416479
103.775,0.026359640781283833,-0.026359640781283833
103.776,0.06804209046193244,-0.06804209046193244
103.777,0.08258824688595401,-0.08258824688595401
103.778,0.06946717844585426,-0.06946717844585426
103.779,0.03599038551298617,-0.03599038551298617
103.78,0.005410106567808937,0.005410106567808937
103.781,0.04138529407491731,0.04138529407491731
103.782,0.06198855686330984,0.06198855686330984
103.783,0.06372132200163283,0.06372132200163283
103.784,0.050338453969247965,0.050338453969247965
103.785,0.03118123733428968,0.03118123733428968
103.786,0.017615346630928563,0.017615346630928563
103.787,0.018773865825755687,0.018773865825755687
103.788,0.03803835848559567,0.03803835848559567
103.789,0.07145652195016328,0.07145652195016328
103.79,0.10866659993353989,0.10866659993353989
103.791,0.13607832486718618,0.13607832486718618
103.792,0.14131321693020515,0.14131321693020515
103.793,0.11747695845023731,0.11747695845023731
103.794,0.06586539336169417,0.06586539336169417
103.795,0.0038124219385037295,-0.0038124219385037295
103.796,0.07582853626180963,-0.07582853626180963
103.797,0.13275052847317936,-0.13275052847317936
103.798,0.1603652949027491,-0.1603652949027491
103.799,0.15170400384857785,-0.15170400384857785
103.8,0.10894214123718649,-0.10894214123718649
103.801,0.04261869616958802,-0.04261869616958802
103.802,0.03154024513102294,0.03154024513102294
103.803,0.09716742579033655,0.09716742579033655
103.804,0.1417408817619974,0.1417408817619974
103.805,0.15964290190823172,0.15964290190823172
103.806,0.15292190742300948,0.15292190742300948
103.807,0.12965440820752594,0.12965440820752594
103.808,0.10058356393734558,0.10058356393734558
103.809,0.07524585942015238,0.07524585942015238
103.81,0.058914884109550814,0.058914884109550814
103.811,0.05135919518754717,0.05135919518754717
103.812,0.047748880815114525,0.047748880815114525
103.813,0.041282346935782366,0.041282346935782366
103.814,0.02650334389833242,0.02650334389833242
103.815,0.002044435613519191,0.002044435613519191
103.816,0.028253211558356472,-0.028253211558356472
103.817,0.05630673023285537,-0.05630673023285537
103.818,0.07255087523197812,-0.07255087523197812
103.819,0.06953174356196934,-0.06953174356196934
103.82,0.04504073036616019,-0.04504073036616019
103.821,0.003609747939906427,-0.003609747939906427
103.822,0.044275459003063844,0.044275459003063844
103.823,0.08510754559442346,0.08510754559442346
103.824,0.10654052298470429,0.10654052298470429
103.825,0.10145456612868586,0.10145456612868586
103.826,0.07051582172734694,0.07051582172734694
103.827,0.02230178215568812,0.02230178215568812
103.828,0.02914721491757999,-0.02914721491757999
103.829,0.06862703484409505,-0.06862703484409505
103.83,0.08455148727012796,-0.08455148727012796
103.831,0.07264679478950709,-0.07264679478950709
103.832,0.03730913742462705,-0.03730913742462705
103.833,0.009875956881042924,0.009875956881042924
103.834,0.054017676644688484,0.054017676644688484
103.835,0.0819583989321031,0.0819583989321031
103.836,0.08680008430651376,0.08680008430651376
103.837,0.07038035938649889,0.07038035938649889
103.838,0.04280409805017804,0.04280409805017804
103.839,0.01909420332692635,0.01909420332692635
103.84,0.013986991416774952,0.013986991416774952
103.841,0.03654580011755604,0.03654580011755604
103.842,0.0863813076707638,0.0863813076707638
103.843,0.15279991687430794,0.15279991687430794
103.844,0.21729329812460185,0.21729329812460185
103.845,0.25871932405305476,0.25871932405305476
103.846,0.25964739929352687,0.25964739929352687
103.847,0.21193337889582775,0.21193337889582775
103.848,0.11978594863770531,0.11978594863770531
103.849,0.0006702839819555662,-0.0006702839819555662
103.85,0.12527190811524358,-0.12527190811524358
103.851,0.22803049179187163,-0.22803049179187163
103.852,0.28788108257941036,-0.28788108257941036
103.853,0.29402109248802755,-0.29402109248802755
103.854,0.24834512264804876,-0.24834512264804876
103.855,0.1643731360341707,-0.1643731360341707
103.856,0.06311750606048694,-0.06311750606048694
103.857,0.03278850282689327,0.03278850282689327
103.858,0.10493631461771802,0.10493631461771802
103.859,0.14330887986954188,0.14330887986954188
103.86,0.14772156152441163,0.14772156152441163
103.861,0.12637671859077804,0.12637671859077804
103.862,0.0922482842345389,0.0922482842345389
103.863,0.058605462487855586,0.058605462487855586
103.864,0.035125096954206514,0.035125096954206514
103.865,0.025716066728823872,0.025716066728823872
103.866,0.028523116997098752,0.028523116997098752
103.867,0.03782719571652948,0.03782719571652948
103.868,0.04696597638343958,0.04696597638343958
103.869,0.05114540704599291,0.05114540704599291
103.87,0.04915978213177352,0.04915978213177352
103.871,0.043505896350985784,0.043505896350985784
103.872,0.03898540133988493,0.03898540133988493
103.873,0.04042180838683751,0.04042180838683751
103.874,0.05039753535785607,0.05039753535785607
103.875,0.06786227071957063,0.06786227071957063
103.876,0.08811578458044012,0.08811578458044012
103.877,0.10416349795526436,0.10416349795526436
103.878,0.10896419808900326,0.10896419808900326
103.879,0.09779855712756569,0.09779855712756569
103.88,0.06997205310446097,0.06997205310446097
103.881,0.029313945765350846,0.029313945765350846
103.882,0.016656278535591373,-0.016656278535591373
103.883,0.05860088380693085,-0.05860088380693085
103.884,0.08768549592045849,-0.08768549592045849
103.885,0.09767962486908466,-0.09767962486908466
103.886,0.08629997860505134,-0.08629997860505134
103.887,0.05554078092802195,-0.05554078092802195
103.888,0.011048790830545108,-0.011048790830545108
103.889,0.03916162412961288,0.03916162412961288
103.89,0.08626165014852805,0.08626165014852805
103.891,0.12208497704089916,0.12208497704089916
103.892,0.1403210830576822,0.1403210830576822
103.893,0.137363116778505,0.137363116778505
103.894,0.11283311546408958,0.11283311546408958
103.895,0.06980264946442061,0.06980264946442061
103.896,0.014658259628156811,0.014658259628156811
103.897,0.04350743638649768,-0.04350743638649768
103.898,0.09409517912631193,-0.09409517912631193
103.899,0.1267900703753393,-0.1267900703753393
103.9,0.13373278757386364,-0.13373278757386364
103.901,0.1116230066034053,-0.1116230066034053
103.902,0.06315238890580621,-0.06315238890580621
103.903,0.002811363065204908,0.002811363065204908
103.904,0.0726223200777456,0.0726223200777456
103.905,0.13074154156977125,0.13074154156977125
103.906,0.16352574020990152,0.16352574020990152
103.907,0.16294940729657315,0.16294940729657315
103.908,0.12916226680199872,0.12916226680199872
103.909,0.07099752891788791,0.07099752891788791
103.91,0.004075260510005618,0.004075260510005618
103.911,0.05315079416270485,-0.05315079416270485
103.912,0.08439123643946,-0.08439123643946
103.913,0.0801524665152391,-0.0801524665152391
103.914,0.04060745304098756,-0.04060745304098756
103.915,0.02422867266582207,0.02422867266582207
103.916,0.09717128169306632,0.09717128169306632
103.917,0.1586719150990139,0.1586719150990139
103.918,0.1923628443364893,0.1923628443364893
103.919,0.1896841772548803,0.1896841772548803
103.92,0.15219095964826113,0.15219095964826113
103.921,0.09084087356576265,0.09084087356576265
103.922,0.022499275281164355,0.022499275281164355
103.923,0.035231012138883244,-0.035231012138883244
103.924,0.06922576973208994,-0.06922576973208994
103.925,0.0744719547166437,-0.0744719547166437
103.926,0.05501292666112334,-0.05501292666112334
103.927,0.02198344292463683,-0.02198344292463683
103.928,0.010541034896927037,0.010541034896927037
103.929,0.0304547574347922,0.0304547574347922
103.93,0.03164194971704726,0.03164194971704726
103.931,0.015783134186224013,0.015783134186224013
103.932,0.008611625818714774,-0.008611625818714774
103.933,0.0295568003673643,-0.0295568003673643
103.934,0.03614012776285558,-0.03614012776285558
103.935,0.02267537271281672,-0.02267537271281672
103.936,0.008988381013572244,0.008988381013572244
103.937,0.04981488647943122,0.04981488647943122
103.938,0.08649241779559791,0.08649241779559791
103.939,0.10594022392828539,0.10594022392828539
103.94,0.09989386580467241,0.09989386580467241
103.941,0.06801663792126744,0.06801663792126744
103.942,0.018467327318189675,0.018467327318189675
103.943,0.0343070653908264,-0.0343070653908264
103.944,0.07387307349761385,-0.07387307349761385
103.945,0.08684367967843598,-0.08684367967843598
103.946,0.0670476968716448,-0.0670476968716448
103.947,0.017529496462918348,-0.017529496462918348
103.948,0.05022299417844622,0.05022299417844622
103.949,0.11954341958271253,0.11954341958271253
103.95,0.1732994062312252,0.1732994062312252
103.951,0.19859612763544754,0.19859612763544754
103.952,0.1900793623772037,0.1900793623772037
103.953,0.1509434882670222,0.1509434882670222
103.954,0.09149838586386472,0.09149838586386472
103.955,0.025895505810444197,0.025895505810444197
103.956,0.03188079598189286,-0.03188079598189286
103.957,0.07152950654389123,-0.07152950654389123
103.958,0.088501606956923,-0.088501606956923
103.959,0.08420929954615075,-0.08420929954615075
103.96,0.06457747726160845,-0.06457747726160845
103.961,0.037616077196440556,-0.037616077196440556
103.962,0.01089124561968391,-0.01089124561968391
103.963,0.010337960437633242,0.010337960437633242
103.964,0.02389519335763035,0.02389519335763035
103.965,0.030381182840245158,0.030381182840245158
103.966,0.032144645953792184,0.032144645953792184
103.967,0.032048455236266316,0.032048455236266316
103.968,0.03249187119182073,0.03249187119182073
103.969,0.03493125847410372,0.03493125847410372
103.97,0.03987639563610612,0.03987639563610612
103.971,0.04714538250432798,0.04714538250432798
103.972,0.0561122124027309,0.0561122124027309
103.973,0.06577959748715712,0.06577959748715712
103.974,0.07469008626561346,0.07469008626561346
103.975,0.08085004000283202,0.08085004000283202
103.976,0.08189430665257058,0.08189430665257058
103.977,0.07562790332475844,0.07562790332475844
103.978,0.06087911436145754,0.06087911436145754
103.979,0.03837860358230483,0.03837860358230483
103.98,0.011252744703927453,0.011252744703927453
103.981,0.015233065965562287,-0.015233065965562287
103.982,0.03481343823554939,-0.03481343823554939
103.983,0.042032042144749315,-0.042032042144749315
103.984,0.034182376821149996,-0.034182376821149996
103.985,0.012676285606459392,-0.012676285606459392
103.986,0.01677520181969494,0.01677520181969494
103.987,0.045439122023399614,0.045439122023399614
103.988,0.06406504270418956,0.06406504270418956
103.989,0.06590169437052373,0.06590169437052373
103.99,0.04923000416606027,0.04923000416606027
103.991,0.01846805694852982,0.01846805694852982
103.992,0.016696608530298973,-0.016696608530298973
103.993,0.04405489360529313,-0.04405489360529313
103.994,0.05274600274401431,-0.05274600274401431
103.995,0.03703292673095093,-0.03703292673095093
103.996,0.0013035506697409716,0.0013035506697409716
103.997,0.05286865627387205,0.05286865627387205
103.998,0.10305842336747562,0.10305842336747562
103.999,0.1363393152053023,0.1363393152053023
104.0,0.14111098381332177,0.14111098381332177
104.001,0.11359643182457857,0.11359643182457857
104.002,0.05945101575949119,0.05945101575949119
104.003,0.007522107684539647,-0.007522107684539647
104.004,0.0692366026284541,-0.0692366026284541
104.005,0.10860423722449852,-0.10860423722449852
104.006,0.1145843918005579,-0.1145843918005579
104.007,0.08540493071402422,-0.08540493071402422
104.008,0.028938131528259525,-0.028938131528259525
104.009,0.03986323941376679,0.03986323941376679
104.01,0.10360940067958468,0.10360940067958468
104.011,0.1476690820233897,0.1476690820233897
104.012,0.16423629461969336,0.16423629461969336
104.013,0.15399910329443145,0.15399910329443145
104.014,0.12497484309833595,0.12497484309833595
104.015,0.08904390847193322,0.08904390847193322
104.016,0.057481913289173736,0.057481913289173736
104.017,0.037093864810594734,0.037093864810594734
104.018,0.028292583009915884,0.028292583009915884
104.019,0.025733577794391893,0.025733577794391893
104.02,0.021181025089268113,0.021181025089268113
104.021,0.007468208289315159,0.007468208289315159
104.022,0.017980152271763084,-0.017980152271763084
104.023,0.051434957616262156,-0.051434957616262156
104.024,0.08366794053864801,-0.08366794053864801
104.025,0.10305519693249376,-0.10305519693249376
104.026,0.09989644708460876,-0.09989644708460876
104.027,0.0703821585340525,-0.0703821585340525
104.028,0.01871348535091999,-0.01871348535091999
104.029,0.04350485390080672,0.04350485390080672
104.03,0.10052986621500581,0.10052986621500581
104.031,0.13738277942764432,0.13738277942764432
104.032,0.1447494372055249,0.1447494372055249
