Czas,Sum
101.024,0.0051318948683279735
101.025,0.004488863150148662
101.02600000000001,0.003986768465674604
101.027,0.003938171549863807
101.028,0.004365808237195396
101.02900000000001,0.004980669484438795
101.03,0.005281662192089979
101.031,0.004744951352748422
101.03200000000001,0.0030370958780561335
101.033,0.00017518085625102482
101.034,0.0034262794979581816
101.03500000000001,0.007043420484576484
101.036,0.009841058546319966
101.037,0.011117229331956443
101.03800000000001,0.010514392017608754
101.039,0.008128772515284384
101.04,0.004484027659838428
101.04100000000001,0.0003808953987168026
101.042,0.003325464628894453
101.043,0.0059479745954551955
101.04400000000001,0.007122498132653915
101.045,0.006855213403910254
101.046,0.005461805713823542
101.04700000000001,0.003433610169836036
101.048,0.0012855301476237247
101.049,0.0005618995920626287
101.05000000000001,0.0018357589300032257
101.051,0.0023997753076556772
101.052,0.002206576474753065
101.05300000000001,0.0012525045736447354
101.054,0.00043310762646480057
101.055,0.0027550755626367337
101.05600000000001,0.00549432740774424
101.057,0.008262669433420555
101.058,0.010510396006670605
101.05900000000001,0.011609133713117913
101.06,0.011001189144452967
101.061,0.008374552365433142
101.06200000000001,0.0038033714415615654
101.063,0.002203380971923319
101.06400000000001,0.008776151975226878
101.06500000000001,0.014871929339064675
101.066,0.01952296413600607
101.06700000000001,0.022070366641931204
101.06800000000001,0.02230692250979743
101.069,0.020482228521069252
101.07000000000001,0.01717031691885502
101.07100000000001,0.01304856678625931
101.072,0.008668814597536805
101.07300000000001,0.004304601853543258
101.07400000000001,6.965626258595096e-05
101.075,0.004661571062153577
101.07600000000001,0.009653122926372862
101.07700000000001,0.014986851001784303
101.078,0.02023649309529049
101.07900000000001,0.024624642464931543
101.08000000000001,0.027196996074218965
101.081,0.027103685226370685
101.08200000000001,0.02389470253889063
101.08300000000001,0.017725130651750267
101.084,0.009391917046081447
101.08500000000001,0.00017895942122448305
101.08600000000001,0.008447844870779169
101.087,0.015202220536309896
101.08800000000001,0.019282526370086043
101.08900000000001,0.020526098071636856
101.09,0.01937050653201271
101.09100000000001,0.01664496695528321
101.09200000000001,0.013271340257026587
101.093,0.009980995454763107
101.09400000000001,0.007142120623344445
101.09500000000001,0.004746877239289445
101.096,0.00254631999194092
101.09700000000001,0.0002662951653437494
101.09800000000001,0.00219014035429232
101.099,0.004638918087446221
101.10000000000001,0.006652674048428089
101.10100000000001,0.007724264396784349
101.102,0.00748814303247806
101.10300000000001,0.005906223931575736
101.10400000000001,0.003336414534726593
101.105,0.00044664120874900523
101.10600000000001,0.0020018674926741246
101.10700000000001,0.003424408309219608
101.108,0.0036325384379889613
101.10900000000001,0.002914155073445436
101.11000000000001,0.0019334436776498084
101.111,0.001477373506227684
101.11200000000001,0.00213584091617573
101.11300000000001,0.004033146010389672
101.114,0.006716504583631669
101.11500000000001,0.009255403933803136
101.11600000000001,0.010531291769627587
101.117,0.009626615902534072
101.11800000000001,0.006181293774586989
101.11900000000001,0.0005890390524041899
101.12,0.006044472163695943
101.12100000000001,0.012181040455946495
101.122,0.0162856327598016
101.123,0.01728196647086937
101.12400000000001,0.014881805373838443
101.125,0.009680987939093293
101.126,0.0029903693281686655
101.12700000000001,0.003544464181712633
101.128,0.00841358118404035
101.129,0.010655572226832865
101.13000000000001,0.010087726469804267
101.131,0.007291109432563012
101.132,0.003369107632010833
101.13300000000001,0.0004304605688689625
101.134,0.0031010077816164073
101.135,0.00414781284707211
101.13600000000001,0.0036669594990968763
101.137,0.0022246236874316036
101.138,0.0005955153840392662
101.13900000000001,0.0005384703975503981
101.14,0.0008234376747426697
101.141,0.0003281493132128244
101.14200000000001,0.0005215814168677578
101.143,0.0011315060816455631
101.144,0.0009739608172862628
101.14500000000001,0.00021659271996901937
101.146,0.002351796186989483
101.147,0.005023492089668348
101.14800000000001,0.00763986618248012
101.149,0.009607004012896945
101.15,0.010490180257173194
101.15100000000001,0.010104861679262944
101.152,0.008519426092271914
101.153,0.0059861812551861016
101.15400000000001,0.002840853694166991
101.155,0.0005847680749216636
101.156,0.00400672157385097
101.15700000000001,0.007184407753558105
101.158,0.009887562154640648
101.159,0.011867570292541315
101.16000000000001,0.012862319436491514
101.161,0.012645400704361227
101.162,0.011105986940243595
101.16300000000001,0.008326296507631047
101.164,0.004618258431767479
101.165,0.000492888713644245
101.16600000000001,0.0034392913622775835
101.167,0.006610626460153745
101.168,0.008635991371085922
101.16900000000001,0.00940183299833689
101.17,0.009072913735187189
101.171,0.00801420465716005
101.17200000000001,0.006656271217729484
101.173,0.005353067621769822
101.174,0.004283082266453008
101.17500000000001,0.003427256107456042
101.176,0.0026267735608554773
101.177,0.0016926126646557718
101.17800000000001,0.0005190254336426933
101.179,0.0008471912215887136
101.18,0.002210492931798644
101.18100000000001,0.0033011750088208663
101.182,0.0038881463318572126
101.183,0.0038803441171298405
101.18400000000001,0.003371032637061091
101.185,0.002602741917783482
101.186,0.0018646246595618063
101.18700000000001,0.001364601294425599
101.188,0.001132683118429938
101.18900000000001,0.0010023907573550011
101.19000000000001,0.0006866607614065385
101.191,7.56289076982211e-05
101.19200000000001,0.0013602798556557288
101.19300000000001,0.0029561658147517042
101.194,0.004376607841515532
101.19500000000001,0.004998851972126223
101.19600000000001,0.004295764947356692
101.197,0.0020811889288322445
101.19800000000001,0.0013263382782225882
101.19900000000001,0.005098528865324018
101.2,0.00807830509303197
101.20100000000001,0.009108759305510304
101.20200000000001,0.007413888264196353
101.203,0.002905728711756551
101.20400000000001,0.0036946883305485935
101.20500000000001,0.010981811709339475
101.206,0.017216798693997903
101.20700000000001,0.02080989063053424
101.20800000000001,0.020788957911076076
101.209,0.017105690812595612
101.21000000000001,0.010676431866162496
101.21100000000001,0.003135803519909423
101.212,0.0036278739871780513
101.21300000000001,0.008015749692962048
101.21400000000001,0.009173857127997424
101.215,0.0072210121259666405
101.21600000000001,0.0031809782326890452
101.21700000000001,0.0013560685274106176
101.218,0.004733257224767248
101.21900000000001,0.005730066851928584
101.22000000000001,0.003913827381544324
101.221,0.0002628699994777438
101.22200000000001,0.005637938283658478
101.22300000000001,0.010721241976088957
101.224,0.014152787937980816
101.22500000000001,0.015091441947346126
101.22600000000001,0.013418573954136606
101.227,0.009707271645762943
101.22800000000001,0.004986038023876619
101.22900000000001,0.00038972366332922615
101.23,0.00318049333388545
101.23100000000001,0.005279568295679802
101.23200000000001,0.005963535257716014
101.233,0.0056621282092675865
101.23400000000001,0.004942767143162427
101.23500000000001,0.00426181867063114
101.236,0.003795531956675722
101.23700000000001,0.0034072413005634713
101.23800000000001,0.002753748202721046
101.239,0.0014820897258764436
101.24000000000001,0.0005637524832268996
101.24100000000001,0.0032081017299752626
101.242,0.005934827623540583
101.24300000000001,0.008012430658022538
101.24400000000001,0.00871310186296025
101.245,0.007553095589470609
101.24600000000001,0.0044744192895526365
101.247,9.26582075082994e-05
101.248,0.005308130625411303
101.24900000000001,0.010119421632268717
101.25,0.013519478843797998
101.251,0.014792243646870396
101.25200000000001,0.013679124234606299
101.253,0.010426234608082691
101.254,0.005707677636997925
101.25500000000001,0.0004536006446137451
101.256,0.004366327898713127
101.257,0.007947749724592482
101.25800000000001,0.00979841575377196
101.259,0.009800937227926267
101.26,0.008188973769425812
101.26100000000001,0.005454334369988564
101.262,0.0022146997506289623
101.263,0.0009249906749675386
101.26400000000001,0.003488561387239586
101.265,0.005201898946702776
101.266,0.006014057783223
101.26700000000001,0.0060672375040724804
101.268,0.005625983738265121
101.269,0.004983362449053813
101.27000000000001,0.004366626250453799
101.271,0.0038659557860028985
101.272,0.0034061005611694273
101.27300000000001,0.002771717091278205
101.274,0.0016838989037468405
101.275,8.943102733927908e-05
101.27600000000001,0.002618844956944117
101.277,0.00572945157182832
101.278,0.008978378242469153
101.27900000000001,0.011710302057186896
101.28,0.013186754882998551
101.281,0.012762948099637808
101.28200000000001,0.010069394589158644
101.283,0.005150057049477457
101.284,0.0014835380768526687
101.28500000000001,0.008903441587384849
101.286,0.01591709884595776
101.287,0.021290101797402886
101.28800000000001,0.02399239017126296
101.289,0.02341450751281646
101.29,0.01950732585894681
101.29100000000001,0.012815599928181619
101.292,0.004397939577514415
101.293,0.004352094108079277
101.29400000000001,0.011951383845423774
101.295,0.0170958946090645
101.296,0.01890575186301294
101.29700000000001,0.0171030600459491
101.298,0.012087667966782576
101.299,0.004890244823988446
101.30000000000001,0.002999013304078866
101.301,0.009905149580710178
101.302,0.014302428279473683
101.30300000000001,0.015143988019624709
101.304,0.012114543401092128
101.305,0.005740183328408548
101.30600000000001,0.0026857950541871066
101.307,0.011361656147904861
101.308,0.01837376663386204
101.30900000000001,0.02214233941130683
101.31,0.021805397472067504
101.311,0.017436673834921913
101.31200000000001,0.010030903587168636
101.313,0.0012508576601909043
101.31400000000001,0.00700191538801911
101.31500000000001,0.01307682698377389
101.316,0.015986649837160572
101.31700000000001,0.01562387960064293
101.31800000000001,0.012719082962971497
101.319,0.008557441074288323
101.32000000000001,0.004545027576204381
101.32100000000001,0.001764101080776524
101.322,0.0006600889595016521
101.32300000000001,0.0009594134441588485
101.32400000000001,0.0018400841344559623
101.325,0.002291279262762139
101.32600000000001,0.0015330009263469003
101.32700000000001,0.0006547547091541921
101.328,0.0038134366288811086
101.32900000000001,0.006944896375906628
101.33000000000001,0.008863341775337957
101.331,0.00863784738160214
101.33200000000001,0.005966525701852373
101.33300000000001,0.0013426385759198157
101.334,0.00405733962261038
101.33500000000001,0.008736555742866704
101.33600000000001,0.011373416729090495
101.337,0.01127969160967245
101.33800000000001,0.008657014001154865
101.33900000000001,0.004552312031587212
101.34,0.000514788478815176
101.34100000000001,0.0019379779464955493
101.34200000000001,0.0018661394503043803
101.343,0.0007241117312976673
101.34400000000001,0.004825831076891935
101.34500000000001,0.00872312533155248
101.346,0.010544987808209137
101.34700000000001,0.008904688444148537
101.34800000000001,0.0034136607539444774
101.349,0.005105437982881901
101.35000000000001,0.014786660628242198
101.35100000000001,0.023226500149673857
101.352,0.028173669912856168
101.35300000000001,0.028188364615636435
101.35400000000001,0.023065566913961763
101.355,0.013892791261520206
101.35600000000001,0.0027296364458237045
101.35700000000001,0.007984332955600805
101.358,0.01610465063049938
101.35900000000001,0.020332027983184776
101.36000000000001,0.02047780189463421
101.361,0.017382788434537798
101.36200000000001,0.012540714631397103
101.36300000000001,0.007568100201130777
101.364,0.0037018311482485047
101.36500000000001,0.0014832350903908186
101.36600000000001,0.0007139886001547294
101.367,0.0006720745008155728
101.36800000000001,0.0004892481131809595
101.36900000000001,0.00045627794350427194
101.37,0.0022731480244489984
101.37100000000001,0.004504460032929144
101.372,0.0062981103890962465
101.373,0.006730509261101686
101.37400000000001,0.005164751518386346
101.375,0.0015180275763747011
101.376,0.0036508372947815847
101.37700000000001,0.00925947160229822
101.378,0.013983987119242572
101.379,0.016614277932729873
101.38000000000001,0.016375640314717575
101.381,0.013128061341838205
101.382,0.0073975660212089525
101.38300000000001,0.00024504056353631627
101.384,0.006980016421087359
101.385,0.012931555113379258
101.38600000000001,0.016536430909739632
101.387,0.017190640042604212
101.388,0.014856404423999875
101.38900000000001,0.010056195120594124
101.39,0.0037739860205496948
101.391,0.0027190636679344272
101.39200000000001,0.008093160661079932
101.393,0.01121502021295001
101.394,0.011391799319337608
101.39500000000001,0.008555397581074826
101.396,0.003335047263878233
101.397,0.0030227097706538027
101.39800000000001,0.008897873768602982
101.399,0.012671649959618444
101.4,0.013152166589192412
101.40100000000001,0.009939082453221086
101.402,0.0036123589787844077
101.403,0.004334729419560911
101.40400000000001,0.011831164368465595
101.405,0.016763544550122807
101.406,0.01757215878221721
101.40700000000001,0.013735046034467997
101.408,0.00598587642354475
101.409,0.0038186484642567854
101.41000000000001,0.013163661734265508
101.411,0.019551264886331955
101.412,0.021192993528393596
101.41300000000001,0.017513768906034236
101.414,0.009313602667905143
101.415,0.0014640708312464235
101.41600000000001,0.012287486696977469
101.417,0.020744787390095012
101.418,0.025188751355611185
101.41900000000001,0.02512465746506461
101.42,0.021233435115512293
101.421,0.015041522872982337
101.42200000000001,0.008362030876160519
101.423,0.0027011721078884585
101.424,0.0011731003935216138
101.42500000000001,0.003366499445517582
101.426,0.004670590298181542
101.427,0.006136915399992999
101.42800000000001,0.008577798243638506
101.429,0.012178638686577913
101.43,0.01636158931974243
101.43100000000001,0.0199478317087168
101.432,0.02155874622161567
101.433,0.020112741590556163
101.43400000000001,0.015242877958216092
101.435,0.0074902437978566355
101.436,0.001792872808327405
101.43700000000001,0.010796658661621087
101.438,0.01774641380509728
101.43900000000001,0.0213750226309159
101.44000000000001,0.02123026123868516
101.441,0.017733632787357883
101.44200000000001,0.011992622655771768
101.44300000000001,0.005446135395406064
101.444,0.0005327916311121537
101.44500000000001,0.004954506961527462
101.44600000000001,0.007370521139021593
101.447,0.007855586897236037
101.44800000000001,0.006858127402826077
101.44900000000001,0.004997478612485727
101.45,0.0028856752301400527
101.45100000000001,0.0010208626608857508
101.45200000000001,0.00024423848668482577
101.453,0.0006912311381125364
101.45400000000001,0.0002270309956457306
101.45500000000001,0.0010935613686067474
101.456,0.003017829737746126
101.45700000000001,0.0050556541887939645
101.45800000000001,0.006503796243957988
101.459,0.006572778586540124
101.46000000000001,0.004613617941248384
101.46100000000001,0.0003888414930003263
101.462,0.005708509675675672
101.46300000000001,0.012591560772806924
101.46400000000001,0.018639992513759765
101.465,0.022080828936640668
101.46600000000001,0.021502462904419352
101.46700000000001,0.016349708632786675
101.468,0.007229226674351988
101.46900000000001,0.004104136309452021
101.47000000000001,0.015116883161948778
101.471,0.02314309557347965
101.47200000000001,0.026128171626317295
101.47300000000001,0.023243550838941356
101.474,0.015171761717710017
101.47500000000001,0.003956054741877187
101.47600000000001,0.007555801236242499
101.477,0.016512544104676667
101.47800000000001,0.02086153401127602
101.47900000000001,0.019903848691552564
101.48,0.014431668856538214
101.48100000000001,0.006411841367704136
101.48200000000001,0.0016735461978732097
101.483,0.0076090936514462805
101.48400000000001,0.010094935290304545
101.48500000000001,0.009058088745128727
101.486,0.005541198305573416
101.48700000000001,0.001229291968543794
101.48800000000001,0.002203409975736555
101.489,0.003689358962425398
101.49000000000001,0.0030981584255402464
101.49100000000001,0.0011955953445681896
101.492,0.0007374277706442816
101.49300000000001,0.0014714509249405619
101.49400000000001,0.00036083187294233115
101.495,0.002361808482410811
101.49600000000001,0.005642405591799072
101.497,0.007995274405539274
101.498,0.00808288836890393
101.49900000000001,0.005269943311804035
101.5,5.802150081525418e-05
101.501,0.0065386415473092895
101.50200000000001,0.012237016821693527
101.503,0.015277744848837572
101.504,0.014488033994379984
101.50500000000001,0.009827268015000907
101.506,0.0024495852305469437
101.507,0.005628683372082897
101.50800000000001,0.012149542425744776
101.509,0.015316537360987363
101.51,0.014348230101747197
101.51100000000001,0.009702003210623653
101.512,0.002901044762212188
101.513,0.003969363363264899
101.51400000000001,0.008922488136796395
101.515,0.010668045266204539
101.516,0.008957276545242008
101.51700000000001,0.004577480504225889
101.518,0.0009805888261373808
101.519,0.006051758883398979
101.52000000000001,0.00933388870442253
101.521,0.010255527838987552
101.522,0.009065592404309463
101.52300000000001,0.006639486150135031
101.524,0.004093756455158837
101.525,0.002360278175906673
101.52600000000001,0.001872847144835098
101.527,0.0024669233069825342
101.528,0.003509133845090077
101.52900000000001,0.004189214496000293
101.53,0.0038535285691261535
101.531,0.002253556995860925
101.53200000000001,0.00037621924753398524
101.533,0.0034268847745561686
101.534,0.0061550690715962576
101.53500000000001,0.007953724763393967
101.536,0.008548383007461148
101.537,0.008049220217462247
101.53800000000001,0.006849660035088984
101.539,0.005423145713588189
101.54,0.004107796162555282
101.54100000000001,0.002970125007080603
101.542,0.0018044479261306332
101.543,0.00026824948799836505
101.54400000000001,0.00190230065393704
101.545,0.004686845459906224
101.546,0.007675233958185074
101.54700000000001,0.010116925284741259
101.548,0.011124049214283938
101.549,0.009969041552627206
101.55000000000001,0.006379367506541394
101.551,0.0007262349342322515
101.552,0.005966667358496364
101.55300000000001,0.012214257187136639
101.554,0.016419390695651636
101.555,0.01728944983765936
101.55600000000001,0.01420654486232122
101.557,0.007447647963743673
101.558,0.0018104966114012382
101.55900000000001,0.011711510440804216
101.56,0.020117566155047534
101.561,0.02509455517683783
101.56200000000001,0.02537158987642217
101.563,0.020666694890829753
101.56400000000001,0.011798905111161584
101.56500000000001,0.0005526229523220702
101.566,0.01068615962633017
101.56700000000001,0.019450498650999192
101.56800000000001,0.023759228421979094
101.569,0.022600601692312258
101.57000000000001,0.016212567445218297
101.57100000000001,0.006077388928766863
101.572,0.005389250763566168
101.57300000000001,0.0153993416699803
101.57400000000001,0.021478355921760138
101.575,0.022105141278568902
101.57600000000001,0.017131791363541836
101.57700000000001,0.007854747106462728
101.578,0.00330407212553527
101.57900000000001,0.013438531355492934
101.58000000000001,0.01995513951919414
101.581,0.021300974097900327
101.58200000000001,0.01740441646264414
101.58300000000001,0.009685003193261642
101.584,0.0006138567694097541
101.58500000000001,0.007054237617247623
101.58600000000001,0.011146286343288089
101.587,0.01076149229571917
101.58800000000001,0.006558710805179337
101.58900000000001,0.0005349401985426161
101.59,0.004648010056840322
101.59100000000001,0.006579352833794403
101.59200000000001,0.003958904546356038
101.593,0.0028915942906189225
101.59400000000001,0.012052020381373327
101.59500000000001,0.02057588783036022
101.596,0.025439627554504362
101.59700000000001,0.024563588796558483
101.59800000000001,0.017563225127019584
101.599,0.005967317730621099
101.60000000000001,0.00718964411863053
101.60100000000001,0.01828647954212633
101.602,0.024256254797083758
101.60300000000001,0.02357737932191227
101.60400000000001,0.016783950439166233
101.605,0.006317502817548023
101.60600000000001,0.004241948101870437
101.60700000000001,0.011321204222908528
101.608,0.012503917149682619
101.60900000000001,0.007309641367714909
101.61000000000001,0.002652400267628703
101.611,0.014202639682997769
101.61200000000001,0.023609372215932886
101.61300000000001,0.02776911997495492
101.614,0.025163889137192825
101.61500000000001,0.016290825076327092
101.61600000000001,0.0034407862494533694
101.617,0.010079402920517656
101.61800000000001,0.021005655405159484
101.61900000000001,0.027098507682628108
101.62,0.027731623060611617
101.62100000000001,0.023917218016698792
101.622,0.01779709707815829
101.623,0.011807362302175502
101.62400000000001,0.007823661197525466
101.625,0.006580967782918703
101.626,0.00754695400798172
101.62700000000001,0.009256602205577294
101.628,0.009951858970711585
101.629,0.00827247020777282
101.63000000000001,0.003744686425768115
101.631,0.0030921729646907247
101.632,0.010934894900632845
101.63300000000001,0.018213207936714694
101.634,0.02362289635061023
101.635,0.026488019391077873
101.63600000000001,0.02683088339839504
101.637,0.025158080046585138
101.638,0.022090239321676093
101.63900000000001,0.01802328697255103
101.64,0.012985879204956231
101.641,0.006761692323183913
101.64200000000001,0.0007828430845866446
101.643,0.009330023070704862
101.644,0.01790177951326388
101.64500000000001,0.024956799026929898
101.646,0.028815457799131732
101.647,0.0282856076683693
101.64800000000001,0.02325159500163725
101.649,0.01496627514488736
101.65,0.005869222591240257
101.65100000000001,0.0010795418670617254
101.652,0.003370470546888699
101.653,0.00010197514819240642
101.65400000000001,0.008459213519665788
101.655,0.018890656630107288
101.656,0.027393364821121376
101.65700000000001,0.03001163786166932
101.658,0.024192858152814346
101.659,0.009801569456348936
101.66000000000001,0.010583494579701619
101.661,0.03224429366328484
101.662,0.049636891282478036
101.66300000000001,0.058051594760180715
101.664,0.05509117306091535
101.665,0.0414760970504819
101.66600000000001,0.020891651024224498
101.667,0.0010990480899748863
101.668,0.0187424730232548
101.66900000000001,0.027844558807289643
101.67,0.027017691235932652
101.671,0.018021233275544588
101.67200000000001,0.0050901657111967055
101.673,0.006519114552346351
101.674,0.012279288224607391
101.67500000000001,0.009859153759229354
101.676,0.00017030615633180466
101.677,0.01460666438658569
101.67800000000001,0.028748766212269627
101.679,0.037990432907105104
101.68,0.0393295062695593
101.68100000000001,0.032290474708894255
101.682,0.018972618778319343
101.683,0.0032419734436632554
101.68400000000001,0.010623412953091308
101.685,0.01934981757977789
101.686,0.021658527973262835
101.68700000000001,0.018510890763062386
101.688,0.012561032785706078
101.68900000000001,0.007049724048937339
101.69000000000001,0.0045607957959412455
101.691,0.006093358934115121
101.69200000000001,0.010772024665094195
101.69300000000001,0.016274918706632342
101.694,0.01979558042818169
101.69500000000001,0.0191653716390343
101.69600000000001,0.013714333916144556
101.697,0.004554770455651919
101.69800000000001,0.005808917209627878
101.69900000000001,0.01439053804281839
101.7,0.018809703065631005
101.70100000000001,0.018153174933208494
101.70200000000001,0.013294253439906626
101.703,0.0065563569356432835
101.70400000000001,0.0008477269649680107
101.70500000000001,0.0014141957169462266
101.706,0.0008035385649310478
101.70700000000001,0.0067607547019157554
101.70800000000001,0.014198800428862925
101.709,0.020144428611120164
101.71000000000001,0.021973434745537982
101.71100000000001,0.018355353169700623
101.712,0.00974740151487257
101.71300000000001,0.00173061348167848
101.71400000000001,0.012989219571820596
101.715,0.02098243238005705
101.71600000000001,0.02368893659742387
101.71700000000001,0.020730308096197695
101.718,0.013430634267503752
101.71900000000001,0.004319688778732914
101.72000000000001,0.0037296706932965053
101.721,0.008425381965527124
101.72200000000001,0.008733637190142144
101.72300000000001,0.005104656945930651
101.724,0.0007925637543178972
101.72500000000001,0.0066986581756529944
101.72600000000001,0.010517705537138903
101.727,0.010940351077795112
101.72800000000001,0.007751879684906735
101.72900000000001,0.0017688750939308707
101.73,0.005519392312722738
101.73100000000001,0.012440488263524525
101.73200000000001,0.017578633169831173
101.733,0.02003737606821589
101.73400000000001,0.019490786518109895
101.73500000000001,0.01607909725773577
101.736,0.010254430154705405
101.73700000000001,0.0026740229822159534
101.73800000000001,0.005818382199298803
101.739,0.01415661016404258
101.74000000000001,0.02104851478774966
101.74100000000001,0.025095388703905555
101.742,0.025073000450329577
101.74300000000001,0.02032605815000319
101.74400000000001,0.011144904462945767
101.745,0.0010447861890240232
101.74600000000001,0.013816346096242325
101.747,0.024237979331481255
101.748,0.029633011483666115
101.74900000000001,0.02838845430513227
101.75,0.02054264771649531
101.751,0.007924329801865894
101.75200000000001,0.00625355335246893
101.753,0.01826205517769606
101.754,0.024936737246978195
101.75500000000001,0.02462987930319829
101.756,0.017716816555333893
101.757,0.006474492518018169
101.75800000000001,0.005643923970328685
101.759,0.015108770879544728
101.76,0.01942582797914868
101.76100000000001,0.017888464725310006
101.762,0.011717881290686077
101.763,0.0035494502759252167
101.76400000000001,0.0035493610598414395
101.765,0.007179956832497337
101.766,0.006441810806098251
101.76700000000001,0.002197269095601242
101.768,0.003317233068285038
101.769,0.0073861970495032285
101.77000000000001,0.007884575950072215
101.771,0.004125086196144541
101.772,0.002834110146246143
101.77300000000001,0.01054272445280271
101.774,0.016051437528352912
101.775,0.01702240871767438
101.77600000000001,0.012649068827578543
101.777,0.0040394312596491976
101.778,0.006093139601942728
101.77900000000001,0.014338069413142808
101.78,0.017781228486459234
101.781,0.01506093887158884
101.78200000000001,0.006904480111619042
101.783,0.004057517462029969
101.784,0.014147257249390588
101.78500000000001,0.019876465480831676
101.786,0.019136082602343958
101.787,0.011924799428914874
101.78800000000001,0.0003622222367195655
101.789,0.01201765315409465
101.79,0.021445943694855238
101.79100000000001,0.025161566728304004
101.792,0.022289617207919925
101.793,0.014060848393107594
101.79400000000001,0.0033126294456584373
101.795,0.0065358559525959805
101.796,0.012661609698292584
101.79700000000001,0.013752286327071843
101.798,0.010345455500952333
101.799,0.004495067214700909
101.80000000000001,0.0010883061066509219
101.801,0.004091285772302603
101.802,0.00345254142428563
101.80300000000001,0.00029055464486342774
101.804,0.005277353185130838
101.805,0.009101738909274397
101.80600000000001,0.009787270799633058
101.807,0.006585179767871594
101.808,0.00029166101465663276
101.80900000000001,0.007035418400975069
101.81,0.012852787390559518
101.811,0.015106855909497948
101.81200000000001,0.013037095698137503
101.813,0.007499333166488767
101.81400000000001,0.0006783043270160706
101.81500000000001,0.004713436349743453
101.816,0.006459509746402616
101.81700000000001,0.003708024234773292
101.81800000000001,0.0026433613743295906
101.819,0.010201051291519395
101.82000000000001,0.015892033924539306
101.82100000000001,0.017061099349759527
101.822,0.012459942228799103
101.82300000000001,0.0027717240997081165
101.82400000000001,0.009524906736557688
101.825,0.02091688916618772
101.82600000000001,0.02798745133664911
101.82700000000001,0.028530610149005375
101.828,0.02226891359964618
101.82900000000001,0.010932312586005766
101.83000000000001,0.002322035539570534
101.831,0.013942626394960295
101.83200000000001,0.02111100790973724
101.83300000000001,0.022580870526832313
101.834,0.018954792555181562
101.83500000000001,0.012326327097325005
101.83600000000001,0.005437116564534247
101.837,0.0006626481334415156
101.83800000000001,0.0008101237587426971
101.83900000000001,0.0006705345158463226
101.84,0.0034566740615513468
101.84100000000001,0.005314723850098454
101.84200000000001,0.004346152042671489
101.843,0.00022507465250105863
101.84400000000001,0.0076840916506174875
101.84500000000001,0.016007817398459984
101.846,0.022533454810385142
101.84700000000001,0.02487698113146457
101.84800000000001,0.02178077068973494
101.849,0.01359732430802195
101.85000000000001,0.0022440478917296605
101.85100000000001,0.00935476465571779
101.852,0.01815165959723949
101.85300000000001,0.021895264081221853
101.85400000000001,0.01979153440616878
101.855,0.01270669919377392
101.85600000000001,0.002865623271671707
101.85700000000001,0.006839829323980136
101.858,0.013703129946065347
101.85900000000001,0.01595223109440881
101.86000000000001,0.013182197494195342
101.861,0.0063703379705302935
101.86200000000001,0.0024944159647073082
101.86300000000001,0.011026830168672478
101.864,0.017109749545404455
101.86500000000001,0.019421818119369067
101.86600000000001,0.01770494187103156
101.867,0.012735157803700709
101.86800000000001,0.006042563667997733
101.86900000000001,0.0005200752433904393
101.87,0.005243226926603361
101.87100000000001,0.006958453770438889
101.872,0.005297542895178989
101.873,0.0007770365052889545
101.87400000000001,0.005298802386067688
101.875,0.011101354633260924
101.876,0.01467173980162738
101.87700000000001,0.014386536898965036
101.878,0.009409866133310688
101.879,2.6071255777476898e-05
101.88000000000001,0.01225386860202378
101.881,0.024888276846950906
101.882,0.034813060989449425
101.88300000000001,0.03918209045167901
101.884,0.03617039926467689
101.885,0.025615766889368615
101.88600000000001,0.00928100565423036
101.887,0.009400763171182446
101.888,0.026095895203553314
101.88900000000001,0.03669129077750399
101.89,0.038470600308197975
101.891,0.03099545159341075
101.89200000000001,0.016394250243263898
101.893,0.0010845984311766974
101.894,0.016182464548975067
101.89500000000001,0.024118464544534406
101.896,0.022031704164224876
101.897,0.009938669183754247
101.89800000000001,0.009111190815273238
101.899,0.029770004301753222
101.9,0.04583683410194095
101.90100000000001,0.05201132780541249
101.902,0.04544675971122254
101.903,0.026641119312974793
101.90400000000001,0.0006050170058009986
101.905,0.03015980116203845
101.906,0.055181323373611514
101.90700000000001,0.06991987604583769
101.908,0.07118686689870679
101.909,0.059086429714554564
101.91000000000001,0.036834580643595884
101.911,0.009763551816624375
101.912,0.01616039782953545
101.91300000000001,0.03585835293108854
101.914,0.04627538029369849
101.915,0.04685809133303547
101.91600000000001,0.039318563178102756
101.917,0.026845078146668706
101.918,0.013062459612517863
101.91900000000001,0.0010758016742542394
101.92,0.007147064304142511
101.921,0.01094829153045714
101.92200000000001,0.010762706519034623
101.923,0.00768042240426661
101.924,0.0029939491128823624
101.92500000000001,0.002113149052235448
101.926,0.006678973573361061
101.927,0.009925509872979375
101.92800000000001,0.011183758203195678
101.929,0.009895473850540494
101.93,0.005744650600678633
101.93100000000001,0.0011188081406998574
101.932,0.009877754160020232
101.933,0.019008238784409093
101.93400000000001,0.02649767337114664
101.935,0.030317889495217912
101.936,0.029034665857448752
101.93700000000001,0.02235157686361122
101.938,0.011373737189182758
101.93900000000001,0.0015503282656396888
101.94000000000001,0.013412585717673243
101.941,0.021403319157188797
101.94200000000001,0.02377568226268542
101.94300000000001,0.02042210783250418
101.944,0.012945234733015964
101.94500000000001,0.0041679818608026074
101.94600000000001,0.0027796618354689
101.947,0.005503760868911665
101.94800000000001,0.0031657935547867483
101.94900000000001,0.0032135262803051415
101.95,0.011089780157247271
101.95100000000001,0.01727454456096117
101.95200000000001,0.019069671882390803
101.953,0.015266595882579045
101.95400000000001,0.006654400052410078
101.95500000000001,0.004160135098794751
101.956,0.013583551956375162
101.95700000000001,0.018252519663184936
101.95800000000001,0.01622822235693209
101.959,0.007754770001251779
101.96000000000001,0.004694441667660296
101.96100000000001,0.017122551647935906
101.962,0.02525246020655953
101.96300000000001,0.025906254115001446
101.96400000000001,0.018066677313673923
101.965,0.003266737846902209
101.96600000000001,0.014825943905974389
101.96700000000001,0.03149720178375709
101.968,0.042392567566141744
101.96900000000001,0.0447861710108753
101.97000000000001,0.03830945323988515
101.971,0.02492420460966887
101.97200000000001,0.008180863364259001
101.97300000000001,0.00796042523590239
101.974,0.020332935607285087
101.97500000000001,0.02738813426347946
101.97600000000001,0.029389564755427002
101.977,0.027957284512167516
101.97800000000001,0.025177687536648206
101.97900000000001,0.02264293913019189
101.98,0.020796999179553674
101.98100000000001,0.01883814810595782
101.98200000000001,0.015208416197832485
101.983,0.008469283649173003
101.98400000000001,0.0017940463151761069
101.98500000000001,0.014421337120474366
101.986,0.02673971041061301
101.98700000000001,0.035276187628937195
101.98800000000001,0.03690870836050069
101.989,0.030062240177753944
101.99000000000001,0.015510000914030144
101.99100000000001,0.00354944389017427
101.992,0.022233565941680446
101.99300000000001,0.035349242635893174
101.99400000000001,0.038981489505703494
101.995,0.031783467622645944
101.99600000000001,0.015527208259723172
101.997,0.005300342215777128
101.998,0.024766148487019423
101.99900000000001,0.0372500370792111
102.0,0.039149821483146933
102.001,0.029993511658533825
102.00200000000001,0.01259962826775276
102.003,0.007774851779027942
102.004,0.025038807692450187
102.00500000000001,0.03412474497007542
102.006,0.03252170654481472
102.007,0.021009862594459045
102.00800000000001,0.003377669359729658
102.009,0.01477667954771329
102.01,0.027773955170123522
102.01100000000001,0.03157026576828099
102.012,0.024935869963171476
102.013,0.009752796509789162
102.01400000000001,0.009628826128411027
102.015,0.027743635034108476
102.016,0.03963310038723761
102.01700000000001,0.04223563573003772
102.018,0.03514189236990213
102.019,0.020531012393444802
102.02000000000001,0.002366547338958043
102.021,0.01484840825006456
102.022,0.027346492311325802
102.02300000000001,0.03301864411124719
102.024,0.031747320477465577
102.025,0.02512252637194765
102.02600000000001,0.015710403361956254
102.027,0.006165968250235901
102.028,0.0015063758164570267
102.02900000000001,0.0063326902262178675
102.03,0.008331915425176112
102.031,0.008159281819048977
102.03200000000001,0.006631168844650447
102.033,0.004347007226247186
102.034,0.0015536039807534738
102.03500000000001,0.0017249692767168886
102.036,0.005391754388128335
102.037,0.008989773579541
102.03800000000001,0.011594664857806036
102.039,0.0119803020931444
102.04,0.009029242709231616
102.04100000000001,0.002244100760340587
102.042,0.00784690914478732
102.043,0.01957949290510743
102.04400000000001,0.03043223063552874
102.045,0.03764998266095283
102.046,0.039033849575335997
102.04700000000001,0.033643582528927754
102.048,0.022169789089726742
102.049,0.006832098694335396
102.05000000000001,0.00918651350227066
102.051,0.022602838680242193
102.052,0.030924379787551148
102.05300000000001,0.033085827558534134
102.054,0.029632588441874837
102.055,0.022405148797816892
102.05600000000001,0.013846109299256415
102.057,0.006176806795378693
102.058,0.0007285729683361298
102.05900000000001,0.0023485378216394244
102.06,0.003917047220125396
102.061,0.0053090897252796474
102.06200000000001,0.007630544154381276
102.063,0.011187601026700906
102.06400000000001,0.01526347557276941
102.06500000000001,0.018340406939172323
102.066,0.01869231125919768
102.06700000000001,0.015128430071162347
102.06800000000001,0.007601991667212278
102.069,0.0025634459098255367
102.07000000000001,0.01294513419749192
102.07100000000001,0.020725058173173782
102.072,0.02359875204694573
102.07300000000001,0.02057465091086276
102.07400000000001,0.012373859893857692
102.075,0.0012701177493766374
102.07600000000001,0.009597990168114865
102.07700000000001,0.017222846277331717
102.078,0.019696196922854504
102.07900000000001,0.016814491707674066
102.08000000000001,0.010104452971482948
102.081,0.002251397308699103
102.08200000000001,0.003876197793009709
102.08300000000001,0.006264452896151318
102.084,0.004482396699351844
102.08500000000001,0.00016933120541627467
102.08600000000001,0.005158070145245911
102.087,0.007702969561065778
102.08800000000001,0.005896925821073469
102.08900000000001,0.0004442543961440215
102.09,0.009536307061743432
102.09100000000001,0.01811336093678711
102.09200000000001,0.02251847923448127
102.093,0.02004483769576731
102.09400000000001,0.01006356998560344
102.09500000000001,0.005479394538794815
102.096,0.022420857817005153
102.09700000000001,0.035533990628631704
102.09800000000001,0.04014395931456045
102.099,0.03369574535896472
102.10000000000001,0.0167525026858397
102.10100000000001,0.0069350105997538795
102.102,0.03135927053602669
102.10300000000001,0.04993617624530885
102.10400000000001,0.057432919674113764
102.105,0.05154709975225005
102.10600000000001,0.03363653778768193
102.10700000000001,0.008358271355274916
102.108,0.017684218586208052
102.10900000000001,0.03787370035040777
102.11000000000001,0.04749630188412337
102.111,0.04505297719265305
102.11200000000001,0.032568464719317215
102.11300000000001,0.014819467513778573
102.114,0.0022552006443123367
102.11500000000001,0.013446139663867374
102.11600000000001,0.01586469587875927
102.117,0.009740322061831093
102.11800000000001,0.001805777050803081
102.11900000000001,0.013908164956799701
102.12,0.021631244248614807
102.12100000000001,0.02161690337141594
102.122,0.0131763013782592
102.123,0.0015102118336705115
102.12400000000001,0.018124710421198717
102.125,0.03161410365877702
102.126,0.037795593800003496
102.12700000000001,0.03464802360377765
102.128,0.022890938534138917
102.129,0.005695977470977618
102.13000000000001,0.012341737811878984
102.131,0.0266148927917042
102.132,0.03383691613896503
102.13300000000001,0.03288593706713857
102.134,0.024929856887415554
102.135,0.012847823112744126
102.13600000000001,0.00018889218193472043
102.137,0.009959131951120985
102.138,0.01581757258179059
102.13900000000001,0.0172327485671723
102.14,0.015410749399408646
102.141,0.012224552288785087
102.14200000000001,0.009382647938760839
102.143,0.007774081313555969
102.144,0.007217593905130814
102.14500000000001,0.006678969981668043
102.146,0.004842540685933687
102.147,0.0007944867032657661
102.14800000000001,0.005458623352694252
102.149,0.012843500634181909
102.15,0.019509018114119783
102.15100000000001,0.023447824800470047
102.152,0.023222230882818724
102.153,0.018524653131361455
102.15400000000001,0.010360497666987364
102.155,0.0007763142941606166
102.156,0.007780504241504142
102.15700000000001,0.01325091668989286
102.158,0.014627170915768477
102.159,0.012256249537726631
102.16000000000001,0.007675334926634
102.161,0.003034612637599299
102.162,0.0003081993109110348
102.16300000000001,0.0005701312251918115
102.164,0.003592298674594332
102.165,0.007911383880494605
102.16600000000001,0.011349689984985858
102.167,0.01181577308543479
102.168,0.008109648158576439
102.16900000000001,0.00044919188969483917
102.17,0.009477001403985413
102.171,0.018968488689286467
102.17200000000001,0.025149063607440472
102.173,0.025914251348261027
102.174,0.02067864443783042
102.17500000000001,0.010667541014981645
102.176,0.0013617750426560926
102.177,0.011902649201629116
102.17800000000001,0.01775554836924602
102.179,0.017034880726747328
102.18,0.009809495637516057
102.18100000000001,0.0018336182953196376
102.182,0.014339715842668192
102.183,0.02370085757674511
102.18400000000001,0.026640931460255805
102.185,0.021620923939018755
102.186,0.009362397255062285
102.18700000000001,0.007274336170306789
102.188,0.024033190042874505
102.18900000000001,0.03642103362312073
102.19000000000001,0.0409551308133833
102.191,0.03614539162216637
102.19200000000001,0.022932656369803118
102.19300000000001,0.004458855968901978
102.194,0.014766085937645144
102.19500000000001,0.030066680278447534
102.19600000000001,0.03783845872295047
102.197,0.036477940010485044
102.19800000000001,0.02675543355610845
102.19900000000001,0.011539261738232031
102.2,0.005038008470083922
102.20100000000001,0.018727545590047582
102.20200000000001,0.02630099042210177
102.203,0.02636207631588382
102.20400000000001,0.01961906176843996
102.20500000000001,0.008561918189598845
102.206,0.0033416712551842167
102.20700000000001,0.012684098768479077
102.20800000000001,0.017083013896734413
102.209,0.015798499700807954
102.21000000000001,0.009837136973452674
102.21100000000001,0.0015337846301566077
102.212,0.0062431836865082775
102.21300000000001,0.011009421418417119
102.21400000000001,0.011421517638673707
102.215,0.0076463752849149965
102.21600000000001,0.0012406229172496968
102.21700000000001,0.005408657140896943
102.218,0.009895033850484646
102.21900000000001,0.010593046920814695
102.22000000000001,0.0071922210441950326
102.221,0.0007965268062788322
102.22200000000001,0.00643922306956334
102.22300000000001,0.012016511132946148
102.224,0.013914725854034131
102.22500000000001,0.011261891227572214
102.22600000000001,0.00463766836607592
102.227,0.004090304514166503
102.22800000000001,0.01234594437199115
102.22900000000001,0.017655701101546878
102.23,0.018431891513295377
102.23100000000001,0.014477687013155612
102.23200000000001,0.007051910902295085
102.233,0.0015273675913890685
102.23400000000001,0.008613942438370268
102.23500000000001,0.012066054347519534
102.236,0.010915546375026045
102.23700000000001,0.005662036648966026
102.23800000000001,0.0018986180595337125
102.239,0.009253260122859963
102.24000000000001,0.01397038386684125
102.24100000000001,0.014463933480456093
102.242,0.010481411536539746
102.24300000000001,0.0031670389591711245
102.24400000000001,0.005311883070308093
102.245,0.012448693858865933
102.24600000000001,0.016169323925104513
102.247,0.015448572900640266
102.248,0.010583190838634394
102.24900000000001,0.0030488345224181836
102.25,0.004997799995970999
102.251,0.01140038749058708
102.25200000000001,0.014645604493311034
102.253,0.01426696406856132
102.254,0.01089551963741902
102.25500000000001,0.005961892560574163
102.256,0.0011660453576500156
102.257,0.0020997527972145833
102.25800000000001,0.0031838274917737747
102.259,0.0023298809567261214
102.26,0.0005175952470446083
102.26100000000001,0.000942002880532831
102.262,0.0009100067609139507
102.263,0.001150517464915547
102.26400000000001,0.0049594274063945185
102.265,0.009484719927097013
102.266,0.01326052051846573
102.26700000000001,0.014850480293254257
102.268,0.01330737160257036
102.269,0.00848675462695558
102.27000000000001,0.0011232446332004944
102.271,0.007346546865270039
102.272,0.015154876697060178
102.27300000000001,0.020655475900897793
102.274,0.022729858945454203
102.275,0.02104111623827455
102.27600000000001,0.016078397933782098
102.277,0.008995297275967179
102.278,0.0012981160317923773
102.27900000000001,0.005527599547842792
102.28,0.010357268837718732
102.281,0.012656138817714898
102.28200000000001,0.012551332044670257
102.283,0.010740252711765806
102.284,0.008264493881905801
102.28500000000001,0.006205708471348436
102.286,0.005375347382800308
102.287,0.00607234996796477
102.28800000000001,0.007971347514191023
102.289,0.01017907653997592
102.29,0.011460534049845338
102.29100000000001,0.0105939309215155
102.292,0.006773318207960436
102.293,4.882723883152489e-05
102.29400000000001,0.008988638709416899
102.295,0.01830747295125564
102.296,0.025758539944920562
102.29700000000001,0.029146541349251744
102.298,0.02696877686454731
102.299,0.018959039620223602
102.30000000000001,0.006356174356346473
102.301,0.008224404008600392
102.302,0.021334645662075144
102.30300000000001,0.02954754097087219
102.304,0.03040669448691372
102.305,0.023202587695668537
102.30600000000001,0.009327997713122054
102.307,0.007934104720043994
102.308,0.024180142690701515
102.30900000000001,0.03503423303485117
102.31,0.03736764892516679
102.311,0.030236966462959487
102.31200000000001,0.015248116567729836
102.313,0.003793032587484784
102.31400000000001,0.021877276919967284
102.31500000000001,0.03417235845047289
102.316,0.037396315839221934
102.31700000000001,0.030779234860386893
102.31800000000001,0.01631726151179395
102.319,0.0017746313830648449
102.32000000000001,0.018266993639265178
102.32100000000001,0.02843269671809486
102.322,0.029430852654259265
102.32300000000001,0.021145061402834342
102.32400000000001,0.006221568857982091
102.325,0.010709484622913292
102.32600000000001,0.024401621832904813
102.32700000000001,0.030543008997877423
102.328,0.027030415945688575
102.32900000000001,0.014589849461981675
102.33000000000001,0.003435149706617367
102.331,0.022056966610075352
102.33200000000001,0.036083216491485826
102.33300000000001,0.04159313436435896
102.334,0.03702067009932408
102.33500000000001,0.02354115445072546
102.33600000000001,0.004672561227955824
102.337,0.014764112474316728
102.33800000000001,0.029999466861997205
102.33900000000001,0.03758318350198945
102.34,0.036209621476500004
102.34100000000001,0.026897391239518977
102.34200000000001,0.012521230151191009
102.343,0.0031160622840742612
102.34400000000001,0.016364728020895405
102.34500000000001,0.02463837653911405
102.346,0.026912846797704514
102.34700000000001,0.023722401680881435
102.34800000000001,0.016725359090253578
102.349,0.008035160696239734
102.35000000000001,0.00043918404972407
102.35100000000001,0.0074362736905811844
102.352,0.012463976150304886
102.35300000000001,0.015620964604878253
102.35400000000001,0.01724491659614528
102.355,0.017563116410010456
102.35600000000001,0.016500397155295297
102.35700000000001,0.013720969815776073
102.358,0.008876861324687827
102.35900000000001,0.001946349729515315
102.36000000000001,0.006495807136100745
102.361,0.015213458446135544
102.36200000000001,0.02251101984041261
102.36300000000001,0.026661859132771505
102.364,0.026431716201811485
102.36500000000001,0.02151946408301981
102.36600000000001,0.012753661136262263
102.367,0.0019577208101559445
102.36800000000001,0.008495596974496896
102.36900000000001,0.01631496676797843
102.37,0.01991559325937333
102.37100000000001,0.018844194865347136
102.372,0.013870113445733464
102.373,0.006714045398153157
102.37400000000001,0.0004988123186002153
102.375,0.0058870270599336956
102.376,0.00835766044826877
102.37700000000001,0.007878277955142243
102.378,0.005397311421893864
102.379,0.002448734134905117
102.38000000000001,0.000578797365954644
102.381,0.000788170810393741
102.382,0.003174581158349244
102.38300000000001,0.006892386811742096
102.384,0.010439615781305521
102.385,0.012174889337217972
102.38600000000001,0.010891708737284908
102.387,0.00625987630175373
102.388,0.0010115629544368936
102.38900000000001,0.009343863800632502
102.39,0.016736463946139184
102.391,0.021349807612353316
102.39200000000001,0.022038108484036152
102.393,0.018665903970087907
102.394,0.01211443813381233
102.39500000000001,0.003985008311192947
102.396,0.0038970500443970034
102.397,0.01001350136429375
102.39800000000001,0.013549724604033078
102.399,0.014537060983099299
102.4,0.013709636328636834
102.40100000000001,0.012140467451849863
102.402,0.010793633867795287
102.403,0.010153419607349593
102.40400000000001,0.01006025245837335
102.405,0.009808226625160722
102.406,0.008465900270917863
102.40700000000001,0.005302715630716139
102.408,0.00016479537019904516
102.409,0.00634082353173672
102.41000000000001,0.012930319341491829
102.411,0.017980969026197512
102.412,0.020020280652003425
102.41300000000001,0.018209171912538482
102.414,0.012659117344490918
102.415,0.0044734699733054665
102.41600000000001,0.004509786018408261
102.417,0.012201389318550885
102.418,0.01682569656556859
102.41900000000001,0.017397027041414607
102.42,0.013966344713888882
102.421,0.00757052591686138
102.42200000000001,9.03967953789887e-05
102.423,0.007140370254794499
102.424,0.012026213546053086
102.42500000000001,0.013881282018714509
102.426,0.012659245835303883
102.427,0.009022911727315445
102.42800000000001,0.00405192884347899
102.429,0.001115139418599284
102.43,0.005580619723291688
102.43100000000001,0.008841002161450848
102.432,0.010769032064169628
102.433,0.011467275061704566
102.43400000000001,0.011081388869254553
102.435,0.009668753287995996
102.436,0.007185735695834581
102.43700000000001,0.0035983700954530886
102.438,0.0009395984675697319
102.43900000000001,0.005935554200612847
102.44000000000001,0.010526980943936495
102.441,0.013621941739609294
102.44200000000001,0.014194098915502861
102.44300000000001,0.011646008888911201
102.444,0.00611163290488392
102.44500000000001,0.0014282107228127912
102.44600000000001,0.009292284059558995
102.447,0.015496925310075642
102.44800000000001,0.018304847006708466
102.44900000000001,0.016760622599147002
102.45,0.011037159667981125
102.45100000000001,0.0024654481897138495
102.45200000000001,0.006785288837069333
102.453,0.014297994987533199
102.45400000000001,0.018097835544273005
102.45500000000001,0.017231173247896067
102.456,0.012050384382831979
102.45700000000001,0.0041097479910023335
102.45800000000001,0.004300883123259578
102.459,0.010842619660276052
102.46000000000001,0.013821246462382414
102.46100000000001,0.012672280951529351
102.462,0.00808851920675925
102.46300000000001,0.0017562534733108503
102.46400000000001,0.004208295421398533
102.465,0.007936336047032878
102.46600000000001,0.008378954256338778
102.46700000000001,0.005595097055279584
102.468,0.0006726161965371186
102.46900000000001,0.004678180705324515
102.47000000000001,0.008713165782918164
102.471,0.010224963021750846
102.47200000000001,0.008908281282723406
102.47300000000001,0.005407805919797464
102.474,0.0010464850650460042
102.47500000000001,0.0026608589331681863
102.47600000000001,0.0045355221909905595
102.477,0.004124054499788141
102.47800000000001,0.0018219468833698261
102.47900000000001,0.001299941796321061
102.48,0.00389599465733122
102.48100000000001,0.004828938672409532
102.48200000000001,0.0035685398484502544
102.483,0.0003741394041751657
102.48400000000001,0.00379248275424948
102.48500000000001,0.0075847094826000435
102.486,0.00970506367076139
102.48700000000001,0.009309077340675476
102.48800000000001,0.006251380014451351
102.489,0.0011068413467945678
102.49000000000001,0.005021692798955982
102.49100000000001,0.010829093946810746
102.492,0.015151961740710998
102.49300000000001,0.01722365438946133
102.49400000000001,0.01677733118336284
102.495,0.01399544204679299
102.49600000000001,0.009358389304934827
102.497,0.0034723051770627956
102.498,0.00305216638376649
102.49900000000001,0.009635397262352028
102.5,0.0156927879135412
102.501,0.0205803852910702
102.50200000000001,0.02358729562889307
102.503,0.024019715283985322
102.504,0.021376678911919998
102.50500000000001,0.015567126901603256
102.506,0.007083408312661702
102.507,0.0029558262361201533
102.50800000000001,0.012946096587496667
102.509,0.021113137533339047
102.51,0.025931113549202738
102.51100000000001,0.02652348658250785
102.512,0.022919168544156543
102.513,0.01607271265815144
102.51400000000001,0.00762739763047471
102.515,0.0005185201035791631
102.516,0.006716952395218063
102.51700000000001,0.009995024987693526
102.518,0.01027146217362065
102.519,0.008300974396228494
102.52000000000001,0.005369591769589677
102.521,0.002842682989261537
102.522,0.0017126420994133828
102.52300000000001,0.0022902106342954226
102.524,0.004133715739115205
102.525,0.0062312949893538585
102.52600000000001,0.007369108182369291
102.527,0.00656059520137772
102.528,0.0033962591026582777
102.52900000000001,0.0017961491504359575
102.53,0.008026504078167854
102.531,0.013921293522653071
102.53200000000001,0.018112985794924437
102.533,0.019616446885265457
102.534,0.018080279676515352
102.53500000000001,0.013846725780287826
102.536,0.007816991705529644
102.537,0.001177962629541214
102.53800000000001,0.004917281477811454
102.539,0.009618500787479526
102.54,0.012526412094537158
102.54100000000001,0.013694456419170864
102.542,0.013506208915370355
102.543,0.012484834023295645
102.54400000000001,0.011103111426888022
102.545,0.009651600320179294
102.546,0.008195337084479453
102.54700000000001,0.006617222302258278
102.548,0.0047199658356172555
102.549,0.0023452937428170275
102.55000000000001,0.000529366140845497
102.551,0.003743815341248749
102.552,0.006967125559891415
102.55300000000001,0.009761919386738
102.554,0.011682772609914047
102.555,0.012385378629736848
102.55600000000001,0.011722594277250847
102.557,0.009805855617546778
102.558,0.007014819171854812
102.55900000000001,0.003944979081132365
102.56,0.0012936211883320717
102.561,0.00030093847638914775
102.56200000000001,0.00043545065231439574
102.563,0.000911606423791216
102.56400000000001,0.0033115323086107744
102.56500000000001,0.0059330512063451414
102.566,0.007717418628036683
102.56700000000001,0.00765458887887477
102.56800000000001,0.005095892083743247
102.569,1.3656976043534997e-05
102.57000000000001,0.00688184929737937
102.57100000000001,0.01422784770496769
102.572,0.020301489604782206
102.57300000000001,0.02345866186325435
102.57400000000001,0.022603761409041922
102.575,0.017550982908592933
102.57600000000001,0.009156312435862544
102.57700000000001,0.0008405758441023466
102.578,0.01023975193167498
102.57900000000001,0.016960037969094826
102.58000000000001,0.019607774400628983
102.581,0.01786320401685734
102.58200000000001,0.01256122480896021
102.58300000000001,0.00543448188854762
102.584,0.0014076888232544367
102.58500000000001,0.006105459330181372
102.58600000000001,0.0075846454274270106
102.587,0.005834461036284613
102.58800000000001,0.0018414456724566218
102.58900000000001,0.0027934105139748623
102.59,0.00642254022563169
102.59100000000001,0.007911447722738564
102.59200000000001,0.007000516461599563
102.593,0.004347759505336177
102.59400000000001,0.0012418766486129399
102.59500000000001,0.000909918243226861
102.596,0.0011351376548830354
102.59700000000001,0.0007098372387046242
102.59800000000001,0.0038506446403974996
102.599,0.0068502388552371535
102.60000000000001,0.008125650878024302
102.60100000000001,0.006547880620175931
102.602,0.0019121229223726835
102.60300000000001,0.004894812026431963
102.60400000000001,0.012101783609527695
102.605,0.017578673672792935
102.60600000000001,0.01951166458026606
102.60700000000001,0.017004823595481326
102.608,0.010404898742966887
102.60900000000001,0.0012365213777103617
102.61000000000001,0.00823543788902326
102.611,0.015675123879746768
102.61200000000001,0.019358672339059996
102.61300000000001,0.018650502621993373
102.614,0.014124762867754177
102.61500000000001,0.007305423164054402
102.61600000000001,0.0001271662395162161
102.617,0.005689782530513211
102.61800000000001,0.009135626906828278
102.61900000000001,0.010116093856399049
102.62,0.009314322998267939
102.62100000000001,0.007782779189111597
102.622,0.006435015552820047
102.623,0.005640085212009653
102.62400000000001,0.005079945209354665
102.625,0.003927702260022842
102.626,0.0012792422005566218
102.62700000000001,0.0033314335173571224
102.628,0.009543755534176579
102.629,0.016082498405657623
102.63000000000001,0.021039508538505492
102.631,0.02245925927828818
102.632,0.019043180392367444
102.63300000000001,0.010728472475781186
102.634,0.0010785672739787987
102.635,0.013731578491316732
102.63600000000001,0.024002797521187818
102.637,0.028991831988321542
102.638,0.027010950502211636
102.63900000000001,0.01816537332745919
102.64,0.0044308029174470135
102.641,0.01081895140544051
102.64200000000001,0.023711218914417003
102.643,0.030942234567758332
102.644,0.030698416193192787
102.64500000000001,0.02315692640339983
102.646,0.010417203026479669
102.647,0.00411325991977266
102.64800000000001,0.01669206621157735
102.649,0.024282503154308528
102.65,0.025355878306298207
102.65100000000001,0.020229051033767455
102.652,0.010856583089798243
102.653,0.0001630530020988542
102.65400000000001,0.008864436897775262
102.655,0.014041099435786153
102.656,0.014550497945050388
102.65700000000001,0.011059176659700585
102.658,0.005372939787747337
102.659,0.00023128079739635055
102.66000000000001,0.003771385568609078
102.661,0.004179486705821771
102.662,0.0015893367479746204
102.66300000000001,0.002779744016247143
102.664,0.00708360928735588
102.665,0.009494546561539622
102.66600000000001,0.00881044359534129
102.667,0.004840060560087434
102.668,0.0015472897262858065
102.66900000000001,0.008708129140635188
102.67,0.014742027196226474
102.671,0.01806728285886852
102.67200000000001,0.017873467797284503
102.673,0.014317799095738474
102.674,0.008420284098348696
102.67500000000001,0.0017098592226253639
102.676,0.004251278983077726
102.677,0.008308183822715795
102.67800000000001,0.009984177608623667
102.679,0.009512899271544804
102.68,0.007645416209190827
102.68100000000001,0.00531993406741444
102.682,0.0033209534919614024
102.683,0.0020481052814363097
102.68400000000001,0.001466596244775295
102.685,0.0012396501595663067
102.686,0.0009745936033161858
102.68700000000001,0.00047294747792612596
102.688,0.00012427838835232086
102.68900000000001,0.00036231869683442494
102.69000000000001,0.0003332392278447757
102.691,0.002366612583375919
102.69200000000001,0.005703715112002894
102.69300000000001,0.009744942465780603
102.694,0.013413557066944394
102.69500000000001,0.015457465797392293
102.69600000000001,0.014879082161122631
102.697,0.011348835934122106
102.69800000000001,0.00544628576145653
102.69900000000001,0.0013831134085960778
102.7,0.007178787555302352
102.70100000000001,0.010040829118298575
102.70200000000001,0.008761236761883258
102.703,0.0033045996417851524
102.70400000000001,0.005037007165971263
102.70500000000001,0.01389742448449221
102.706,0.020452814946679224
102.70700000000001,0.02223354819516152
102.70800000000001,0.01788878142759364
102.709,0.0076607666968480734
102.71000000000001,0.006594721752455429
102.71100000000001,0.021868544070656804
102.712,0.0348136539687119
102.71300000000001,0.042673109844984736
102.71400000000001,0.04403525053586285
102.715,0.03917981388121893
102.71600000000001,0.02990659529352367
102.71700000000001,0.01890464002671018
102.718,0.00887045376182536
102.71900000000001,0.0016673786745381358
102.72000000000001,0.0021947710230760266
102.721,0.00358839292025108
102.72200000000001,0.004301510754767359
102.72300000000001,0.006244237023808417
102.724,0.010613454444145434
102.72500000000001,0.01732080838765675
102.72600000000001,0.024902504762094112
102.727,0.030963367941570046
102.72800000000001,0.03301768138175816
102.72900000000001,0.029441175325698
102.73,0.020195430153145143
102.73100000000001,0.00704989898042188
102.73200000000001,0.006810310632010561
102.733,0.017693897546509525
102.73400000000001,0.02254912398103788
102.73500000000001,0.01997045702856609
102.736,0.01072143517557855
102.73700000000001,0.002421283460651625
102.73800000000001,0.015476727512203015
102.739,0.024476268322620176
102.74000000000001,0.02670068157542225
102.74100000000001,0.021534590560070184
102.742,0.010654580973068538
102.74300000000001,0.0025163517690462234
102.74400000000001,0.013913533954360133
102.745,0.02013412983163311
102.74600000000001,0.019512459531811133
102.747,0.012616286571354699
102.748,0.0020071019256860134
102.74900000000001,0.008646350093151981
102.75,0.01579699482509211
102.751,0.017175631906819956
102.75200000000001,0.012489981642595824
102.753,0.0034431561025240376
102.754,0.00691666284507925
102.75500000000001,0.015275691465212947
102.756,0.01918155265379125
102.757,0.01782845563755675
102.75800000000001,0.012238836134411724
102.759,0.004796712847618588
102.76,0.0016828205498879921
102.76100000000001,0.005003050135852005
102.762,0.004373357441463587
102.763,0.0006549948736166472
102.76400000000001,0.004015511260420218
102.765,0.007078886655773389
102.766,0.00656272386101346
102.76700000000001,0.0018732645121390277
102.768,0.005925370812244218
102.769,0.014451804467255034
102.77000000000001,0.02084825089629617
102.771,0.022817644180711492
102.772,0.019478365744301576
102.77300000000001,0.011720476057279697
102.774,0.0019255246329540354
102.775,0.006857834069214672
102.77600000000001,0.011990897661109367
102.777,0.012187086169376051
102.778,0.007974717151577757
102.77900000000001,0.0015041287099488477
102.78,0.00424268894212482
102.781,0.006564612721313713
102.78200000000001,0.004078908877457603
102.783,0.002694913868871955
102.784,0.011429441798795506
102.78500000000001,0.018749476925570514
102.786,0.02140861764912766
102.787,0.017479673300207048
102.78800000000001,0.007141507940356515
102.789,0.007224596978783738
102.79,0.02168417588201259
102.79100000000001,0.03194586302040061
102.792,0.034717888474753156
102.793,0.028779715978752292
102.79400000000001,0.01541540088666974
102.795,0.0019348654949103226
102.796,0.01869218687825965
102.79700000000001,0.030496416994002323
102.798,0.03447059080019257
102.799,0.029999664178239994
102.80000000000001,0.01879863228344473
102.801,0.004280545066079208
102.802,0.009542528727887335
102.80300000000001,0.019256330305038576
102.804,0.022961243173243846
102.805,0.02064685418831337
102.80600000000001,0.01395603413300946
102.807,0.005473123277495881
102.808,0.002186556990889157
102.80900000000001,0.007170309875437027
102.81,0.008820573114581854
102.811,0.0076500868945130855
102.81200000000001,0.0049304914581367485
102.813,0.002091016224161631
102.81400000000001,0.0001675502748966216
102.81500000000001,0.0005047569034364418
102.816,0.000275037487576599
102.81700000000001,0.00011273502679931903
102.81800000000001,6.7707196711559e-05
102.819,0.0011711845106829964
102.82000000000001,0.0030262833330156297
102.82100000000001,0.00502611628591173
102.822,0.006406546920897892
102.82300000000001,0.00658052892483917
102.82400000000001,0.0053829151856747024
102.825,0.0031271705652214446
102.82600000000001,0.00046122170474119584
102.82700000000001,0.0019034137884285276
102.828,0.0034638232330342043
102.82900000000001,0.004079052572509154
102.83000000000001,0.003942705610059276
102.831,0.0033981207026339555
102.83200000000001,0.0026940588975353217
102.83300000000001,0.0018093846500762093
102.834,0.0004467355945757341
102.83500000000001,0.0017820828413620043
102.83600000000001,0.005050322683038177
102.837,0.009031385090108486
102.83800000000001,0.012788587306476498
102.83900000000001,0.014937684449256732
102.84,0.014073400118419935
102.84100000000001,0.00933339216255803
102.84200000000001,0.0008924112374409839
102.843,0.00982682469186728
102.84400000000001,0.020360685653222608
102.84500000000001,0.02782256647551478
102.846,0.029768838314538273
102.84700000000001,0.025038286183420872
102.84800000000001,0.014269128918905909
102.849,0.0001177208596232198
102.85000000000001,0.01451267085999711
102.85100000000001,0.025136018800728334
102.852,0.029172344302478604
102.85300000000001,0.025654147746994083
102.85400000000001,0.01579416122138727
102.855,0.0026382449082131797
102.85600000000001,0.009866135520965054
102.85700000000001,0.018093019323910827
102.858,0.019856624129103172
102.85900000000001,0.015059098259756959
102.86000000000001,0.005655623731358126
102.861,0.005046369575052538
102.86200000000001,0.01351298847777026
102.86300000000001,0.017151563747492826
102.864,0.01512653210757829
102.86500000000001,0.008554752010138769
102.86600000000001,2.848622129653343e-05
102.867,0.007352589075640563
102.86800000000001,0.011091358525552967
102.86900000000001,0.010152584634924437
102.87,0.005273854320074539
102.87100000000001,0.0013705203380865512
102.872,0.007019420111622221
102.873,0.00937328772216665
102.87400000000001,0.007457756058829775
102.875,0.0019893482552602046
102.876,0.004887906434995851
102.87700000000001,0.010397783011624528
102.878,0.01216938979481178
102.879,0.009139368061087479
102.88000000000001,0.001989299512709145
102.881,0.007044676001928651
102.882,0.014928033869158424
102.88300000000001,0.018884881832268025
102.884,0.017382391011094102
102.885,0.01069362797766942
102.88600000000001,0.0008380045730820696
102.887,0.009082481789740743
102.888,0.015921248180075988
102.88900000000001,0.017539553832966338
102.89,0.013510803111198804
102.891,0.005238305703133201
102.89200000000001,0.004545951651910464
102.893,0.012719499987108437
102.894,0.016814870415290093
102.89500000000001,0.015812438885646218
102.896,0.010416281332601408
102.897,0.002734069870474558
102.89800000000001,0.004509620296609784
102.899,0.008939375917779007
102.9,0.009333765062307642
102.90100000000001,0.005995209138414984
102.902,0.000571572266416788
102.903,0.0045890208595110275
102.90400000000001,0.007308633610963102
102.905,0.006363468837160159
102.906,0.0019105226286497735
102.90700000000001,0.004580068666482832
102.908,0.010847740181390399
102.909,0.014624610585798064
102.91000000000001,0.01440309771608899
102.911,0.009929924764044803
102.912,0.002274024721569219
102.91300000000001,0.006532240948215374
102.914,0.014136532898345959
102.915,0.018568378315098333
102.91600000000001,0.018772472733081552
102.917,0.014823226415212599
102.918,0.007790980216678669
102.91900000000001,0.0006518631090628967
102.92,0.008723422826441707
102.921,0.014955626352527028
102.92200000000001,0.01843492849863648
102.923,0.018835233254601524
102.924,0.016300572807721778
102.92500000000001,0.011279601817505501
102.926,0.004405680782276423
102.927,0.0035357460141482284
102.92800000000001,0.011578904173909634
102.929,0.018565169725250803
102.93,0.02322961224369604
102.93100000000001,0.024427552200001944
102.932,0.021467583158089578
102.933,0.01444396204356295
102.93400000000001,0.004424155884456164
102.935,0.006630693465271804
102.936,0.016254348521050066
102.93700000000001,0.02210219966435059
102.938,0.022641813430781445
102.93900000000001,0.01768158711572213
102.94000000000001,0.00853857895010361
102.941,0.002250245906405902
102.94200000000001,0.011620700613451052
102.94300000000001,0.016882320024847682
102.944,0.016546563997228498
102.94500000000001,0.010808221457445175
102.94600000000001,0.0015082531419387086
102.947,0.008427125987969061
102.94800000000001,0.01590102178530774
102.94900000000001,0.018620852286699564
102.95,0.015814136080064437
102.95100000000001,0.008447666258480972
102.95200000000001,0.0011226125317510874
102.953,0.009952059654740828
102.95400000000001,0.015486635304425725
102.95500000000001,0.016389429038857973
102.956,0.012936635358406374
102.95700000000001,0.006854777155722473
102.95800000000001,0.0006644871733525124
102.959,0.003233841892682648
102.96000000000001,0.003410056965960004
102.96100000000001,0.0001066639534487933
102.962,0.005866668087998343
102.96300000000001,0.011546466979896959
102.96400000000001,0.014804166682048623
102.965,0.014137104478349847
102.96600000000001,0.00943622649822717
102.96700000000001,0.0020405614262666936
102.968,0.005727265748107715
102.96900000000001,0.011380073150572196
102.97000000000001,0.013150494443192044
102.971,0.010628728241573553
102.97200000000001,0.004928305558830155
102.97300000000001,0.0016806490614943634
102.974,0.00654621925635437
102.97500000000001,0.00755244710551235
102.97600000000001,0.0038667011862995224
102.977,0.0037370692357744204
102.97800000000001,0.013087687561881438
102.97900000000001,0.021287565994997645
102.98,0.025621669830090815
102.98100000000001,0.024407435462460478
102.98200000000001,0.01751540059659021
102.983,0.006405494840979015
102.98400000000001,0.006314764414783124
102.98500000000001,0.01765249542452278
102.986,0.02506277188800575
102.98700000000001,0.02709877468398859
102.98800000000001,0.023702092515079085
102.989,0.01608451420549369
102.99000000000001,0.006284034197584278
102.99100000000001,0.0034320798362529833
102.992,0.011121944075847054
102.99300000000001,0.015531878986749483
102.99400000000001,0.016207364703928098
102.995,0.013387704364430868
102.99600000000001,0.007785288084680186
102.997,0.0003641937967226458
102.998,0.0078036686559383546
102.99900000000001,0.015592023063880078
103.0,0.021832459020878683
103.001,0.025364092043881386
103.00200000000001,0.025182316884779805
103.003,0.02069174675110152
103.004,0.01199736030475501
103.00500000000001,0.00011533284348468229
103.006,0.013021664120227662
103.007,0.02484083879953842
103.00800000000001,0.032671292242759414
103.009,0.03443195290551458
103.01,0.029269914316664092
103.01100000000001,0.01793810699144378
103.012,0.0027585225228259408
103.013,0.012865855957466713
103.01400000000001,0.0252863564404488
103.015,0.031568765291035715
103.016,0.030301617784031166
103.01700000000001,0.02200725144604607
103.018,0.009020819919050276
103.019,0.005140717362728174
103.02000000000001,0.01674367601380815
103.021,0.022858837512909052
103.022,0.02214343410790724
103.02300000000001,0.015161479043780306
103.024,0.004159777019373775
103.025,0.00762067699566106
103.02600000000001,0.01688392136070243
103.027,0.021189280693007736
103.028,0.019573889957273338
103.02900000000001,0.012726044024054113
103.03,0.002688309504768026
103.031,0.007792380497117983
103.03200000000001,0.016056242152777834
103.033,0.020227978338224175
103.034,0.019631862919511318
103.03500000000001,0.01483604837737789
103.036,0.007354206924550741
103.037,0.000870788347291978
103.03800000000001,0.008027412722811086
103.039,0.01287516619434199
103.04,0.014955601737822852
103.04100000000001,0.014549706912755743
103.042,0.012436187447489328
103.043,0.009557157687553395
103.04400000000001,0.006709376827848346
103.045,0.004352120513664356
103.046,0.002570811880128787
103.04700000000001,0.0011786276870816282
103.048,0.00010459782343712914
103.049,0.0014737671815952124
103.05000000000001,0.0029267275206056836
103.051,0.004253965134262328
103.052,0.005124787281116005
103.05300000000001,0.005231232672126313
103.054,0.004433239974270518
103.055,0.002850840521372638
103.05600000000001,0.0008687031105632281
103.057,0.000952197488013227
103.058,0.0020311415153157104
103.05900000000001,0.0019460942624818563
103.06,0.0005797180112896304
103.061,0.0018137916630183116
103.06200000000001,0.004647033735978691
103.063,0.007140160534773134
103.06400000000001,0.008531790740762654
103.06500000000001,0.008304994114675482
103.066,0.006363679483605244
103.06700000000001,0.003102243618343244
103.06800000000001,0.0006640276805791755
103.069,0.003903194021874853
103.07000000000001,0.0056602163497934
103.07100000000001,0.005361739962814831
103.072,0.0030402906642818064
103.07300000000001,0.0006013998534757229
103.07400000000001,0.004326315637153924
103.075,0.006682735802212872
103.07600000000001,0.006431385279817499
103.07700000000001,0.0029607985331343897
103.078,0.003439330372103148
103.07900000000001,0.011547768338478261
103.08000000000001,0.019460424274765565
103.081,0.02507063387282059
103.08200000000001,0.0266564746728494
103.08300000000001,0.023405597751559593
103.084,0.015713028055552296
103.08500000000001,0.005145145643044774
103.08600000000001,0.005940732055806403
103.087,0.015025362043045902
103.08800000000001,0.020126625514675856
103.08900000000001,0.020359329860498983
103.09,0.01618080505583404
103.09100000000001,0.00923903357110002
103.09200000000001,0.0018620619147732811
103.093,0.0036586278001998736
103.09400000000001,0.005769657175977472
103.09500000000001,0.004121924552775811
103.096,0.0003469946644876588
103.09700000000001,0.005741484796189374
103.09800000000001,0.009843061592890104
103.099,0.010848218253570963
103.10000000000001,0.007971204675844154
103.10100000000001,0.0017173945623401331
103.102,0.00626021400268863
103.10300000000001,0.013673472528354262
103.10400000000001,0.018313520331842695
103.105,0.0187365925079142
103.10600000000001,0.014703189012188981
103.10700000000001,0.007236349290113027
103.108,0.0017091467844453096
103.10900000000001,0.009849148356349133
103.11000000000001,0.015243181704693111
103.111,0.016822971066965144
103.11200000000001,0.014618703124823206
103.11300000000001,0.009632731464219732
103.114,0.003429441821967251
103.11500000000001,0.0024005430171337846
103.11600000000001,0.006713290206438954
103.117,0.009069691217935988
103.11800000000001,0.009714395624458614
103.11900000000001,0.009316000764504489
103.12,0.00859258836859386
103.12100000000001,0.00797957788138572
103.122,0.007469026271085574
103.123,0.006673733546922857
103.12400000000001,0.005076141662213108
103.125,0.0023473113560146188
103.126,0.0014062273554797582
103.12700000000001,0.005580067187593923
103.128,0.009230948631521843
103.129,0.011402902835259571
103.13000000000001,0.011494711313502416
103.131,0.009519751555567802
103.132,0.006144832463601852
103.13300000000001,0.0024767052036049337
103.134,0.0003367828647814307
103.135,0.0015468884270810762
103.13600000000001,0.0011162843359476835
103.137,0.0002272568440533584
103.138,0.001235982585045984
103.13900000000001,0.0006152834538635148
103.14,0.0024368657260852708
103.141,0.00782196274072065
103.14200000000001,0.014427809446765699
103.143,0.02037742142574606
103.144,0.0235817390014465
103.14500000000001,0.022426306004023858
103.146,0.01636470798395504
103.147,0.006210676105878651
103.14800000000001,0.005987513989186885
103.149,0.017471697594349526
103.15,0.025545589670829556
103.15100000000001,0.02835556471199914
103.152,0.025433407685595506
103.153,0.01782654665360045
103.15400000000001,0.007772057771492907
103.155,0.0019832890335340645
103.156,0.009001773877777683
103.15700000000001,0.011854475185272101
103.158,0.010485570430072278
103.159,0.006135705437344016
103.16000000000001,0.0008623246319320643
103.161,0.0031767848414454955
103.162,0.004438809759054009
103.16300000000001,0.0024793634682950794
103.164,0.0019448152820322243
103.165,0.00717496050092147
103.16600000000001,0.011241264560356356
103.167,0.012544422427270956
103.168,0.010402895982457293
103.16900000000001,0.005290774675007502
103.17,0.0013045643845281266
103.171,0.007352362704465555
103.17200000000001,0.010920929416035412
103.173,0.010787855943441622
103.174,0.006829413923617657
103.17500000000001,7.446003064697709e-05
103.176,0.007586108594773666
103.177,0.01394000951809354
103.17800000000001,0.01708036539291611
103.179,0.015937361790641567
103.18,0.010569902462564418
103.18100000000001,0.0021475861874000906
103.182,0.007357716421235024
103.183,0.015675232754757674
103.18400000000001,0.02079465636865528
103.185,0.02143991642835859
103.186,0.017349573307392722
103.18700000000001,0.009312591566516787
103.188,0.0010301757118921886
103.18900000000001,0.011557636733326406
103.19000000000001,0.020121987897512947
103.191,0.024986197277516504
103.19200000000001,0.025160948069304672
103.19300000000001,0.020583318479446232
103.194,0.012112324817710265
103.19500000000001,0.0013494852927595695
103.19600000000001,0.009678236039552911
103.197,0.0189130904148078
103.19800000000001,0.024665041047827494
103.19900000000001,0.025937896413090876
103.2,0.02261777355422099
103.20100000000001,0.01548309524986607
103.20200000000001,0.006030691715121341
103.203,0.003847584903802274
103.20400000000001,0.012268175922492044
103.20500000000001,0.017748677176042622
103.206,0.01950037126904997
103.20700000000001,0.01755403486789186
103.20800000000001,0.012694042752565107
103.209,0.006224362551744897
103.21000000000001,0.0003677822943110887
103.21100000000001,0.005761122849042443
103.212,0.009074524764613094
103.21300000000001,0.010004080508871388
103.21400000000001,0.008802802256974156
103.215,0.006127158301918618
103.21600000000001,0.002808590045392867
103.21700000000001,0.000378069351053412
103.218,0.0028861866592401514
103.21900000000001,0.00447239796358515
103.22000000000001,0.005172701438763846
103.221,0.005207031805542141
103.22200000000001,0.004856437192920742
103.22300000000001,0.004356798712596997
103.224,0.003838611921502353
103.22500000000001,0.003320888505063385
103.22600000000001,0.0027473966687482612
103.227,0.002041980446635528
103.22800000000001,0.0011591002971043304
103.22900000000001,0.00011391046780714022
103.23,0.0010121061791286974
103.23100000000001,0.002084416787142611
103.23200000000001,0.0029384262363365567
103.233,0.003405260491900966
103.23400000000001,0.0033386425554093367
103.23500000000001,0.0026449022056699656
103.236,0.0013171712925982505
103.23700000000001,0.0005311591561432574
103.23800000000001,0.002646447429982171
103.239,0.004645441326501911
103.24000000000001,0.0060701596869187505
103.24100000000001,0.006487669051008169
103.242,0.005616318210588238
103.24300000000001,0.0034420816147040837
103.24400000000001,0.00028062894609796
103.245,0.003251104221188665
103.24600000000001,0.0063651271769815665
103.247,0.008310427627483252
103.248,0.00860141809012463
103.24900000000001,0.0071913328271369075
103.25,0.004522263911173993
103.251,0.001417339301531188
103.25200000000001,0.0011676690025046003
103.253,0.0024631257776146238
103.254,0.0021701193654381874
103.25500000000001,0.0006055411055077265
103.256,0.0013602370965735625
103.257,0.0025745530186497296
103.25800000000001,0.002009387213792558
103.259,0.0008257630743073295
103.26,0.005611377276113794
103.26100000000001,0.011198459254187483
103.262,0.01587815751360853
103.263,0.017879815224155608
103.26400000000001,0.0159522716445317
103.265,0.009841296315827579
103.266,0.0004946137254843479
103.26700000000001,0.010096762184969025
103.268,0.019398493009689845
103.269,0.025037968353438897
103.27000000000001,0.025502765737115515
103.271,0.020611300230961974
103.272,0.01159743748580857
103.27300000000001,0.0007687129422652107
103.274,0.009166403593199663
103.275,0.01589749062546614
103.27600000000001,0.018187101866926927
103.277,0.01620641437130919
103.278,0.011422631060762259
103.27900000000001,0.006073082384661954
103.28,0.0023957058647114185
103.281,0.0018664603512321455
103.28200000000001,0.0046937739510251215
103.283,0.009737533977794997
103.284,0.014881901191542517
103.28500000000001,0.01774257395133344
103.286,0.016478986955797904
103.287,0.01044666748295398
103.28800000000001,0.0004762081869843921
103.289,0.011313949532825345
103.29,0.022113380051470264
103.29100000000001,0.02923607473294049
103.292,0.030900883638806644
103.293,0.026734712538633548
103.29400000000001,0.017849579840418784
103.295,0.006482530227281845
103.296,0.004675158515652881
103.29700000000001,0.013240724609258495
103.298,0.01775726580206176
103.299,0.017986810426049275
103.30000000000001,0.014813662275018472
103.301,0.009821315776922511
103.302,0.0047071576675892
103.30300000000001,0.0007401040725510862
103.304,0.0015634639108894218
103.305,0.0024570915968128763
103.30600000000001,0.0026985150288034968
103.307,0.003121839575273287
103.308,0.004218964298572279
103.30900000000001,0.005889393394147367
103.31,0.007449690529257381
103.311,0.007895947328232617
103.31200000000001,0.006319860708332241
103.313,0.0023234931066681915
103.31400000000001,0.0037221910922548953
103.31500000000001,0.010675707586693294
103.316,0.016892479525714633
103.31700000000001,0.020681450489433383
103.31800000000001,0.020806782738868414
103.319,0.01687492075581331
103.32000000000001,0.009484270331606393
103.32100000000001,9.071149255815971e-05
103.322,0.009368775850449772
103.32300000000001,0.016979060709705618
103.32400000000001,0.021326690016637936
103.325,0.021820260201791213
103.32600000000001,0.018769434812023967
103.32700000000001,0.013216923743332257
103.328,0.006590751165693598
103.32900000000001,0.0002916737952837739
103.33000000000001,0.004660037181313216
103.331,0.007822933485195135
103.33200000000001,0.009337195342807613
103.33300000000001,0.009753398356961738
103.334,0.00975875610610009
103.33500000000001,0.00989636428979235
103.33600000000001,0.010366277776350206
103.337,0.010964781648052462
103.33800000000001,0.011171970036496075
103.33900000000001,0.010352418675785714
103.34,0.008002130486624676
103.34100000000001,0.003964567196947692
103.34200000000001,0.0014496750733274302
103.343,0.00747620484522203
103.34400000000001,0.01304286229168164
103.34500000000001,0.017012777661147324
103.346,0.01846355377239542
103.34700000000001,0.016931855778831682
103.34800000000001,0.012559953655531138
103.349,0.006103115192452426
103.35000000000001,0.0012107723150126275
103.35100000000001,0.007942375494262634
103.352,0.012765093874606734
103.35300000000001,0.01477583386297098
103.35400000000001,0.01371488822158925
103.355,0.010035674323927813
103.35600000000001,0.004799825124598075
103.35700000000001,0.0005831156298670308
103.358,0.004710230151566661
103.35900000000001,0.006544438195832014
103.36000000000001,0.005683112777113189
103.361,0.002461329555022582
103.36200000000001,0.002142198926755187
103.36300000000001,0.00677427533924797
103.364,0.010079023289026559
103.36500000000001,0.011068928548662827
103.36600000000001,0.009390219872108373
103.367,0.005407388840142667
103.36800000000001,8.446302112133063e-05
103.36900000000001,0.005299127674655042
103.37,0.009511231107022716
103.37100000000001,0.011699071379984343
103.372,0.011593381290641296
103.373,0.009529276615206835
103.37400000000001,0.006287408419411721
103.375,0.0028153067051965666
103.376,7.563656090888824e-05
103.37700000000001,0.0019387886128022847
103.378,0.0027771505517085763
103.379,0.0029666760472636293
103.38000000000001,0.0030559161345080407
103.381,0.0035205685423684084
103.382,0.004563559051943241
103.38300000000001,0.00603123799736023
103.384,0.007471993634516434
103.385,0.008311313730277175
103.38600000000001,0.008075833490154304
103.387,0.0065827536429955286
103.388,0.004025404134864994
103.38900000000001,0.000924789715915325
103.39,0.0020339809336474514
103.391,0.00422040756571017
103.39200000000001,0.005254123424938053
103.393,0.005109407207608885
103.394,0.004095662959708761
103.39500000000001,0.00272657955627502
103.396,0.0015302269330065214
103.397,0.0008712797328823266
103.39800000000001,0.0008484594883979233
103.399,0.0012989986587158835
103.4,0.0018999413999156633
103.40100000000001,0.00231967607088976
103.402,0.002356055368129613
103.403,0.0020059142268134852
103.40400000000001,0.0014408972715674597
103.405,0.0009040259873726446
103.406,0.0005745496860407006
103.40700000000001,0.00046209363823276667
103.408,0.00037945920522076943
103.409,1.109908691481805e-05
103.41000000000001,0.0009459932798771702
103.411,0.0026243957765651527
103.412,0.0048776380832767805
103.41300000000001,0.00727161939527757
103.414,0.009190200978170813
103.415,0.010025006484886117
103.41600000000001,0.009384855913147189
103.417,0.007248917938066967
103.418,0.004004750147685329
103.41900000000001,0.0003522681227323119
103.42,0.0028971694187090104
103.421,0.0050589547357093615
103.42200000000001,0.005769076783411391
103.423,0.005068008452253857
103.424,0.0033493821713997517
103.42500000000001,0.0011978341921610864
103.426,0.0008194959429166775
103.427,0.0023281228301146244
103.42800000000001,0.0032240078328175012
103.429,0.003630569034299159
103.43,0.0037612748747956476
103.43100000000001,0.003753488080598398
103.432,0.003552056679653485
103.433,0.002901566582218809
103.43400000000001,0.0014609275244852197
103.435,0.0009996923528195988
103.436,0.0044002554701837665
103.43700000000001,0.00824164348018477
103.438,0.011650754639287393
103.43900000000001,0.013589810530022343
103.44000000000001,0.013175394632154063
103.441,0.010003327035338287
103.44200000000001,0.004361153856126801
103.44300000000001,0.002761149989504242
103.444,0.009887408161103959
103.44500000000001,0.015445243245607856
103.44600000000001,0.018212145034253946
103.447,0.017673317576984288
103.44800000000001,0.014169944131114432
103.44900000000001,0.008783059864850144
103.45,0.0029865089672637315
103.45100000000001,0.0018180531063193403
103.45200000000001,0.004728911487380965
103.453,0.005590610823498816
103.45400000000001,0.004976360158458463
103.45500000000001,0.003915712933504621
103.456,0.0034664292244505983
103.45700000000001,0.004285273222635107
103.45800000000001,0.006353998126221835
103.459,0.008962473244161972
103.46000000000001,0.010959284528383203
103.46100000000001,0.01118333546728505
103.462,0.008922541391776492
103.46300000000001,0.004232275071804593
103.46400000000001,0.002007482305319659
103.465,0.008326808132924048
103.46600000000001,0.013119614376774568
103.46700000000001,0.015164385470448306
103.468,0.014032632820371633
103.46900000000001,0.010241393695500473
103.47000000000001,0.005092594496217905
103.471,0.00024963579084732925
103.47200000000001,0.0028074125089145906
103.47300000000001,0.0032640747557709016
103.474,0.0012282756791648613
103.47500000000001,0.0023238835527496443
103.47600000000001,0.0058922911013228885
103.477,0.007967122294878571
103.47800000000001,0.007537003946356875
103.47900000000001,0.004419870973305431
103.48,0.0006905210373656938
103.48100000000001,0.006469529252028502
103.48200000000001,0.011404960791732636
103.483,0.014280587164850434
103.48400000000001,0.014533625980628163
103.48500000000001,0.012370726836030639
103.486,0.008617004637191573
103.48700000000001,0.004368722964957565
103.48800000000001,0.0005875491046272043
103.489,0.002210886694438431
103.49000000000001,0.0040633300881841245
103.49100000000001,0.0054313987890149545
103.492,0.006902477392589023
103.49300000000001,0.008846976363723865
103.49400000000001,0.011175846510851488
103.495,0.013302521000932802
103.49600000000001,0.014333091646558077
103.497,0.013417820864746254
103.498,0.010130447872968937
103.49900000000001,0.004724888189165484
103.5,0.0018407633486496415
103.501,0.008139435014231833
103.50200000000001,0.012699454416134463
103.503,0.014474296904146424
103.504,0.013190934935140938
103.50500000000001,0.009447711530531982
103.506,0.004518770822256069
103.507,7.366297238888657e-05
103.50800000000001,0.0030730071226740025
103.509,0.003907702469167953
103.51,0.0028659154119149155
103.51100000000001,0.000959959981105893
103.512,0.0004750646145937321
103.513,0.00030753252128339976
103.51400000000001,0.0019283060880248364
103.515,0.005803831940479041
103.516,0.010091731995509907
103.51700000000001,0.013162542855703223
103.518,0.013551176317569876
103.519,0.01049908504861457
103.52000000000001,0.004281414934074547
103.521,0.0038010986797714663
103.522,0.011772506163340362
103.52300000000001,0.01756437733549832
103.524,0.01964098319979544
103.525,0.01746181010063148
103.52600000000001,0.011631158018871516
103.527,0.003690353418390111
103.528,0.00437204180021229
103.52900000000001,0.010724247580990545
103.53,0.014208395630798341
103.531,0.014606012115237588
103.53200000000001,0.012579205525279198
103.533,0.009329424130262788
103.534,0.00611177023089887
103.53500000000001,0.003786939057102349
103.536,0.0025703040918570873
103.537,0.002058026947384745
103.53800000000001,0.0015033447727454082
103.539,0.00022190750728856725
103.54,0.0020421352179242937
103.54100000000001,0.004940452910411476
103.542,0.0076114678128515285
103.543,0.009009275918335767
103.54400000000001,0.008346389638428093
103.545,0.00547607071854506
103.546,0.0010552735680058561
103.54700000000001,0.003594213665892175
103.548,0.00689774268001597
103.549,0.007578773100640305
103.55000000000001,0.005154180901758909
103.551,0.00018758001355184377
103.552,0.00580884758173277
103.55300000000001,0.010813374211045512
103.554,0.01294206067094381
103.555,0.011091688536265163
103.55600000000001,0.005357077685684159
103.557,0.0029298262707831237
103.558,0.011567634658765504
103.55900000000001,0.018150633431888205
103.56,0.020817871079433753
103.561,0.01883925089490087
103.56200000000001,0.012841910550568483
103.563,0.0045985038585313566
103.56400000000001,0.003554106266117984
103.56500000000001,0.009471832313275733
103.566,0.011881601288710644
103.56700000000001,0.010752420235797581
103.56800000000001,0.00723538848870564
103.569,0.0031967151372337683
103.57000000000001,0.0005085580666558748
103.57100000000001,0.00034738495134412127
103.572,0.0027485933586690746
103.57300000000001,0.00657864281460824
103.57400000000001,0.009941163344447146
103.575,0.010880809450434348
103.57600000000001,0.008140822839229558
103.57700000000001,0.001705401468277572
103.578,0.00707393937070653
103.57900000000001,0.015829622036053564
103.58000000000001,0.021904777868472013
103.581,0.02322097938132008
103.58200000000001,0.018997113213751988
103.58300000000001,0.010071806684398341
103.584,0.0012910319135114666
103.58500000000001,0.012063551909008914
103.58600000000001,0.01937530535133086
103.587,0.021397510000245142
103.58800000000001,0.017900846666205623
103.58900000000001,0.010301731388913556
103.59,0.001179182456700393
103.59100000000001,0.006580742028955962
103.59200000000001,0.010731696268274351
103.593,0.010391943021056036
103.59400000000001,0.00630635038373423
103.59500000000001,0.0005570992886902302
103.596,0.004182129199911265
103.59700000000001,0.005600649001587267
103.59800000000001,0.0025940959196800273
103.599,0.004289820569698833
103.60000000000001,0.012960974629313659
103.60100000000001,0.020427759988207405
103.602,0.023769274755003303
103.60300000000001,0.021126545457660344
103.60400000000001,0.01238907299044617
103.605,0.0006536579292986791
103.60600000000001,0.014757694385481619
103.60700000000001,0.026139840620105895
103.608,0.031585689981946094
103.60900000000001,0.029411279248044993
103.61000000000001,0.01998353504113571
103.611,0.0056408504355437905
103.61200000000001,0.009960653420767754
103.61300000000001,0.022875646495590058
103.614,0.029963604719082573
103.61500000000001,0.029726167528051566
103.61600000000001,0.02265120058477012
103.617,0.010981550469878197
103.61800000000001,0.00199966374621831
103.61900000000001,0.012936357512858971
103.62,0.019325444939576022
103.62100000000001,0.02013612672468444
103.622,0.015964011720971966
103.623,0.008709629830503638
103.62400000000001,0.0009123763172269882
103.625,0.0050370543344384795
103.626,0.007564934865032261
103.62700000000001,0.00627917302210203
103.628,0.001953666839471813
103.629,0.0038231412088527
103.63000000000001,0.00919488555429461
103.631,0.012595052695039613
103.632,0.013149712514108364
103.63300000000001,0.010826287525520941
103.634,0.0063196881219417
103.635,0.0007490720186083913
103.63600000000001,0.004713286013235662
103.637,0.009156666043045826
103.638,0.012103658853151894
103.63900000000001,0.013513458974039308
103.64,0.01365156201005131
103.641,0.012899997147459341
103.64200000000001,0.011589416265009688
103.643,0.009911122730750236
103.644,0.0079258115148319
103.64500000000001,0.005643968516941432
103.646,0.003126415004986864
103.647,0.0005508879168044219
103.64800000000001,0.0017895455340306273
103.649,0.0035579060121587835
103.65,0.004485016114153973
103.65100000000001,0.004474500252072831
103.652,0.0036565084864141027
103.653,0.002365977389047041
103.65400000000001,0.001050646920594291
103.655,0.0001405541059917691
103.656,7.583768311490104e-05
103.65700000000001,0.0004721364185626859
103.658,0.001630614807514549
103.659,0.0030799431548057627
103.66000000000001,0.004432643749110607
103.661,0.00533420999457145
103.662,0.0055351185956268424
103.66300000000001,0.00491894981204857
103.664,0.0034917739933221334
103.665,0.0013529337991830448
103.66600000000001,0.0013293037590692879
103.667,0.004322958432478201
103.668,0.007321061213086899
103.66900000000001,0.009932657020580878
103.67,0.011701683560086258
103.671,0.012172226308647905
103.67200000000001,0.010999103166208219
103.673,0.008078150322733502
103.674,0.0036515755791544924
103.67500000000001,0.0016601298381811722
103.676,0.006932608500783077
103.677,0.011119293112872686
103.67800000000001,0.013303001213065975
103.679,0.012949492171631974
103.68,0.010084273317456491
103.68100000000001,0.005329330259466391
103.682,0.0002248800355086683
103.683,0.005286396149969117
103.68400000000001,0.008696219873802032
103.685,0.00973380170557912
103.686,0.00830225553192291
103.68700000000001,0.004936969397314633
103.688,0.0006352962240254222
103.68900000000001,0.0034394429402654124
103.69000000000001,0.006287759246361787
103.691,0.007336907800524264
103.69200000000001,0.006560150187585749
103.69300000000001,0.004424034483160148
103.694,0.0016917144631386043
103.69500000000001,0.0008445216337506422
103.69600000000001,0.0026094266461701436
103.697,0.003390608349840389
103.69800000000001,0.0033443524422579318
103.69900000000001,0.0028730299906385114
103.7,0.002430184268392491
103.70100000000001,0.0023316063989417615
103.70200000000001,0.002643385498194364
103.703,0.0031846867258398855
103.70400000000001,0.00363688180468847
103.70500000000001,0.0037091482966730184
103.706,0.003289306880143706
103.70700000000001,0.002515329540679931
103.70800000000001,0.0017349232681772872
103.709,0.0013656524914633524
103.71000000000001,0.0017090147929388303
103.71100000000001,0.0027929492916795736
103.712,0.00430995941369999
103.71300000000001,0.005684422246251232
103.71400000000001,0.006254678055659324
103.715,0.0055107006530731
103.71600000000001,0.003303327641106522
103.71700000000001,5.397207191137475e-05
103.718,0.0038357935273250223
103.71900000000001,0.0071012342574132
103.72000000000001,0.008977882433063827
103.721,0.008942159478753276
103.72200000000001,0.00700232343163758
103.72300000000001,0.003719958119229552
103.724,5.769443109983784e-05
103.72500000000001,0.0029022047623770988
103.72600000000001,0.00428113005457968
103.727,0.003667979570100505
103.72800000000001,0.00124141956052767
103.72900000000001,0.002285957151694252
103.73,0.0058813821451139964
103.73100000000001,0.008494477642780916
103.73200000000001,0.009354207609370554
103.733,0.008171453518363292
103.73400000000001,0.0051920150522843985
103.73500000000001,0.0010940666258850008
103.736,0.0032278110730901747
103.73700000000001,0.006918475090896947
103.73800000000001,0.009378669892236999
103.739,0.010382707028593946
103.74000000000001,0.010074879875152314
103.74100000000001,0.008862349066209496
103.742,0.0072522052024527614
103.74300000000001,0.005691230654448773
103.74400000000001,0.004457056858546901
103.745,0.0036247503049154535
103.74600000000001,0.003103738519779707
103.747,0.0027172198771688687
103.748,0.0022870736214924132
103.74900000000001,0.0016932215566687104
103.75,0.0008929933995380001
103.751,9.466449883902701e-05
103.75200000000001,0.0012214514403911265
103.753,0.0024364113834006167
103.754,0.003692388079027892
103.75500000000001,0.004931249867155614
103.756,0.00606012174321569
103.757,0.00693737193627343
103.75800000000001,0.007383868775850828
103.759,0.007223462274592303
103.76,0.006341929941963097
103.76100000000001,0.004742449396754691
103.762,0.0025733505632035765
103.763,0.00011211177077799969
103.76400000000001,0.0022945184196773737
103.765,0.004316995928944846
103.766,0.005727048515112726
103.76700000000001,0.006449418108291184
103.768,0.006562218128378882
103.769,0.006245713646606781
103.77000000000001,0.005699079952829296
103.771,0.005057558998604401
103.772,0.004343076673897594
103.77300000000001,0.0034690783463579623
103.774,0.0022993913924980614
103.775,0.0007391432353821296
103.77600000000001,0.0011784551110044987
103.777,0.0032465431878636393
103.778,0.005104045353262386
103.77900000000001,0.006320857625161769
103.78,0.006525002437168854
103.781,0.005530891621528908
103.78200000000001,0.003424627143919747
103.783,0.0005743848079884128
103.784,0.002442652397402422
103.78500000000001,0.004978642244133002
103.786,0.006479659647042777
103.787,0.006629288567143544
103.78800000000001,0.005430902815105103
103.789,0.0032073383713657876
103.79,0.0005209866798911731
103.79100000000001,0.001961166398416931
103.792,0.003620808601490621
103.793,0.0040227873418190365
103.79400000000001,0.0030035008264274977
103.795,0.0007008160813926891
103.796,0.0024726047798849663
103.79700000000001,0.005901370995427176
103.798,0.008870406797877619
103.799,0.010685476501786847
103.80000000000001,0.010799111438456497
103.801,0.008928674040677452
103.802,0.005148884905479234
103.80300000000001,6.394612772443136e-05
103.804,0.005859747563804505
103.805,0.011130610152854381
103.80600000000001,0.014712559301214609
103.807,0.0156449289250727
103.808,0.013432921327882118
103.80900000000001,0.00824271398496237
103.81,0.0009611832626405791
103.811,0.006922120242945386
103.81200000000001,0.013608429213694125
103.813,0.017403951013216862
103.81400000000001,0.017156162601306466
103.81500000000001,0.012593862383769677
103.816,0.004466843490408146
103.81700000000001,0.005571295330017089
103.81800000000001,0.015324242060895148
103.819,0.022573719114847162
103.82000000000001,0.02562474070618328
103.82100000000001,0.023726987498015144
103.822,0.01725451627727445
103.82300000000001,0.007592940085215731
103.82400000000001,0.0032330679901259743
103.825,0.013084140323559673
103.82600000000001,0.020231906627414413
103.82700000000001,0.02373855941647609
103.828,0.02359085467092677
103.82900000000001,0.020566706105598485
103.83000000000001,0.01589481273681403
103.831,0.01082840112167137
103.83200000000001,0.0062740871692632694
103.83300000000001,0.002590523068711267
103.834,0.0003913525677889088
103.83500000000001,0.0031523107300415083
103.83600000000001,0.006165148102648113
103.837,0.009596188781422972
103.83800000000001,0.013141811625725289
103.83900000000001,0.016063563932689054
103.84,0.0174136553796828
103.84100000000001,0.016374157312232712
103.84200000000001,0.012591396099170806
103.843,0.006385858247502547
103.84400000000001,0.0012424334934276037
103.84500000000001,0.008826222334769627
103.846,0.014802496829337201
103.84700000000001,0.017931981413731826
103.84800000000001,0.01763887362005752
103.849,0.014167452173868828
103.85000000000001,0.00850900994758376
103.85100000000001,0.0021230093222341846
103.852,0.0034622306966160467
103.85300000000001,0.007050617599786029
103.85400000000001,0.008066439859495128
103.855,0.006653444523735258
103.85600000000001,0.0035682548839791202
103.85700000000001,8.724563244016996e-05
103.858,0.003205834462088365
103.85900000000001,0.004983731582949262
103.86000000000001,0.0051118843369411335
103.861,0.003804804108288043
103.86200000000001,0.0016734322041312892
103.86300000000001,0.0005061951330238715
103.864,0.002050486925668378
103.86500000000001,0.002572979989714613
103.86600000000001,0.0020792849041495727
103.867,0.000932325373854775
103.86800000000001,0.0002924143313391963
103.86900000000001,0.0010110126997126487
103.87,0.0008297958852415536
103.87100000000001,0.0003211391764091247
103.872,0.0021578049520048115
103.873,0.004122886092614626
103.87400000000001,0.005552567695531945
103.875,0.005881045908905974
103.876,0.004823423333787644
103.87700000000001,0.0024828862912403328
103.878,0.0006521706730909727
103.879,0.003825818894160094
103.88000000000001,0.006219616710526598
103.881,0.007190953752619462
103.882,0.006477220901738534
103.88300000000001,0.004302754116782179
103.884,0.0013484243298754863
103.885,0.0014193701363514005
103.88600000000001,0.0030218509248639007
103.887,0.002770007952580571
103.888,0.0005063155959112027
103.88900000000001,0.003294059532586842
103.89,0.007607430610350312
103.891,0.011122969084641485
103.89200000000001,0.012617016893315305
103.893,0.011334522905236602
103.894,0.007259779911301929
103.89500000000001,0.0011831096694139688
103.896,0.005473228708892904
103.897,0.011033284778313994
103.89800000000001,0.014045646047946898
103.899,0.01371841502827336
103.9,0.010172290678214567
103.90100000000001,0.004423176750860221
103.902,0.0019120266141122119
103.903,0.007103517312004422
103.90400000000001,0.009840616924566881
103.905,0.009636756929261251
103.906,0.006971167791332701
103.90700000000001,0.0031128872065766485
103.908,0.00032333355196947433
103.909,0.0019475710881651997
103.91000000000001,0.0011016241296700382
103.911,0.0018741241322276516
103.912,0.005716141363898251
103.91300000000001,0.008645620928547423
103.914,0.00898517119800821
103.915,0.005783783843513694
103.91600000000001,0.000762941675247284
103.917,0.009251615430518376
103.918,0.01741035203645868
103.91900000000001,0.02274892965616458
103.92,0.023324172864637612
103.921,0.01837994552296203
103.92200000000001,0.008653693846664489
103.923,0.0037575133024153836
103.924,0.01594107835182899
103.92500000000001,0.024963455085817488
103.926,0.028676662218764984
103.927,0.02629535811178392
103.92800000000001,0.018576882125544564
103.929,0.007562229741779328
103.93,0.004028376066272308
103.93100000000001,0.013550120727051883
103.932,0.019107830421357472
103.933,0.019958931688346268
103.93400000000001,0.01655273008915687
103.935,0.0102351611178036
103.936,0.002750849393785389
103.93700000000001,0.004275464637860302
103.938,0.009712040218175814
103.93900000000001,0.013053617149433252
103.94000000000001,0.014319254241947224
103.941,0.013805239689612872
103.94200000000001,0.011827409111697036
103.94300000000001,0.008573649452882819
103.944,0.004124920672006381
103.94500000000001,0.0013811869523538067
103.94600000000001,0.007541416812538575
103.947,0.013557664688570462
103.94800000000001,0.01828595138935075
103.94900000000001,0.020489057614892493
103.95,0.019228005435116147
103.95100000000001,0.014255992401635432
103.95200000000001,0.006255971752525337
103.953,0.0031976156147557064
103.95400000000001,0.01198223711822791
103.95500000000001,0.01799496885084137
103.956,0.019773973990429603
103.95700000000001,0.0169687366208804
103.95800000000001,0.01049085404411076
103.959,0.0022760464432893678
103.96000000000001,0.005283344987720666
103.96100000000001,0.01006206905215223
103.962,0.010849901071952552
103.96300000000001,0.007710922415055016
103.96400000000001,0.001933710094482432
103.965,0.004412576074488733
103.96600000000001,0.009168927256987692
103.96700000000001,0.010793390790402271
103.968,0.008848391552001072
103.96900000000001,0.004108202750464941
103.97000000000001,0.0017433832501236213
103.971,0.0067150112710167775
103.97200000000001,0.00919782109698147
103.97300000000001,0.008504575932105548
103.974,0.005074414939823573
103.97500000000001,0.00027861321670445466
103.97600000000001,0.004097105853490244
103.977,0.006505857165605988
103.97800000000001,0.006195319213370104
103.97900000000001,0.003469774104029941
103.98,0.0004319727242851333
103.98100000000001,0.0037966185261385866
103.98200000000001,0.0050689350782182115
103.983,0.0034314220851757457
103.98400000000001,0.0008747323581344242
103.98500000000001,0.006601353669459143
103.986,0.011900581107361571
103.98700000000001,0.014946721965271427
103.98800000000001,0.014557928473899091
103.989,0.010604628718519013
103.99000000000001,0.004066998749735789
103.99100000000001,0.003274542536198881
103.992,0.009406817515473988
103.99300000000001,0.012715329512116116
103.99400000000001,0.01246904569828654
103.995,0.00900371714271639
103.99600000000001,0.0035558147032281858
103.997,0.0021813509734374664
103.998,0.006617348471042733
103.99900000000001,0.008747081312130174
104.0,0.008399525445202389
104.001,0.006185224172377899
104.00200000000001,0.003183025953594342
104.003,0.0004950377623009684
104.004,0.0011624625210850568
104.00500000000001,0.0016868003693974157
104.006,0.0015629332509139206
104.007,0.001606694213352361
104.00800000000001,0.002583227990143989
104.009,0.004848248079026352
104.01,0.008146936249257707
104.01100000000001,0.011644809727431631
104.012,0.01418004397987422
104.013,0.014648452566854552
104.01400000000001,0.012387730538220669
104.015,0.007430651284720751
104.016,0.0005442705866832472
104.01700000000001,0.006954759119325403
104.018,0.013546249962033005
104.019,0.017903927951942938
104.02000000000001,0.019225651220131538
104.021,0.017407441678625908
104.022,0.013026783951651537
104.02300000000001,0.007159257078529061
104.024,0.0010958471317943658
104.025,0.003955418132927328
104.02600000000001,0.007111131775327344
104.027,0.007954683809916471
104.028,0.006570042747369892
104.02900000000001,0.003483752496652076
104.03,0.0004573665826204577
104.031,0.004247370293629919
104.03200000000001,0.006903116952449078
104.033,0.007652738646580814
104.034,0.006111730522867729
104.03500000000001,0.00241621234034143
104.036,0.0027274192954298278
104.037,0.008115951476477647
104.03800000000001,0.012265242792886728
104.039,0.013749350503401814
104.04,0.011597021911651737
104.04100000000001,0.005641858758103465
104.042,0.003288693067020764
104.043,0.013433881638756286
104.04400000000001,0.02243554799828408
104.045,0.02789240286306502
104.046,0.027998468094953623
104.04700000000001,0.022087451835581976
104.048,0.01091334333092531
104.049,0.0034383902194275824
104.05000000000001,0.018010896827757583
104.051,0.029696817634627625
104.052,0.0360246340439741
104.05300000000001,0.03578724407323863
104.054,0.029330299956786345
104.055,0.018416709456319603
104.05600000000001,0.005710367747710613
104.057,0.005963694841101922
104.058,0.014360913414852017
104.05900000000001,0.018344424478791553
104.06,0.018055522831891876
104.061,0.01470158036108927
104.06200000000001,0.010056160600993945
104.063,0.005850606014181572
104.06400000000001,0.0032581562042382417
104.06500000000001,0.002625880154054402
104.066,0.0035148506329879823
104.06700000000001,0.0049998588755872835
104.06800000000001,0.006095085536115499
104.069,0.006140032222935202
104.07000000000001,0.005009307004056139
104.07100000000001,0.0030867438363973067
104.072,0.0010382206013251852
104.07300000000001,0.0005073136047882618
104.07400000000001,0.0012302266092230928
104.075,0.0012343221259615907
104.07600000000001,0.0009611380977288694
104.07700000000001,0.000947885679478496
104.078,0.0015384614917915635
104.07900000000001,0.002677670987427975
104.08000000000001,0.003885803232826136
104.081,0.004436660818803691
104.08200000000001,0.003676088804136548
104.08300000000001,0.0013542723158522154
104.084,0.0021700423457121695
104.08500000000001,0.0059536601703247816
104.08600000000001,0.008737210958341108
104.087,0.009377187462185313
104.08800000000001,0.007290184904778787
104.08900000000001,0.0027404436422199083
104.09,0.0031522136428101693
104.09100000000001,0.00871169275913459
104.09200000000001,0.012228430368077114
104.093,0.012534937361167441
104.09400000000001,0.009433892798394005
104.09500000000001,0.00382000574576029
104.096,0.002562944431181556
104.09700000000001,0.0076632754793392035
104.09800000000001,0.009787789481493463
104.099,0.008171180300808031
104.10000000000001,0.0032531321355472684
104.10100000000001,0.0034369382679750675
104.102,0.009755861023078394
104.10300000000001,0.0136290446075944
104.10400000000001,0.013713778839059719
104.105,0.00982388351579807
104.10600000000001,0.0029769236012758982
104.10700000000001,0.00494678748939132
104.108,0.011813445648215095
104.10900000000001,0.015905131844094155
104.11000000000001,0.016425661763594463
104.111,0.013680925544749855
104.11200000000001,0.008887914185640153
104.11300000000001,0.003695781036783991
104.114,0.0004011659360575211
104.11500000000001,0.0025480918599085143
104.11600000000001,0.002746326794632566
104.117,0.0017393168455121521
104.11800000000001,0.0006276005255925827
104.11900000000001,0.00037034986095165644
104.12,0.0013689122836069315
104.12100000000001,0.00329282540743848
104.122,0.0052145696878372096
104.123,0.0060009695197208385
104.12400000000001,0.00481037600872769
104.125,0.0015020126966936
104.126,0.0032069000602630822
104.12700000000001,0.007909696810342181
104.128,0.010958136748902109
104.129,0.011038016300611752
104.13000000000001,0.0076687875132982405
104.131,0.0014439073720683199
104.132,0.006084675578653826
104.13300000000001,0.012851742987421706
104.134,0.016911956170963714
104.135,0.0170515250178845
104.13600000000001,0.013173427705068198
104.137,0.00632648247139545
104.138,0.001631383775400073
104.13900000000001,0.008622140951238616
104.14,0.012991620108948883
104.141,0.013995300002636418
104.14200000000001,0.011969673815408087
104.143,0.008142096495935326
104.144,0.004155147751233007
104.14500000000001,0.0014761688226581238
104.146,0.0008968108847222708
104.147,0.002290701588491683
104.14800000000001,0.004703915314891075
104.149,0.006736304482833347
104.15,0.007072641144512338
104.15100000000001,0.004974628542571091
104.152,0.0005633366691084
104.153,0.005201661967435424
104.15400000000001,0.010833275412385926
104.155,0.01480541196879063
104.156,0.016048569233556433
104.15700000000001,0.014284334772345956
104.158,0.01009049292580095
104.159,0.00468342868240044
104.16000000000001,0.0004991046885333792
104.161,0.004267121215543637
104.162,0.006039765509658859
104.16300000000001,0.005982135027586455
104.164,0.004881757634227826
104.165,0.003818755593047901
104.16600000000001,0.003751396736528864
104.167,0.005162116970209639
104.168,0.007882213532650876
104.16900000000001,0.011147744184342131
104.17,0.013858916437364999
104.171,0.014948377266149088
104.17200000000001,0.013732252790099259
104.173,0.01013022584741426
104.174,0.004690557876441863
104.17500000000001,0.0015763304885145922
104.176,0.007490363287795522
104.177,0.01201967835556577
104.17800000000001,0.014524112501455287
104.179,0.014858596013034337
104.18,0.013323438311051445
104.18100000000001,0.01050006182968308
104.182,0.00704343761176682
104.183,0.0035066529079405863
104.18400000000001,0.0002500091903976427
104.185,0.002552209095684315
104.186,0.004833657372814503
104.18700000000001,0.006537846323409441
104.188,0.007553439165178714
104.18900000000001,0.00771642903210429
104.19000000000001,0.006879971216034494
104.191,0.005020637247557105
104.19200000000001,0.0023312258660520405
104.19300000000001,0.0007479091846895043
104.194,0.0035856782156455437
104.19500000000001,0.005499205709563491
104.19600000000001,0.005937195953298512
104.197,0.0046509572493996535
104.19800000000001,0.0017968011438992892
104.19900000000001,0.0020667344134037667
104.2,0.006091397178184926
104.20100000000001,0.009332764482075442
104.20200000000001,0.010972534752433519
104.203,0.010510519088019456
104.20400000000001,0.007878450219264964
104.20500000000001,0.0034519610616069733
104.206,0.002034300216290364
104.20700000000001,0.007639673545935681
104.20800000000001,0.012397467202274148
104.209,0.01548168570001282
104.21000000000001,0.016331709973885354
104.21100000000001,0.01472221398490104
104.212,0.010779950232586597
104.21300000000001,0.004957262714818173
104.21400000000001,0.002026676827075655
104.215,0.009269492599832065
104.21600000000001,0.015790718568776188
104.21700000000001,0.02065558195927822
104.218,0.023109936310682755
104.21900000000001,0.02271024331082987
104.22000000000001,0.019424046248593875
104.221,0.013673016750545367
104.22200000000001,0.006296140829052798
104.22300000000001,0.0015743538101885791
104.224,0.008710195359418978
104.22500000000001,0.01402133027516738
104.22600000000001,0.01677608019013027
104.227,0.016753560445341972
104.22800000000001,0.014287207071740847
104.22900000000001,0.010183391439673586
104.23,0.0055304675491663294
104.23100000000001,0.0014424865823899373
104.23200000000001,0.00120013867655434
104.233,0.0019489745417410578
104.23400000000001,0.0008762160934769043
104.23500000000001,0.0014666693012529862
104.236,0.0042069954484261485
104.23700000000001,0.006382645190500726
104.23800000000001,0.007186925728465517
104.239,0.006164573462160883
104.24000000000001,0.003312048111668209
104.24100000000001,0.0009379864338172357
104.242,0.005837277989357327
104.24300000000001,0.010510547556426204
104.24400000000001,0.014159694867967709
104.245,0.016231004769522054
104.24600000000001,0.01650650104570862
104.247,0.015103991906449187
104.248,0.012396379457815855
104.24900000000001,0.008882050474145604
104.25,0.005048855909028443
104.251,0.0012717677312846913
104.25200000000001,0.0022299102253982117
104.253,0.0053711635601396855
104.254,0.008132671883374156
104.25500000000001,0.010477065906630221
104.256,0.01228606003296681
104.257,0.013346053225288146
104.25800000000001,0.01339170047699945
104.259,0.012195118814266966
104.26,0.009670121980314644
104.26100000000001,0.005952582770075873
104.262,0.0014230530525416874
104.263,0.0033448454807020185
104.26400000000001,0.007702236979363229
104.265,0.011077335913888825
104.266,0.013116061561610838
104.26700000000001,0.013764833390603737
104.268,0.013265400350117609
104.269,0.01205895607792291
104.27000000000001,0.010627091381489637
104.271,0.009320170474735852
104.272,0.008231094798538417
104.27300000000001,0.007160528277322956
104.274,0.0056912512276884875
104.275,0.003352986269989579
104.27600000000001,0.00017332216830254443
104.277,0.004879908221517447
104.278,0.010348496253300922
104.27900000000001,0.01579518287575956
104.28,0.020240067164293662
104.281,0.022756342724286154
104.28200000000001,0.022725046021342836
104.283,0.020016280620524962
104.284,0.015038297520356085
104.28500000000001,0.008636396301261189
104.286,0.0018712681095325954
104.287,0.004254689441932177
104.28800000000001,0.009037737935229906
104.289,0.012205949313731949
104.29,0.013907608596949653
104.29100000000001,0.014566569968220876
104.292,0.014661597243696553
104.293,0.01451233053112355
104.29400000000001,0.014151132157406607
104.295,0.01332836813590332
104.296,0.011649378539260418
104.29700000000001,0.008791701666884354
104.298,0.004718878752734993
104.299,0.00019547524801997288
104.30000000000001,0.005190724509143462
104.301,0.00929552181846513
104.302,0.011607445757954556
104.30300000000001,0.011585048799009354
104.304,0.009250753468900622
104.305,0.005227826648561475
104.30600000000001,0.0005876729899882948
104.307,0.003452497279573049
104.308,0.005888785727825699
104.30900000000001,0.0062306584660614915
104.31,0.004641865227269165
104.311,0.001872571394542879
104.31200000000001,0.0009981634905550161
104.313,0.0029263362072566154
104.31400000000001,0.0032528246252294347
104.31500000000001,0.0019213755629105202
104.316,0.0005100107222463222
104.31700000000001,0.003069856397080723
104.31800000000001,0.004719359497900778
104.319,0.0047263439754422504
104.32000000000001,0.002937940312952143
104.32100000000001,0.00014458880389971767
104.322,0.003519308239459213
104.32300000000001,0.006017925354599681
104.32400000000001,0.0067103008672751464
104.325,0.005241698361953672
104.32600000000001,0.001984729254533413
104.32700000000001,0.0020521492819678033
104.328,0.005536837806601267
104.32900000000001,0.00724873808957022
104.33000000000001,0.006495192680412216
104.331,0.0033699944682410144
104.33200000000001,0.0012366344965006675
104.33300000000001,0.005887801221274721
104.334,0.009036229234564637
104.33500000000001,0.009512016987670098
104.33600000000001,0.0069078491134119705
104.337,0.0017379650480397863
104.33800000000001,0.004682815155142291
104.33900000000001,0.010606451041596798
104.34,0.0143552014036411
104.34100000000001,0.014809219857421672
104.34200000000001,0.011731937935062792
104.343,0.005837898424348897
104.34400000000001,0.001412937311767562
104.34500000000001,0.008227951370967152
104.346,0.012975383461728985
104.34700000000001,0.014612786375931124
104.34800000000001,0.012930040300165178
104.349,0.008547237853627888
104.35000000000001,0.0026834535625288214
104.35100000000001,0.003220890675513194
104.352,0.007907670089085243
104.35300000000001,0.010611542675900169
104.35400000000001,0.01119542393608912
104.355,0.010088583393594114
104.35600000000001,0.008066677194867903
104.35700000000001,0.005957590101116915
104.358,0.004371813422366118
104.35900000000001,0.0035389271207339687
104.36000000000001,0.003290567062431319
104.361,0.0031800176724775353
104.36200000000001,0.0026859317570859754
104.36300000000001,0.0014255143723237136
104.364,0.0006939244062799751
104.36500000000001,0.0034302588695200534
104.36600000000001,0.006275945981053789
104.367,0.008611982039778704
104.36800000000001,0.00989276742422815
104.36900000000001,0.009803236764883523
104.37,0.008343346306593917
104.37100000000001,0.005821126932230091
104.372,0.002764398370434661
104.373,0.00021647569429590602
104.37400000000001,0.0025728087777587964
104.375,0.003931053846583434
104.376,0.004152366072481221
104.37700000000001,0.0033337005035400896
104.378,0.0017617931136835842
104.379,0.0001599245203987904
104.38000000000001,0.001991084030231087
104.381,0.0033262867926940136
104.382,0.003852609996607499
104.38300000000001,0.0033921555626372857
104.384,0.0019307420492805294
104.385,0.00036858108779666885
104.38600000000001,0.0031724758382337833
104.387,0.006011984156165607
104.388,0.008349480214416505
104.38900000000001,0.009674505013249545
104.39,0.009614025701229692
104.391,0.008032700628533718
104.39200000000001,0.005094513790420161
104.393,0.0012618510524121213
104.394,0.0027780701977228772
104.39500000000001,0.0062497854333584
104.396,0.008459834333617192
104.397,0.008958267190432865
104.39800000000001,0.007647654821641724
104.399,0.004807804328694137
104.4,0.0010268615420491638
104.40100000000001,0.0029439825497478765
104.402,0.0063725703629636836
104.403,0.008714045921389463
104.40400000000001,0.009718995630813486
104.405,0.009453697310300057
104.406,0.008231866220263114
104.40700000000001,0.006484423417799989
104.408,0.004612163489200062
104.409,0.002869767160651244
104.41000000000001,0.0013172239594364732
104.411,0.00014945232134934615
104.412,0.0017041666289351232
104.41300000000001,0.0034713218847749554
104.414,0.005427659570981142
104.415,0.007364188384661188
104.41600000000001,0.008925350500651484
104.417,0.009714437446114171
104.418,0.00942946920763729
104.41900000000001,0.00798112299844614
104.42,0.005548613608179259
104.421,0.0025496351069761282
104.42200000000001,0.0004700824444739344
104.423,0.002993458147542405
104.424,0.00468320550646955
104.42500000000001,0.005475542435759886
104.426,0.005582630951636133
104.427,0.005400460032647674
104.42800000000001,0.0053516902646334385
104.429,0.005716689164112103
104.43,0.006512050119726687
104.43100000000001,0.0074616148126425315
104.432,0.00807468701647392
104.433,0.007809696094822099
104.43400000000001,0.006271386121934765
104.435,0.003376183627830198
104.436,0.0005712711432467952
104.43700000000001,0.004919730896177841
104.438,0.008822359376552121
104.43900000000001,0.011452832683518021
104.44000000000001,0.012221072757323183
104.441,0.010923688238242394
104.44200000000001,0.007786114170383684
104.44300000000001,0.0033890924333243246
104.444,0.0014908864882346793
104.44500000000001,0.00607204329809799
104.44600000000001,0.009728102734728078
104.447,0.012074852386022072
104.44800000000001,0.012968893804353857
104.44900000000001,0.012439085632189897
104.45,0.010595311404337346
104.45100000000001,0.007564124253939084
104.45200000000001,0.0034845732752599
104.453,0.0014336039681745439
104.45400000000001,0.006820834960675148
104.45500000000001,0.012081130511149587
104.456,0.016401989340243228
104.45700000000001,0.018871110474525228
104.45800000000001,0.018689641328222546
104.459,0.015428388679942683
104.46000000000001,0.009244092711458598
104.46100000000001,0.0009704994239612998
104.462,0.007972258831755938
104.46300000000001,0.015853411869620988
104.46400000000001,0.021034793392551602
104.465,0.022395374534850666
104.46600000000001,0.01965265383226473
104.46700000000001,0.013477258170220061
104.468,0.005352899954578812
104.46900000000001,0.0027914549996916763
104.47000000000001,0.0090800107354856
104.471,0.01217892223392357
104.47200000000001,0.0116343523303499
104.47300000000001,0.007961622491507024
104.474,0.002461264577363482
104.47500000000001,0.003180159025636146
104.47600000000001,0.007382422670375835
104.477,0.009109222597078567
104.47800000000001,0.008123368908482396
104.47900000000001,0.004991640152746584
104.48,0.0008506848444096007
104.48100000000001,0.0029814071312084505
104.48200000000001,0.005419379502682841
104.483,0.005921129522314477
104.48400000000001,0.00460438041169361
104.48500000000001,0.002146866309626112
104.486,0.00048219312946174835
104.48700000000001,0.0023604926367262274
104.48800000000001,0.0029063970033894808
104.489,0.002036481089030009
104.49000000000001,0.00014695940078110888
104.49100000000001,0.002059588116042593
104.492,0.003831188641183951
104.49300000000001,0.004614323826464891
104.49400000000001,0.004211299916517624
104.495,0.0028041253673952242
104.49600000000001,0.000851652525155654
104.497,0.0010904821826987078
104.498,0.00255643189179256
104.49900000000001,0.0032987577846441455
104.5,0.003323500809339185
104.501,0.0028348560565600047
104.50200000000001,0.0021256228457485152
104.503,0.0014646559639661953
104.504,0.0010252747029272059
104.50500000000001,0.00087387808411714
104.506,0.0010076288857150143
104.507,0.0014076165602174443
104.50800000000001,0.0020691689627205484
104.509,0.0029858430283472618
104.51,0.004091270502755941
104.51100000000001,0.005190732024396767
104.512,0.00592872569466948
104.513,0.005831625934766355
104.51400000000001,0.004436461199695419
