Czas,AbsSum,Sum
69.352,0.006106231502990278,-0.006106231502990278
69.35300000000001,0.032692454306803787,-0.032692454306803787
69.354,0.05279391882325779,-0.05279391882325779
69.355,0.059671021367881716,-0.059671021367881716
69.35600000000001,0.04859593871127965,-0.04859593871127965
69.357,0.018177031124082865,-0.018177031124082865
69.358,0.02910499402192368,0.02910499402192368
69.35900000000001,0.087262764421987,0.087262764421987
69.36,0.1479505615192127,0.1479505615192127
69.361,0.2020914229614923,0.2020914229614923
69.36200000000001,0.24158869556401052,0.24158869556401052
69.363,0.260746265479445,0.260746265479445
69.364,0.2571315874054154,0.2571315874054154
69.36500000000001,0.23177529209845193,0.23177529209845193
69.366,0.18876040283046547,0.18876040283046547
69.367,0.13437061684254692,0.13437061684254692
69.36800000000001,0.07601805328660527,0.07601805328660527
69.369,0.02115761542930583,0.02115761542930583
69.37,0.023661398749107443,-0.023661398749107443
69.37100000000001,0.05352538283436403,-0.05352538283436403
69.372,0.06564264373437456,-0.06564264373437456
69.373,0.05958713411806926,-0.05958713411806926
69.37400000000001,0.037301381062035066,-0.037301381062035066
69.375,0.0028492132874167186,-0.0028492132874167186
69.376,0.0380933211057104,0.0380933211057104
69.37700000000001,0.07899845604081834,0.07899845604081834
69.378,0.11343931072063462,0.11343931072063462
69.379,0.13611172392628523,0.13611172392628523
69.38000000000001,0.14374774077932417,0.14374774077932417
69.381,0.13572322476837062,0.13572322476837062
69.382,0.11419482884593823,0.11419482884593823
69.38300000000001,0.08368880991952565,0.08368880991952565
69.384,0.05018866440183389,0.05018866440183389
69.385,0.01989783854969218,0.01989783854969218
69.38600000000001,0.0020503657832224853,-0.0020503657832224853
69.387,0.01263288691142661,-0.01263288691142661
69.388,0.011473246032866258,-0.011473246032866258
69.38900000000001,0.0007406689765594443,-0.0007406689765594443
69.39,0.015560197511654827,0.015560197511654827
69.391,0.03272265524039675,0.03272265524039675
69.39200000000001,0.04659695872404557,0.04659695872404557
69.393,0.054645833477519945,0.054645833477519945
69.394,0.05652497379561883,0.05652497379561883
69.39500000000001,0.05404812678865789,0.05404812678865789
69.396,0.050564294866507487,0.050564294866507487
69.397,0.0499321692231498,0.0499321692231498
69.39800000000001,0.055380410969730454,0.055380410969730454
69.399,0.06856413109148374,0.06856413109148374
69.4,0.08906398190660925,0.08906398190660925
69.40100000000001,0.11444517146145827,0.11444517146145827
69.402,0.14083781826211283,0.14083781826211283
69.403,0.16386198685076137,0.16386198685076137
69.40400000000001,0.17963823468185036,0.17963823468185036
69.405,0.18561780084048007,0.18561780084048007
69.406,0.18103330445875598,0.18103330445875598
69.40700000000001,0.1668877532524935,0.1668877532524935
69.408,0.1455304967696862,0.1455304967696862
69.409,0.11997545088575157,0.11997545088575157
69.41000000000001,0.09317092454155507,0.09317092454155507
69.411,0.06742047040200716,0.06742047040200716
69.412,0.04408865346396218,0.04408865346396218
69.41300000000001,0.023628509500950967,0.023628509500950967
69.414,0.00587018660269889,0.00587018660269889
69.415,0.009558358869184658,-0.009558358869184658
69.41600000000001,0.022830088562477813,-0.022830088562477813
69.417,0.03366268768334846,-0.03366268768334846
69.418,0.04127225743897922,-0.04127225743897922
69.41900000000001,0.04452861282511478,-0.04452861282511478
69.42,0.04224294914559845,-0.04224294914559845
69.421,0.0334877796067824,-0.0334877796067824
69.42200000000001,0.017854495969949258,-0.017854495969949258
69.423,0.004410924563707841,0.004410924563707841
69.424,0.032404727060955096,0.032404727060955096
69.42500000000001,0.06466211853104742,0.06466211853104742
69.426,0.0992989843499934,0.0992989843499934
69.427,0.1341482034748145,0.1341482034748145
69.42800000000001,0.16686681803116366,0.16686681803116366
69.429,0.19502544200202587,0.19502544200202587
69.43,0.21621814082842516,0.21621814082842516
69.43100000000001,0.2282361761737861,0.2282361761737861
69.432,0.2293278063225388,0.2293278063225388
69.433,0.21852495821120166,0.21852495821120166
69.43400000000001,0.1959712556451152,0.1959712556451152
69.435,0.1631535418008785,0.1631535418008785
69.436,0.12293642445938313,0.12293642445938313
69.43700000000001,0.07933292728715191,0.07933292728715191
69.438,0.037008005993091064,0.037008005993091064
69.43900000000001,0.0005880397311550656,0.0005880397311550656
69.44000000000001,0.02608529839138851,-0.02608529839138851
69.441,0.04058658477243926,-0.04058658477243926
69.44200000000001,0.042268593906745644,-0.042268593906745644
69.44300000000001,0.032261329567493946,-0.032261329567493946
69.444,0.013107670991316378,-0.013107670991316378
69.44500000000001,0.011866952973519362,0.011866952973519362
69.44600000000001,0.0392798465853792,0.0392798465853792
69.447,0.06631437449600885,0.06631437449600885
69.44800000000001,0.09107617824933345,0.09107617824933345
69.44900000000001,0.11259928614789794,0.11259928614789794
69.45,0.13052868019940211,0.13052868019940211
69.45100000000001,0.1446104362142846,0.1446104362142846
69.45200000000001,0.15418774336697894,0.15418774336697894
69.453,0.15790842878886546,0.15790842878886546
69.45400000000001,0.15379159263216224,0.15379159263216224
69.45500000000001,0.13969154682689755,0.13969154682689755
69.456,0.1140665284879685,0.1140665284879685
69.45700000000001,0.07684571208644875,0.07684571208644875
69.45800000000001,0.030126209516819547,0.030126209516819547
69.459,0.021555739279940034,-0.021555739279940034
69.46000000000001,0.07154617111503492,-0.07154617111503492
69.46100000000001,0.11200817436895794,-0.11200817436895794
69.462,0.13532448997841695,-0.13532448997841695
69.46300000000001,0.13568026381087783,-0.13568026381087783
69.46400000000001,0.11046074057195343,-0.11046074057195343
69.465,0.06111086509368446,-0.06111086509368446
69.46600000000001,0.0067920039728666115,0.0067920039728666115
69.46700000000001,0.08432677760070728,0.08432677760070728
69.468,0.16075041974922866,0.16075041974922866
69.46900000000001,0.22544400144617716,0.22544400144617716
69.47000000000001,0.2698629458113919,0.2698629458113919
69.471,0.28906012144063986,0.28906012144063986
69.47200000000001,0.28244494824790367,0.28244494824790367
69.47300000000001,0.25362049686660537,0.25362049686660537
69.474,0.20935981790115132,0.20935981790115132
69.47500000000001,0.15798708383113413,0.15798708383113413
69.47600000000001,0.10756608317919114,0.10756608317919114
69.477,0.06433256869611448,0.06433256869611448
69.47800000000001,0.03172908075431846,0.03172908075431846
69.479,0.01023196902835899,0.01023196902835899
69.48,0.0020541752617982967,-0.0020541752617982967
69.48100000000001,0.008261580669867707,-0.008261580669867707
69.482,0.011445634649726921,-0.011445634649726921
69.483,0.013485518222687398,-0.013485518222687398
69.48400000000001,0.014512198832414946,-0.014512198832414946
69.485,0.013009509688788556,-0.013009509688788556
69.486,0.0065280633873882055,-0.0065280633873882055
69.48700000000001,0.007232963975343454,0.007232963975343454
69.488,0.02933074508526734,0.02933074508526734
69.489,0.05882750763966049,0.05882750763966049
69.49000000000001,0.09263513029103798,0.09263513029103798
69.491,0.12602666766621762,0.12602666766621762
69.492,0.1536830386622734,0.1536830386622734
69.49300000000001,0.17097957488589222,0.17097957488589222
69.494,0.17514220671629088,0.17514220671629088
69.495,0.16593938132861807,0.16593938132861807
69.49600000000001,0.14571218549724407,0.14571218549724407
69.497,0.11873988276928293,0.11873988276928293
69.498,0.09013167754779716,0.09013167754779716
69.49900000000001,0.06456908135734118,0.06456908135734118
69.5,0.04525677257655247,0.04525677257655247
69.501,0.03336467609909044,0.03336467609909044
69.50200000000001,0.028085492721709793,0.028085492721709793
69.503,0.027241233339907467,0.027241233339907467
69.504,0.028209982117403554,0.028209982117403554
69.50500000000001,0.028860558170740847,0.028860558170740847
69.506,0.028202122440121657,0.028202122440121657
69.507,0.02656835030370197,0.02656835030370197
69.50800000000001,0.02532145287035914,0.02532145287035914
69.509,0.026223161807015893,0.026223161807015893
69.51,0.030723239328485974,0.030723239328485974
69.51100000000001,0.03942736724659768,0.03942736724659768
69.512,0.05192388223494149,0.05192388223494149
69.513,0.06700401386859833,0.06700401386859833
69.51400000000001,0.08315635459374682,0.08315635459374682
69.515,0.09911009565138706,0.09911009565138706
69.516,0.11418340768715729,0.11418340768715729
69.51700000000001,0.12827223418396105,0.12827223418396105
69.518,0.14146421954026445,0.14146421954026445
69.519,0.15342872187031453,0.15342872187031453
69.52000000000001,0.1628538909813193,0.1628538909813193
69.521,0.16722563699723492,0.16722563699723492
69.522,0.1631526638978631,0.1631526638978631
69.52300000000001,0.14725855100719665,0.14725855100719665
69.524,0.11744339498633871,0.11744339498633871
69.525,0.07413883823791867,0.07413883823791867
69.52600000000001,0.02110954236430662,0.02110954236430662
69.527,0.034571431954103504,-0.034571431954103504
69.528,0.08353500477603992,-0.08353500477603992
69.52900000000001,0.11598582811991509,-0.11598582811991509
69.53,0.12401285577139731,-0.12401285577139731
69.531,0.1037365496776036,-0.1037365496776036
69.53200000000001,0.05666801222695217,-0.05666801222695217
69.533,0.01017725823366189,0.01017725823366189
69.534,0.08554955492948446,0.08554955492948446
69.53500000000001,0.15637364217392014,0.15637364217392014
69.536,0.21071265336303435,0.21071265336303435
69.537,0.24051606486882093,0.24051606486882093
69.53800000000001,0.24340645955801565,0.24340645955801565
69.539,0.22300186284744372,0.22300186284744372
69.54,0.18766659794706975,0.18766659794706975
69.54100000000001,0.14802343553043085,0.14802343553043085
69.542,0.11391609570921002,0.11391609570921002
69.543,0.09167748183146052,0.09167748183146052
69.54400000000001,0.08248211848760545,0.08248211848760545
69.545,0.08225820301028586,0.08225820301028586
69.546,0.08318938339148052,0.08318938339148052
69.54700000000001,0.07637608784242622,0.07637608784242622
69.548,0.05488465749901983,0.05488465749901983
69.549,0.01629049520877479,0.01629049520877479
69.55000000000001,0.0360432360266697,-0.0360432360266697
69.551,0.0933541134204896,-0.0933541134204896
69.552,0.14346430845398728,-0.14346430845398728
69.55300000000001,0.17383118287029875,-0.17383118287029875
69.554,0.17482902953053403,-0.17482902953053403
69.555,0.14235768214962807,-0.14235768214962807
69.55600000000001,0.07906248776982461,-0.07906248776982461
69.557,0.006159388443762515,0.006159388443762515
69.558,0.10021320549862534,0.10021320549862534
69.55900000000001,0.1888410448248503,0.1888410448248503
69.56,0.2598017902161933,0.2598017902161933
69.561,0.30535106510347254,0.30535106510347254
69.56200000000001,0.3234053676180504,0.3234053676180504
69.563,0.31717248266115683,0.31717248266115683
69.56400000000001,0.2934750175095544,0.2934750175095544
69.56500000000001,0.2603532527311032,0.2603532527311032
69.566,0.22470359444474286,0.22470359444474286
69.56700000000001,0.19064526126147485,0.19064526126147485
69.56800000000001,0.1590377841097128,0.1590377841097128
69.569,0.12818512125714143,0.12818512125714143
69.57000000000001,0.09538221328954499,0.09538221328954499
69.57100000000001,0.058705317563297665,0.058705317563297665
69.572,0.018395475902808656,0.018395475902808656
69.57300000000001,0.022653332925966607,-0.022653332925966607
69.57400000000001,0.0594701227174409,-0.0594701227174409
69.575,0.08644511111792352,-0.08644511111792352
69.57600000000001,0.09912919579819279,-0.09912919579819279
69.57700000000001,0.09576440572386269,-0.09576440572386269
69.578,0.07799879979717583,-0.07799879979717583
69.57900000000001,0.050509436703062294,-0.050509436703062294
69.58000000000001,0.01962531831296055,-0.01962531831296055
69.581,0.008613130407551628,0.008613130407551628
69.58200000000001,0.030316292037444237,0.030316292037444237
69.58300000000001,0.044893699390747166,0.044893699390747166
69.584,0.05507383019180545,0.05507383019180545
69.58500000000001,0.06574879037947601,0.06574879037947601
69.58600000000001,0.08199439929445718,0.08199439929445718
69.587,0.10691103201428853,0.10691103201428853
69.58800000000001,0.14002165791263366,0.14002165791263366
69.58900000000001,0.17681317025551713,0.17681317025551713
69.59,0.2096557660499736,0.2096557660499736
69.59100000000001,0.22989051979416542,0.22989051979416542
69.59200000000001,0.23047930788684878,0.23047930788684878
69.593,0.20839481348638245,0.20839481348638245
69.59400000000001,0.16596851331261875,0.16596851331261875
69.59500000000001,0.11070782106012533,0.11070782106012533
69.596,0.053554631979849665,0.053554631979849665
69.59700000000001,0.006044463285150625,0.006044463285150625
69.59800000000001,0.022816126851817775,-0.022816126851817775
69.599,0.02902356295702002,-0.02902356295702002
69.60000000000001,0.01464762028392208,-0.01464762028392208
69.60100000000001,0.012842835366316807,0.012842835366316807
69.602,0.04281245575066572,0.04281245575066572
69.60300000000001,0.06458771261231622,0.06458771261231622
69.604,0.07054312485309278,0.07054312485309278
69.605,0.05822221168158426,0.05822221168158426
69.60600000000001,0.030871580910878826,0.030871580910878826
69.607,0.003738732243849685,-0.003738732243849685
69.608,0.03580378221312708,-0.03580378221312708
69.60900000000001,0.05647590571244043,-0.05647590571244043
69.61,0.060413631823090674,-0.060413631823090674
69.611,0.047101426478113106,-0.047101426478113106
69.61200000000001,0.020565301352961307,-0.020565301352961307
69.613,0.012363545789929153,0.012363545789929153
69.614,0.04461273689418488,0.04461273689418488
69.61500000000001,0.07137222809335286,0.07137222809335286
69.616,0.09167934698150026,0.09167934698150026
69.617,0.1085413445946275,0.1085413445946275
69.61800000000001,0.12754642163029373,0.12754642163029373
69.619,0.15442791567385372,0.15442791567385372
69.62,0.19240996546256106,0.19240996546256106
69.62100000000001,0.24025606709144864,0.24025606709144864
69.622,0.2917318664482169,0.2917318664482169
69.623,0.33674626059015833,0.33674626059015833
69.62400000000001,0.36389370807300336,0.36389370807300336
69.625,0.3636597969300315,0.3636597969300315
69.626,0.33132035439663277,0.33132035439663277
69.62700000000001,0.26863703509887893,0.26863703509887893
69.628,0.18380726681992354,0.18380726681992354
69.629,0.08965166077839637,0.08965166077839637
69.63000000000001,0.0005521058409430069,0.0005521058409430069
69.631,0.07097674234242546,-0.07097674234242546
69.632,0.11710392654553736,-0.11710392654553736
69.63300000000001,0.1361108554538356,-0.1361108554538356
69.634,0.13208936406992267,-0.13208936406992267
69.635,0.11309020633880429,-0.11309020633880429
69.63600000000001,0.08835392859143776,-0.08835392859143776
69.637,0.06549783273151144,-0.06549783273151144
69.638,0.048498829504667995,-0.048498829504667995
69.63900000000001,0.03702413394524329,-0.03702413394524329
69.64,0.027219806002628966,-0.027219806002628966
69.641,0.013614459551503089,-0.013614459551503089
69.64200000000001,0.008528031855705498,0.008528031855705498
69.643,0.04117464821901762,0.04117464821901762
69.644,0.08243702696528343,0.08243702696528343
69.64500000000001,0.12673929243230275,0.12673929243230275
69.646,0.16615046932273603,0.16615046932273603
69.647,0.19244870814514958,0.19244870814514958
69.64800000000001,0.19929419449594987,0.19929419449594987
69.649,0.18389587983747924,0.18389587983747924
69.65,0.14774478461316676,0.14774478461316676
69.65100000000001,0.0962808967834381,0.0962808967834381
69.652,0.037663211860780255,0.037663211860780255
69.653,0.018967362253842657,-0.018967362253842657
69.65400000000001,0.06525961278328773,-0.06525961278328773
69.655,0.0950457004848625,-0.0950457004848625
69.656,0.10510847009220692,-0.10510847009220692
69.65700000000001,0.09527596200915689,-0.09527596200915689
69.658,0.06796951682017516,-0.06796951682017516
69.659,0.027429419654857123,-0.027429419654857123
69.66000000000001,0.021148398036035854,0.021148398036035854
69.661,0.07239000535850293,0.07239000535850293
69.662,0.1213491805569884,0.1213491805569884
69.66300000000001,0.16393190377243227,0.16393190377243227
69.664,0.19716988999449403,0.19716988999449403
69.665,0.21937190371333593,0.21937190371333593
69.66600000000001,0.23015583159868758,0.23015583159868758
69.667,0.2303409751285601,0.2303409751285601
69.668,0.22168103701922703,0.22168103701922703
69.66900000000001,0.20645084297631078,0.20645084297631078
69.67,0.186952280997156,0.186952280997156
69.671,0.16505223220181398,0.16505223220181398
69.67200000000001,0.14188075930512856,0.14188075930512856
69.673,0.11778610775529197,0.11778610775529197
69.674,0.09256837764264736,0.09256837764264736
69.67500000000001,0.0659199495828009,0.0659199495828009
69.676,0.03792291059848241,0.03792291059848241
69.677,0.009424010416808182,0.009424010416808182
69.67800000000001,0.01785821793071707,-0.01785821793071707
69.679,0.04155005434808412,-0.04155005434808412
69.68,0.05910467897955529,-0.05910467897955529
69.68100000000001,0.06839488910630176,-0.06839488910630176
69.682,0.0682197175242818,-0.0682197175242818
69.683,0.05855864016629564,-0.05855864016629564
69.68400000000001,0.04049971712791567,-0.04049971712791567
69.685,0.015888187857797775,-0.015888187857797775
69.686,0.013156825476249967,0.013156825476249967
69.68700000000001,0.044668072316653706,0.044668072316653706
69.688,0.07704421580118304,0.07704421580118304
69.68900000000001,0.10899735048866455,0.10899735048866455
69.69000000000001,0.1393029492223763,0.1393029492223763
69.691,0.16651779571306058,0.16651779571306058
69.69200000000001,0.18885786136216653,0.18885786136216653
69.69300000000001,0.20436790374777258,0.20436790374777258
69.694,0.21138654691022762,0.21138654691022762
69.69500000000001,0.2091634955463999,0.2091634955463999
69.69600000000001,0.19838053862164884,0.19838053862164884
69.697,0.1813149599615118,0.1813149599615118
69.69800000000001,0.1614802788559322,0.1614802788559322
69.69900000000001,0.14275989228373787,0.14275989228373787
69.7,0.1282527355014913,0.1282527355014913
69.70100000000001,0.11919927278750841,0.11919927278750841
69.70200000000001,0.11438639268090012,0.11438639268090012
69.703,0.11031514124583741,0.11031514124583741
69.70400000000001,0.1021816955369721,0.1021816955369721
69.70500000000001,0.08544239281040311,0.08544239281040311
69.706,0.05750458087373489,0.05750458087373489
69.70700000000001,0.018993284340123484,0.018993284340123484
69.70800000000001,0.02586631661102845,-0.02586631661102845
69.709,0.06995577123409191,-0.06995577123409191
69.71000000000001,0.1049216492304601,-0.1049216492304601
69.71100000000001,0.12332842617847983,-0.12332842617847983
69.712,0.12066538619757006,-0.12066538619757006
69.71300000000001,0.09658801122834193,-0.09658801122834193
69.71400000000001,0.05500212918666125,-0.05500212918666125
69.715,0.0029639273585070347,-0.0029639273585070347
69.71600000000001,0.0512492184775295,0.0512492184775295
69.71700000000001,0.10027348796168312,0.10027348796168312
69.718,0.13931485044165104,0.13931485044165104
69.71900000000001,0.1668155939770466,0.1668155939770466
69.72000000000001,0.1839703387708327,0.1839703387708327
69.721,0.19333883980659872,0.19333883980659872
69.72200000000001,0.19712541545390838,0.19712541545390838
69.72300000000001,0.19581500055860457,0.19581500055860457
69.724,0.18772565702578592,0.18772565702578592
69.72500000000001,0.16969699239574187,0.16969699239574187
69.72600000000001,0.13870007931276218,0.13870007931276218
69.727,0.09378145266943494,0.09378145266943494
69.72800000000001,0.03757976381751704,0.03757976381751704
69.729,0.023249060230712715,-0.023249060230712715
69.73,0.07901554760229357,-0.07901554760229357
69.73100000000001,0.11922201254877463,-0.11922201254877463
69.732,0.13540482324180558,-0.13540482324180558
69.733,0.12370156341181626,-0.12370156341181626
69.73400000000001,0.08627659312392189,-0.08627659312392189
69.735,0.03106207504470182,-0.03106207504470182
69.736,0.030204769001927367,0.030204769001927367
69.73700000000001,0.08511382695665848,0.08511382695665848
69.738,0.12395196685940335,0.12395196685940335
69.739,0.1422760910863159,0.1422760910863159
69.74000000000001,0.14188873831565618,0.14188873831565618
69.741,0.12991540574889116,0.12991540574889116
69.742,0.11628680367445976,0.11628680367445976
69.74300000000001,0.11043833663055391,0.11043833663055391
69.744,0.11828367170924126,0.11828367170924126
69.745,0.14041725150568185,0.14041725150568185
69.74600000000001,0.17208608744328457,0.17208608744328457
69.747,0.20488344676273673,0.20488344676273673
69.748,0.22955379157599443,0.22955379157599443
69.74900000000001,0.23894841302791048,0.23894841302791048
69.75,0.23015030111019597,0.23015030111019597
69.751,0.2050979081082589,0.2050979081082589
69.75200000000001,0.16957011719643034,0.16957011719643034
69.753,0.13096317636736865,0.13096317636736865
69.754,0.09569779727063521,0.09569779727063521
69.75500000000001,0.06720119829089066,0.06720119829089066
69.756,0.04518000571326186,0.04518000571326186
69.757,0.026418136793922686,0.026418136793922686
69.75800000000001,0.006769920499986926,0.006769920499986926
69.759,0.0164275332731173,-0.0164275332731173
69.76,0.04246833766192348,-0.04246833766192348
69.76100000000001,0.0666941067688045,-0.0666941067688045
69.762,0.08153506860294724,-0.08153506860294724
69.763,0.0789170004530998,-0.0789170004530998
69.76400000000001,0.05326681067779948,-0.05326681067779948
69.765,0.004093233179131794,-0.004093233179131794
69.766,0.06279192064562555,0.06279192064562555
69.76700000000001,0.13593601812723288,0.13593601812723288
69.768,0.20071685776949977,0.20071685776949977
69.769,0.24295954754690952,0.24295954754690952
69.77000000000001,0.2526516920830939,0.2526516920830939
69.771,0.2266573820583162,0.2266573820583162
69.772,0.1696264974332613,0.1696264974332613
69.77300000000001,0.09284182290590359,0.09284182290590359
69.774,0.011363907370903537,0.011363907370903537
69.775,0.05967553121223779,-0.05967553121223779
69.77600000000001,0.1085680119428496,-0.1085680119428496
69.777,0.12936823103514927,-0.12936823103514927
69.778,0.12253842246976632,-0.12253842246976632
69.77900000000001,0.09389436929545647,-0.09389436929545647
69.78,0.052346278260221535,-0.052346278260221535
69.781,0.007226556446741639,-0.007226556446741639
69.78200000000001,0.03398134096564487,0.03398134096564487
69.783,0.06693528587612674,0.06693528587612674
69.784,0.0905620210710334,0.0905620210710334
69.78500000000001,0.10623320462866448,0.10623320462866448
69.786,0.1164732924180325,0.1164732924180325
69.787,0.1237441000169821,0.1237441000169821
69.78800000000001,0.12970695374815788,0.12970695374815788
69.789,0.1350922696326251,0.1350922696326251
69.79,0.14002748354280437,0.14002748354280437
69.79100000000001,0.14450000107134953,0.14450000107134953
69.792,0.1486249111879283,0.1486249111879283
69.793,0.15253818527257046,0.15253818527257046
69.79400000000001,0.15596985658056783,0.15596985658056783
69.795,0.15775951191307858,0.15775951191307858
69.796,0.15566092661855868,0.15566092661855868
69.79700000000001,0.14669809706782444,0.14669809706782444
69.798,0.12810716656698928,0.12810716656698928
69.799,0.09861696217091631,0.09861696217091631
69.80000000000001,0.05960358997182458,0.05960358997182458
69.801,0.015602882316752886,0.015602882316752886
69.802,0.026179731281389618,-0.026179731281389618
69.80300000000001,0.057397212211284465,-0.057397212211284465
69.804,0.07077607271364139,-0.07077607271364139
69.805,0.06236320814516849,-0.06236320814516849
69.80600000000001,0.0330488225883403,-0.0330488225883403
69.807,0.011228146088346547,0.011228146088346547
69.808,0.06079639366024292,0.06079639366024292
69.80900000000001,0.10479820023158304,0.10479820023158304
69.81,0.13423628769880902,0.13423628769880902
69.811,0.14457353715030186,0.14457353715030186
69.81200000000001,0.13702566317039833,0.13702566317039833
69.813,0.11807094600841683,0.11807094600841683
69.81400000000001,0.09726629091756411,0.09726629091756411
69.81500000000001,0.08402257825401827,0.08402257825401827
69.816,0.08436402462996129,0.08436402462996129
69.81700000000001,0.09874280765907573,0.09874280765907573
69.81800000000001,0.1216729229507576,0.1216729229507576
69.819,0.14337543218616,0.14337543218616
69.82000000000001,0.1529715742780755,0.1529715742780755
69.82100000000001,0.14223456899562348,0.14223456899562348
69.822,0.10869195923072317,0.10869195923072317
69.82300000000001,0.057037859257235146,0.057037859257235146
69.82400000000001,0.0016766349116518198,-0.0016766349116518198
69.825,0.0529136339626356,-0.0529136339626356
69.82600000000001,0.08276034012135469,-0.08276034012135469
69.82700000000001,0.08205213375375053,-0.08205213375375053
69.828,0.04924462485665271,-0.04924462485665271
69.82900000000001,0.00886602109500867,0.00886602109500867
69.83000000000001,0.07883155031686528,0.07883155031686528
69.831,0.14418020360259942,0.14418020360259942
69.83200000000001,0.1899334903245773,0.1899334903245773
69.83300000000001,0.20669659536565455,0.20669659536565455
69.834,0.19314223877358883,0.19314223877358883
69.83500000000001,0.156191995110615,0.156191995110615
69.83600000000001,0.10887990211411158,0.10887990211411158
69.837,0.06655189579110043,0.06655189579110043
69.83800000000001,0.042512964222364946,0.042512964222364946
69.83900000000001,0.04435448677964038,0.04435448677964038
69.84,0.07195613093825548,0.07195613093825548
69.84100000000001,0.11764664885809806,0.11764664885809806
69.84200000000001,0.16838819179720188,0.16838819179720188
69.843,0.2093037190383884,0.2093037190383884
69.84400000000001,0.22754658538332184,0.22754658538332184
69.84500000000001,0.21548875070736906,0.21548875070736906
69.846,0.1724605436614226,0.1724605436614226
69.84700000000001,0.10471356402417431,0.10471356402417431
69.84800000000001,0.023760111485276125,0.023760111485276125
69.849,0.05636832966869432,-0.05636832966869432
69.85000000000001,0.1221978378266606,-0.1221978378266606
69.85100000000001,0.16349008915669505,-0.16349008915669505
69.852,0.17497960828996661,-0.17497960828996661
69.85300000000001,0.15692120614993788,-0.15692120614993788
69.854,0.11449995680643654,-0.11449995680643654
69.855,0.056388537018690066,-0.056388537018690066
69.85600000000001,0.007141893498537,0.007141893498537
69.857,0.0661432714486867,0.0661432714486867
69.858,0.11260787390036975,0.11260787390036975
69.85900000000001,0.14156412689724607,0.14156412689724607
69.86,0.1515569037174953,0.1515569037174953
69.861,0.14452032408243465,0.14452032408243465
69.86200000000001,0.125125418847291,0.125125418847291
69.863,0.09973695527057735,0.09973695527057735
69.864,0.07515138772208307,0.07515138772208307
69.86500000000001,0.05731425846858884,0.05731425846858884
69.866,0.050225117220364934,0.050225117220364934
69.867,0.055220618750126516,0.055220618750126516
69.86800000000001,0.07077327612521689,0.07077327612521689
69.869,0.09285510407808073,0.09285510407808073
69.87,0.11580585769172425,0.11580585769172425
69.87100000000001,0.13353943749503094,0.13353943749503094
69.872,0.14084733407546524,0.14084733407546524
69.873,0.13453617752010127,0.13453617752010127
69.87400000000001,0.11417423623414091,0.11417423623414091
69.875,0.08230815510629585,0.08230815510629585
69.876,0.04412159140841898,0.04412159140841898
69.87700000000001,0.006612125623987053,0.006612125623987053
69.878,0.022561994088889592,-0.022561994088889592
69.879,0.036378583962243694,-0.036378583962243694
69.88000000000001,0.02970539052241805,-0.02970539052241805
69.881,0.00034576067214386885,-0.00034576067214386885
69.882,0.05026349691452947,0.05026349691452947
69.88300000000001,0.11681929004531133,0.11681929004531133
69.884,0.19047810420314693,0.19047810420314693
69.885,0.25979461462446096,0.25979461462446096
69.88600000000001,0.31225534405108046,0.31225534405108046
69.887,0.33627971907427834,0.33627971907427834
69.888,0.32342617370782323,0.32342617370782323
69.88900000000001,0.2704159328319349,0.2704159328319349
69.89,0.1805191820391705,0.1805191820391705
69.891,0.06388164791709072,0.06388164791709072
69.89200000000001,0.06347384946625667,-0.06347384946625667
69.893,0.18197109345795548,-0.18197109345795548
69.894,0.27181002656084297,-0.27181002656084297
69.89500000000001,0.3166918462809618,-0.3166918462809618
69.896,0.30715582981420386,-0.30715582981420386
69.897,0.24275394692776708,-0.24275394692776708
69.89800000000001,0.13250131471418602,-0.13250131471418602
69.899,0.006584959453896255,0.006584959453896255
69.9,0.15260002251162796,0.15260002251162796
69.90100000000001,0.2828607123027307,0.2828607123027307
69.902,0.3781100596422773,0.3781100596422773
69.903,0.42590059439010264,0.42590059439010264
69.90400000000001,0.4224554051659608,0.4224554051659608
69.905,0.3726914515959663,0.3726914515959663
69.906,0.2885365779899214,0.2885365779899214
69.90700000000001,0.186056655800104,0.186056655800104
69.908,0.08213223289639382,0.08213223289639382
69.909,0.00856216441423352,-0.00856216441423352
69.91000000000001,0.07570083476992395,-0.07570083476992395
69.911,0.11429355213576742,-0.11429355213576742
69.912,0.12455330240261331,-0.12455330240261331
69.91300000000001,0.11092264800745333,-0.11092264800745333
69.914,0.08064477696323269,-0.08064477696323269
69.915,0.04223785120297219,-0.04223785120297219
69.91600000000001,0.004111704460303067,-0.004111704460303067
69.917,0.026575585883754194,0.026575585883754194
69.918,0.04482087797111234,0.04482087797111234
69.91900000000001,0.04845565989788514,0.04845565989788514
69.92,0.0385644791638422,0.0385644791638422
69.921,0.019524975566368674,0.019524975566368674
69.92200000000001,0.0014882185386071445,-0.0014882185386071445
69.923,0.0156447255820944,-0.0156447255820944
69.924,0.014203665417744427,-0.014203665417744427
69.92500000000001,0.00939289854259373,0.00939289854259373
69.926,0.05753660074397304,0.05753660074397304
69.927,0.12713903073798227,0.12713903073798227
69.92800000000001,0.20948078833863182,0.20948078833863182
69.929,0.2914692825736809,0.2914692825736809
69.93,0.3581757124279772,0.3581757124279772
69.93100000000001,0.39612556289410117,0.39612556289410117
69.932,0.3965303504346669,0.3965303504346669
69.933,0.3575796420668813,0.3575796420668813
69.93400000000001,0.2851077518997065,0.2851077518997065
69.935,0.19137108787250012,0.19137108787250012
69.936,0.0922036792170482,0.0922036792170482
69.93700000000001,0.0032988336126176243,0.0032988336126176243
69.938,0.06336084584559198,-0.06336084584559198
69.93900000000001,0.10193146094896954,-0.10193146094896954
69.94000000000001,0.11333489191402013,-0.11333489191402013
69.941,0.10397075531424149,-0.10397075531424149
69.94200000000001,0.08298610211636748,-0.08298610211636748
69.94300000000001,0.059017997920791654,-0.059017997920791654
69.944,0.03747630662340806,-0.03747630662340806
69.94500000000001,0.01924163251866562,-0.01924163251866562
69.94600000000001,0.0011735245427620944,-0.0011735245427620944
69.947,0.02179053156109867,0.02179053156109867
69.94800000000001,0.0537136088715815,0.0537136088715815
69.94900000000001,0.09498337220800845,0.09498337220800845
69.95,0.1408953089228968,0.1408953089228968
69.95100000000001,0.1821097033920449,0.1821097033920449
69.95200000000001,0.2069765262970522,0.2069765262970522
69.953,0.20508016559502673,0.20508016559502673
69.95400000000001,0.17090331527231473,0.17090331527231473
69.95500000000001,0.10640098891776373,0.10640098891776373
69.956,0.02155767405357989,0.02155767405357989
69.95700000000001,0.06740636939469125,-0.06740636939469125
69.95800000000001,0.14179133556450496,-0.14179133556450496
69.959,0.18512348763986364,-0.18512348763986364
69.96000000000001,0.18746967055081065,-0.18746967055081065
69.96100000000001,0.14809902087374682,-0.14809902087374682
69.962,0.07569695756770656,-0.07569695756770656
69.96300000000001,0.013948979026933372,0.013948979026933372
69.96400000000001,0.10212846717022206,0.10212846717022206
69.965,0.1720461564103246,0.1720461564103246
69.96600000000001,0.21293331082719935,0.21293331082719935
69.96700000000001,0.22228932209877583,0.22228932209877583
69.968,0.20569000829033657,0.20569000829033657
69.96900000000001,0.1743383903296849,0.1743383903296849
69.97000000000001,0.1412009642586014,0.1412009642586014
69.971,0.11696460464537428,0.11696460464537428
69.97200000000001,0.10705129321537576,0.10705129321537576
69.97300000000001,0.11054852475948151,0.11054852475948151
69.974,0.12127991830653673,0.12127991830653673
69.97500000000001,0.13055738910430725,0.13055738910430725
69.97600000000001,0.13063855946338943,0.13063855946338943
69.977,0.11771955433405501,0.11771955433405501
69.97800000000001,0.09347708817531353,0.09347708817531353
69.979,0.06466782130671334,0.06466782130671334
69.98,0.040933801376772605,0.040933801376772605
69.98100000000001,0.031543906965484814,0.031543906965484814
69.982,0.04213924616095466,0.04213924616095466
69.983,0.07254276682933125,0.07254276682933125
69.98400000000001,0.11634872674520236,0.11634872674520236
69.985,0.16244137187446128,0.16244137187446128
69.986,0.19798713010764435,0.19798713010764435
69.98700000000001,0.2119921911503191,0.2119921911503191
69.988,0.19835649268515065,0.19835649268515065
69.989,0.15752962139633797,0.15752962139633797
69.99000000000001,0.09632078306614167,0.09632078306614167
69.991,0.025986231382818525,0.025986231382818525
69.992,0.040769650375418354,-0.040769650375418354
69.99300000000001,0.09294835196753493,-0.09294835196753493
69.994,0.12364303542712562,-0.12364303542712562
69.995,0.1310297225557424,-0.1310297225557424
69.99600000000001,0.11781674697306865,-0.11781674697306865
69.997,0.08950492693790024,-0.08950492693790024
69.998,0.05216708705548667,-0.05216708705548667
69.99900000000001,0.010556521840341615,-0.010556521840341615
70.0,0.03282455121942918,0.03282455121942918
70.001,0.07745404176897974,0.07745404176897974
70.00200000000001,0.12353389754170219,0.12353389754170219
70.003,0.17033683659839638,0.17033683659839638
70.004,0.2148967795652097,0.2148967795652097
70.00500000000001,0.2516658741643354,0.2516658741643354
70.006,0.27341189885773654,0.27341189885773654
70.007,0.2731691136185017,0.2731691136185017
70.00800000000001,0.2466425355683859,0.2466425355683859
70.009,0.19424565746087552,0.19424565746087552
70.01,0.12200729192960402,0.12200729192960402
70.01100000000001,0.04090532816044634,0.04090532816044634
70.012,0.035325538177499505,-0.035325538177499505
70.013,0.09336634300224844,-0.09336634300224844
70.01400000000001,0.123577572922281,-0.123577572922281
70.015,0.1223944116693021,-0.1223944116693021
70.016,0.09312653307968033,-0.09312653307968033
70.01700000000001,0.04490354748664793,-0.04490354748664793
70.018,0.009934649102573578,0.009934649102573578
70.019,0.05923166543128211,0.05923166543128211
70.02000000000001,0.09418689887840714,0.09418689887840714
70.021,0.11137863708969542,0.11137863708969542
70.022,0.11307668879402755,0.11307668879402755
70.02300000000001,0.10582139712060967,0.10582139712060967
70.024,0.0977842504617581,0.0977842504617581
70.025,0.09579291191143335,0.09579291191143335
70.02600000000001,0.1029851377618145,0.1029851377618145
70.027,0.1178292725607899,0.1178292725607899
70.028,0.1347906854673917,0.1347906854673917
70.02900000000001,0.14638419046094664,0.14638419046094664
70.03,0.14590686608446957,0.14590686608446957
70.031,0.1299357149503153,0.1299357149503153
70.03200000000001,0.09976390867658957,0.09976390867658957
70.033,0.06130379777004258,0.06130379777004258
70.034,0.02348523357943355,0.02348523357943355
70.03500000000001,0.004339890108161049,-0.004339890108161049
70.036,0.015166137670554414,-0.015166137670554414
70.037,0.0064131778893766755,-0.0064131778893766755
70.03800000000001,0.01931643495915014,0.01931643495915014
70.039,0.05500741220597494,0.05500741220597494
70.04,0.09126188260134471,0.09126188260134471
70.04100000000001,0.11894779633462482,0.11894779633462482
70.042,0.13166481308708256,0.13166481308708256
70.043,0.1273223643462431,0.1273223643462431
70.04400000000001,0.10843071787863567,0.10843071787863567
70.045,0.0811138349515772,0.0811138349515772
70.046,0.05322776587998268,0.05322776587998268
70.04700000000001,0.03219515935485151,0.03219515935485151
70.048,0.023186348733393425,0.023186348733393425
70.049,0.028103436866836473,0.028103436866836473
70.05000000000001,0.04553096977534965,0.04553096977534965
70.051,0.07151224429136027,0.07151224429136027
70.052,0.10079401982068692,0.10079401982068692
70.05300000000001,0.128113598248081,0.128113598248081
70.054,0.14918251109814018,0.14918251109814018
70.055,0.16119945473910535,0.16119945473910535
70.05600000000001,0.16292175965461841,0.16292175965461841
70.057,0.15446318876156728,0.15446318876156728
70.058,0.13702200150610566,0.13702200150610566
70.05900000000001,0.11267920389074848,0.11267920389074848
70.06,0.08428662890386307,0.08428662890386307
70.061,0.05535252249193778,0.05535252249193778
70.06200000000001,0.029785519612594236,0.029785519612594236
70.063,0.011401292916176198,0.011401292916176198
70.06400000000001,0.0032125143258017186,0.0032125143258017186
70.06500000000001,0.006660016613266206,0.006660016613266206
70.066,0.021036303404791123,0.021036303404791123
70.06700000000001,0.043351863757897346,0.043351863757897346
70.06800000000001,0.06878716378850047,0.06878716378850047
70.069,0.09169023298589019,0.09169023298589019
70.07000000000001,0.10688680592915123,0.10688680592915123
70.07100000000001,0.11094141317051909,0.11094141317051909
70.072,0.10299758839585382,0.10299758839585382
70.07300000000001,0.08494453349404707,0.08494453349404707
70.07400000000001,0.0608680724601709,0.0608680724601709
70.075,0.03597123896002774,0.03597123896002774
70.07600000000001,0.015311537110250129,0.015311537110250129
70.07700000000001,0.0027383121151840495,0.0027383121151840495
70.078,0.000312392884213919,0.000312392884213919
70.07900000000001,0.00829188364974387,0.00829188364974387
70.08000000000001,0.02555156724618235,0.02555156724618235
70.081,0.05015551644156013,0.05015551644156013
70.08200000000001,0.07978311045771869,0.07978311045771869
70.08300000000001,0.11182575440143605,0.11182575440143605
70.084,0.14317604415286822,0.14317604415286822
70.08500000000001,0.1699341183243368,0.1699341183243368
70.08600000000001,0.18736362936224804,0.18736362936224804
70.087,0.1903819280671939,0.1903819280671939
70.08800000000001,0.17466680527699596,0.17466680527699596
70.08900000000001,0.13817288187572863,0.13817288187572863
70.09,0.08258691382905714,0.08258691382905714
70.09100000000001,0.014129328971010047,0.014129328971010047
70.09200000000001,0.05679645588118243,-0.05679645588118243
70.093,0.11729659950047233,-0.11729659950047233
70.09400000000001,0.1547726447756046,-0.1547726447756046
70.09500000000001,0.16012892182235572,-0.16012892182235572
70.096,0.13047846824721565,-0.13047846824721565
70.09700000000001,0.07045571717478416,-0.07045571717478416
70.09800000000001,0.008420289920814339,0.008420289920814339
70.099,0.09033249635287666,0.09033249635287666
70.10000000000001,0.15909394421991707,0.15909394421991707
70.10100000000001,0.2023468460093807,0.2023468460093807
70.102,0.21480954960336085,0.21480954960336085
70.10300000000001,0.1995751165697386,0.1995751165697386
70.104,0.16701811807388411,0.16701811807388411
70.105,0.13158154317198734,0.13158154317198734
70.10600000000001,0.10736972234693254,0.10736972234693254
70.107,0.10385492248696249,0.10385492248696249
70.108,0.12298704208998679,0.12298704208998679
70.10900000000001,0.15857725341692763,0.15857725341692763
70.11,0.19813655428813504,0.19813655428813504
70.111,0.22660618930667709,0.22660618930667709
70.11200000000001,0.2308530378190008,0.2308530378190008
70.113,0.20359385246378925,0.20359385246378925
70.114,0.14561590019714754,0.14561590019714754
70.11500000000001,0.06570292150284729,0.06570292150284729
70.116,0.02162654881688808,-0.02162654881688808
70.117,0.09983082977481283,-0.09983082977481283
70.11800000000001,0.15439831646727542,-0.15439831646727542
70.119,0.1761216250794171,-0.1761216250794171
70.12,0.16279511566957605,-0.16279511566957605
70.12100000000001,0.119066682841525,-0.119066682841525
70.122,0.054722104565713914,-0.054722104565713914
70.123,0.017928846144031008,0.017928846144031008
70.12400000000001,0.08676606695537581,0.08676606695537581
70.125,0.14201076571733684,0.14201076571733684
70.126,0.1774669097261845,0.1774669097261845
70.12700000000001,0.19085419023907635,0.19085419023907635
70.128,0.1834855931547208,0.1834855931547208
70.129,0.15961853149596528,0.15961853149596528
70.13000000000001,0.12571521616108816,0.12571521616108816
70.131,0.08966599207405634,0.08966599207405634
70.132,0.05987370613339338,0.05987370613339338
70.13300000000001,0.04406404221061444,0.04406404221061444
70.134,0.04780896058390627,0.04780896058390627
70.135,0.07297979587894288,0.07297979587894288
70.13600000000001,0.1165718504200508,0.1165718504200508
70.137,0.17043553078895957,0.17043553078895957
70.138,0.2223229943175904,0.2223229943175904
70.13900000000001,0.25831195653627903,0.25831195653627903
70.14,0.2661954933219872,0.2661954933219872
70.141,0.23899448135328494,0.23899448135328494
70.14200000000001,0.17753524965644818,0.17753524965644818
70.143,0.09115818924425168,0.09115818924425168
70.144,0.0039095084822236,-0.0039095084822236
70.14500000000001,0.0882927748366914,-0.0882927748366914
70.146,0.14439690398730864,-0.14439690398730864
70.147,0.16113932235386863,-0.16113932235386863
70.14800000000001,0.13705156236528082,-0.13705156236528082
70.149,0.08073690147354728,-0.08073690147354728
70.15,0.008446138642140277,-0.008446138642140277
70.15100000000001,0.06056983408853278,0.06056983408853278
70.152,0.10955060178046439,0.10955060178046439
70.153,0.12888235099092937,0.12888235099092937
70.15400000000001,0.11848367948511318,0.11848367948511318
70.155,0.08720200506282905,0.08720200506282905
70.156,0.04946501052579344,0.04946501052579344
70.15700000000001,0.020322877849237697,0.020322877849237697
70.158,0.010534321390511359,0.010534321390511359
70.159,0.02331287701274687,0.02331287701274687
70.16000000000001,0.05376706748773907,0.05376706748773907
70.161,0.09113501443615601,0.09113501443615601
70.162,0.12295068938910236,0.12295068938910236
70.16300000000001,0.13961950020400038,0.13961950020400038
70.164,0.1377571485494815,0.1377571485494815
70.165,0.12110427917709843,0.12110427917709843
70.16600000000001,0.09871253040450445,0.09871253040450445
70.167,0.08109536052936095,0.08109536052936095
70.168,0.07579460692268092,0.07579460692268092
70.16900000000001,0.08405592516980698,0.08405592516980698
70.17,0.09993624281474056,0.09993624281474056
70.171,0.11230326476479036,0.11230326476479036
70.17200000000001,0.10912798707458538,0.10912798707458538
70.173,0.08258985635610916,0.08258985635610916
70.174,0.03313088524342267,0.03313088524342267
70.17500000000001,0.029137328465731582,-0.029137328465731582
70.176,0.08642265962892859,-0.08642265962892859
70.177,0.118235973500175,-0.118235973500175
70.17800000000001,0.10790208192654005,-0.10790208192654005
70.179,0.04852030520864714,-0.04852030520864714
70.18,0.053636723517639595,0.053636723517639595
70.18100000000001,0.1795562597427771,0.1795562597427771
70.182,0.30183545897751296,0.30183545897751296
70.183,0.39178601806954383,0.39178601806954383
70.18400000000001,0.42723061859606193,0.42723061859606193
70.185,0.3986707406745189,0.3986707406745189
70.186,0.3119775631828321,0.3119775631828321
70.18700000000001,0.1868081866213085,0.1868081866213085
70.188,0.051240487280540314,0.051240487280540314
70.18900000000001,0.06575958210507826,-0.06575958210507826
70.19000000000001,0.1418231635496615,-0.1418231635496615
70.191,0.1664928877524391,-0.1664928877524391
70.19200000000001,0.14297540375573392,-0.14297540375573392
70.19300000000001,0.08605864024545462,-0.08605864024545462
70.194,0.017057285718118154,-0.017057285718118154
70.19500000000001,0.04254779531276287,0.04254779531276287
70.19600000000001,0.07686984669198305,0.07686984669198305
70.197,0.07922383559818025,0.07922383559818025
70.19800000000001,0.05281797039837399,0.05281797039837399
70.19900000000001,0.008702627982273725,0.008702627982273725
70.2,0.03807489461041069,-0.03807489461041069
70.20100000000001,0.07277647073797022,-0.07277647073797022
70.20200000000001,0.08448796980675022,-0.08448796980675022
70.203,0.06805010367959274,-0.06805010367959274
70.20400000000001,0.02424380858911146,-0.02424380858911146
70.20500000000001,0.04136901982595553,0.04136901982595553
70.206,0.12024093410071246,0.12024093410071246
70.20700000000001,0.20257724885591233,0.20257724885591233
70.20800000000001,0.27859932010625976,0.27859932010625976
70.209,0.3392926497465787,0.3392926497465787
70.21000000000001,0.3768983735112532,0.3768983735112532
70.21100000000001,0.3854961864174551,0.3854961864174551
70.212,0.36187957724129993,0.36187957724129993
70.21300000000001,0.3066230108458474,0.3066230108458474
70.21400000000001,0.22494022692881832,0.22494022692881832
70.215,0.12679275558862813,0.12679275558862813
70.21600000000001,0.02582301456269498,0.02582301456269498
70.21700000000001,0.06295659401155151,-0.06295659401155151
70.218,0.12631049029039942,-0.12631049029039942
70.21900000000001,0.15594465519616074,-0.15594465519616074
70.22000000000001,0.15070662995817885,-0.15070662995817885
70.221,0.11701628487562887,-0.11701628487562887
70.22200000000001,0.06721645947062882,-0.06721645947062882
70.22300000000001,0.016190838766651394,-0.016190838766651394
70.224,0.022805385484963914,0.022805385484963914
70.22500000000001,0.04183739721054991,0.04183739721054991
70.22600000000001,0.040332283503860866,0.040332283503860866
70.227,0.024791914485660316,0.024791914485660316
70.22800000000001,0.006244700503098999,0.006244700503098999
70.229,0.003746078057424551,-0.003746078057424551
70.23,0.002797011141986161,0.002797011141986161
70.23100000000001,0.027395281817276462,0.027395281817276462
70.232,0.06447364243444231,0.06447364243444231
70.233,0.10319110364522732,0.10319110364522732
70.23400000000001,0.1311508683680429,0.1311508683680429
70.235,0.13875507305019696,0.13875507305019696
70.236,0.1227347906674412,0.1227347906674412
70.23700000000001,0.08764431336004819,0.08764431336004819
70.238,0.04477649235301362,0.04477649235301362
70.239,0.008810162946898181,0.008810162946898181
70.24000000000001,0.006745019535029595,-0.006745019535029595
70.241,0.006160844798155152,0.006160844798155152
70.242,0.047475523486546045,0.047475523486546045
70.24300000000001,0.10889588651964166,0.10889588651964166
70.244,0.1762479679281248,0.1762479679281248
70.245,0.2336199481710397,0.2336199481710397
70.24600000000001,0.267927165572152,0.267927165572152
70.247,0.2724829308796419,0.2724829308796419
70.248,0.24850708539649324,0.24850708539649324
70.24900000000001,0.20419574140098606,0.20419574140098606
70.25,0.15176394235338608,0.15176394235338608
70.251,0.10349728242548939,0.10349728242548939
70.25200000000001,0.06811146064862705,0.06811146064862705
70.253,0.048549777932462845,0.048549777932462845
70.254,0.04182250819808675,0.04182250819808675
70.25500000000001,0.04079801671586103,0.04079801671586103
70.256,0.03722890258527367,0.03722890258527367
70.257,0.02493859338872806,0.02493859338872806
70.25800000000001,0.002106689746989243,0.002106689746989243
70.259,0.028050950810747044,-0.028050950810747044
70.26,0.058346816272233704,-0.058346816272233704
70.26100000000001,0.07999645180719162,-0.07999645180719162
70.262,0.0854729988328422,-0.0854729988328422
70.263,0.07091015431493641,-0.07091015431493641
70.26400000000001,0.03732680837308866,-0.03732680837308866
70.265,0.009632829251793762,0.009632829251793762
70.266,0.06126676696844058,0.06126676696844058
70.26700000000001,0.10812890499444627,0.10812890499444627
70.268,0.1423552159397823,0.1423552159397823
70.269,0.15934312342188472,0.15934312342188472
70.27000000000001,0.15839531971647025,0.15839531971647025
70.271,0.14229694396101533,0.14229694396101533
70.272,0.11611450524349043,0.11611450524349043
70.27300000000001,0.08568842115271846,0.08568842115271846
70.274,0.056298114420693546,0.056298114420693546
70.275,0.03183288692927899,0.03183288692927899
70.27600000000001,0.014574785140626378,0.014574785140626378
70.277,0.005479955833027628,0.005479955833027628
70.278,0.004705288591479562,0.004705288591479562
70.27900000000001,0.012101324576344163,0.012101324576344163
70.28,0.02746944061136425,0.02746944061136425
70.281,0.05051612609765477,0.05051612609765477
70.28200000000001,0.08057222160253286,0.08057222160253286
70.283,0.11623302327127738,0.11623302327127738
70.284,0.15509440115022777,0.15509440115022777
70.28500000000001,0.19371724355038467,0.19371724355038467
70.286,0.22787438987673814,0.22787438987673814
70.287,0.25305296837161806,0.25305296837161806
70.28800000000001,0.26512469055057974,0.26512469055057974
70.289,0.26106584804583965,0.26106584804583965
70.29,0.23960248130397654,0.23960248130397654
70.29100000000001,0.20166373857808684,0.20166373857808684
70.292,0.15054081101225614,0.15054081101225614
70.293,0.09167204675669915,0.09167204675669915
70.29400000000001,0.032016258445448864,0.032016258445448864
70.295,0.02095550205281793,-0.02095550205281793
70.296,0.06052635859793365,-0.06052635859793365
70.29700000000001,0.0820359525081007,-0.0820359525081007
70.298,0.08392553516460166,-0.08392553516460166
70.299,0.06822738322897992,-0.06822738322897992
70.30000000000001,0.04028538898393785,-0.04028538898393785
70.301,0.007666401560650016,-0.007666401560650016
70.302,0.021555429870163012,0.021555429870163012
70.30300000000001,0.040751438249598815,0.040751438249598815
70.304,0.046418783941424735,0.046418783941424735
70.305,0.03910147445640333,0.03910147445640333
70.30600000000001,0.023242869118811127,0.023242869118811127
70.307,0.005953450418757944,0.005953450418757944
70.308,0.004998528344768216,-0.004998528344768216
70.30900000000001,0.003415030840616229,-0.003415030840616229
70.31,0.013533374850660973,0.013533374850660973
70.311,0.04447556404965036,0.04447556404965036
70.31200000000001,0.08422453967528809,0.08422453967528809
70.313,0.12525424460936874,0.12525424460936874
70.31400000000001,0.15980263009363904,0.15980263009363904
70.31500000000001,0.18194196874837854,0.18194196874837854
70.316,0.1889802622856045,0.1889802622856045
70.31700000000001,0.1817915472252578,0.1817915472252578
70.31800000000001,0.16403970639872778,0.16403970639872778
70.319,0.14063403349400438,0.14063403349400438
70.32000000000001,0.11600497297658063,0.11600497297658063
70.32100000000001,0.09282688544272277,0.09282688544272277
70.322,0.07162752808335804,0.07162752808335804
70.32300000000001,0.05137818903235147,0.05137818903235147
70.32400000000001,0.03077924920156816,0.03077924920156816
70.325,0.009682490305267466,0.009682490305267466
70.32600000000001,0.009973458420314829,-0.009973458420314829
70.32700000000001,0.024166177184382742,-0.024166177184382742
70.328,0.027831797342050657,-0.027831797342050657
70.32900000000001,0.016642761728263955,-0.016642761728263955
70.33000000000001,0.011093116116275725,0.011093116116275725
70.331,0.05312438208706083,0.05312438208706083
70.33200000000001,0.10309211942816532,0.10309211942816532
70.33300000000001,0.15169675303753483,0.15169675303753483
70.334,0.1889289619383363,0.1889289619383363
70.33500000000001,0.20671781334567108,0.20671781334567108
70.33600000000001,0.20117687069641588,0.20117687069641588
70.337,0.1737299034444959,0.1737299034444959
70.33800000000001,0.13074263959399657,0.13074263959399657
70.33900000000001,0.08176120899861439,0.08176120899861439
70.34,0.036901316928142025,0.036901316928142025
70.34100000000001,0.004194804833691945,0.004194804833691945
70.34200000000001,0.012305229089756842,-0.012305229089756842
70.343,0.013127662335032153,-0.013127662335032153
70.34400000000001,0.002596884698748525,-0.002596884698748525
70.34500000000001,0.01299075758001167,0.01299075758001167
70.346,0.027562025249062927,0.027562025249062927
70.34700000000001,0.03709398147304932,0.03709398147304932
70.34800000000001,0.040514592289139895,0.040514592289139895
70.349,0.03947884509693855,0.03947884509693855
70.35000000000001,0.03722853313430963,0.03722853313430963
70.35100000000001,0.037049203227173866,0.037049203227173866
70.352,0.04093829663101012,0.04093829663101012
70.35300000000001,0.04896815558589318,0.04896815558589318
70.354,0.05952541216509033,0.05952541216509033
70.355,0.0702544404463048,0.0702544404463048
70.35600000000001,0.07926222784720749,0.07926222784720749
70.357,0.08605496832064019,0.08605496832064019
70.358,0.09180089253463874,0.09180089253463874
70.35900000000001,0.09879658550710602,0.09879658550710602
70.36,0.10934313720373079,0.10934313720373079
70.361,0.12448558741016003,0.12448558741016003
70.36200000000001,0.14313851321320947,0.14313851321320947
70.363,0.16198509621166357,0.16198509621166357
70.364,0.17624786287775018,0.17624786287775018
70.36500000000001,0.1810964440065499,0.1810964440065499
70.366,0.17320794932558803,0.17320794932558803
70.367,0.15192456964897239,0.15192456964897239
70.36800000000001,0.11958916834076505,0.11958916834076505
70.369,0.08093318774491975,0.08093318774491975
70.37,0.04173297202628712,0.04173297202628712
70.37100000000001,0.007212883088427047,0.007212883088427047
70.372,0.01924189073246818,-0.01924189073246818
70.373,0.03662496561666806,-0.03662496561666806
70.37400000000001,0.04595076554709432,-0.04595076554709432
70.375,0.04919130424743323,-0.04919130424743323
70.376,0.047968190909027264,-0.047968190909027264
70.37700000000001,0.042552089670675364,-0.042552089670675364
70.378,0.031601167024349675,-0.031601167024349675
70.379,0.012780250183356934,-0.012780250183356934
70.38000000000001,0.015949139536713286,0.015949139536713286
70.381,0.05485913044366164,0.05485913044366164
70.382,0.10140113339324541,0.10140113339324541
70.38300000000001,0.15004433094347447,0.15004433094347447
70.384,0.19318390523149365,0.19318390523149365
70.385,0.22291731674990545,0.22291731674990545
70.38600000000001,0.233165726165399,0.233165726165399
70.387,0.22146985000718122,0.22146985000718122
70.388,0.18987007699073688,0.18987007699073688
70.38900000000001,0.14456358309361916,0.14456358309361916
70.39,0.09441920608871035,0.09441920608871035
70.391,0.04879059010101239,0.04879059010101239
70.39200000000001,0.0152778536401037,0.0152778536401037
70.393,0.0019194253801777528,-0.0019194253801777528
70.394,0.002629889232359739,-0.002629889232359739
70.39500000000001,0.009768547468707034,0.009768547468707034
70.396,0.029676576147432243,0.029676576147432243
70.397,0.05096058315162333,0.05096058315162333
70.39800000000001,0.06846119897203073,0.06846119897203073
70.399,0.07892285757849837,0.07892285757849837
70.4,0.08120109158844535,0.08120109158844535
70.40100000000001,0.07587655352894407,0.07587655352894407
70.402,0.06458906922248797,0.06458906922248797
70.403,0.049439026125390084,0.049439026125390084
70.40400000000001,0.03268748100975527,0.03268748100975527
70.405,0.01678100763719126,0.01678100763719126
70.406,0.004527071911335945,0.004527071911335945
70.40700000000001,0.0008595002594965484,-0.0008595002594965484
70.408,0.003920138756358105,0.003920138756358105
70.409,0.021484812697279754,0.021484812697279754
70.41000000000001,0.05273012321954407,0.05273012321954407
70.411,0.0958637959703319,0.0958637959703319
70.412,0.14594773115472348,0.14594773115472348
70.41300000000001,0.19527603912973723,0.19527603912973723
70.414,0.2346714529141556,0.2346714529141556
70.415,0.2554685311971727,0.2554685311971727
70.41600000000001,0.25168302160173384,0.25168302160173384
70.417,0.22174465980117586,0.22174465980117586
70.418,0.16924911809045917,0.16924911809045917
70.41900000000001,0.10244766286900941,0.10244766286900941
70.42,0.032558531469859764,0.032558531469859764
70.421,0.028667291758190494,-0.028667291758190494
70.42200000000001,0.07147632998123354,-0.07147632998123354
70.423,0.0900743233444189,-0.0900743233444189
70.424,0.0835426636397757,-0.0835426636397757
70.42500000000001,0.05555609027988684,-0.05555609027988684
70.426,0.013096222037480731,-0.013096222037480731
70.427,0.03538547871666986,0.03538547871666986
70.42800000000001,0.08180859221323367,0.08180859221323367
70.429,0.11984918413870949,0.11984918413870949
70.43,0.1456291757789161,0.1456291757789161
70.43100000000001,0.15772754003901523,0.15772754003901523
70.432,0.15673266820243503,0.15673266820243503
70.433,0.14463396953761687,0.14463396953761687
70.43400000000001,0.1242955115421891,0.1242955115421891
70.435,0.09910925114469649,0.09910925114469649
70.436,0.07276810140985268,0.07276810140985268
70.43700000000001,0.04900731938873992,0.04900731938873992
70.438,0.031180283930417163,0.031180283930417163
70.43900000000001,0.021652745663185424,0.021652745663185424
70.44000000000001,0.02115991916713389,0.02115991916713389
70.441,0.028390661099761516,0.028390661099761516
70.44200000000001,0.04007140495036987,0.04007140495036987
70.44300000000001,0.05169309250260712,0.05169309250260712
70.444,0.05879112369003159,0.05879112369003159
70.44500000000001,0.05843713756323887,0.05843713756323887
70.44600000000001,0.05043850195250954,0.05043850195250954
70.447,0.03775096456270988,0.03775096456270988
70.44800000000001,0.025816883350117115,0.025816883350117115
70.44900000000001,0.020894501460919868,0.020894501460919868
70.45,0.027827256495134733,0.027827256495134733
70.45100000000001,0.04797437333425769,0.04797437333425769
70.45200000000001,0.07806878919415161,0.07806878919415161
70.453,0.11054162461882555,0.11054162461882555
70.45400000000001,0.13540511419574375,0.13540511419574375
70.45500000000001,0.14325447074894537,0.14325447074894537
70.456,0.12851283693757587,0.12851283693757587
70.45700000000001,0.09186359156927604,0.09186359156927604
70.45800000000001,0.04097557133908247,0.04097557133908247
70.459,0.010897730947099116,-0.010897730947099116
70.46000000000001,0.04821079559604591,-0.04821079559604591
70.46100000000001,0.05745120310778251,-0.05745120310778251
70.462,0.031248975530322798,-0.031248975530322798
70.46300000000001,0.028990647416890836,0.028990647416890836
70.46400000000001,0.11280557077134512,0.11280557077134512
70.465,0.20294369500105303,0.20294369500105303
70.46600000000001,0.27961342514804377,0.27961342514804377
70.46700000000001,0.32554494433499737,0.32554494433499737
70.468,0.3304297261516216,0.3304297261516216
70.46900000000001,0.2934799779407544,0.2934799779407544
70.47000000000001,0.22340546083908874,0.22340546083908874
70.471,0.13586879961310916,0.13586879961310916
70.47200000000001,0.04921337737682552,0.04921337737682552
70.47300000000001,0.02026591457933824,-0.02026591457933824
70.474,0.0621603677254311,-0.0621603677254311
70.47500000000001,0.07387606638056421,-0.07387606638056421
70.47600000000001,0.0602586438898981,-0.0602586438898981
70.477,0.031227425448083768,-0.031227425448083768
70.47800000000001,0.0016995929939911392,0.0016995929939911392
70.479,0.02885039221483332,0.02885039221483332
70.48,0.04478825400175146,0.04478825400175146
70.48100000000001,0.049047373742080014,0.049047373742080014
70.482,0.04519681122695651,0.04519681122695651
70.483,0.03875065402910316,0.03875065402910316
70.48400000000001,0.034762329430316985,0.034762329430316985
70.485,0.03595671014088331,0.03595671014088331
70.486,0.0419836133231668,0.0419836133231668
70.48700000000001,0.04993343631170921,0.04993343631170921
70.488,0.055803229895972306,0.055803229895972306
70.489,0.05629435302850094,0.05629435302850094
70.49000000000001,0.050255188993962197,0.050255188993962197
70.491,0.03925945360523864,0.03925945360523864
70.492,0.02715274957480518,0.02715274957480518
70.49300000000001,0.018776005094321313,0.018776005094321313
70.494,0.018350651127427398,0.018350651127427398
70.495,0.02809766605847175,0.02809766605847175
70.49600000000001,0.047544450364516155,0.047544450364516155
70.497,0.07370679892530929,0.07370679892530929
70.498,0.10202299372492885,0.10202299372492885
70.49900000000001,0.12767552952838002,0.12767552952838002
70.5,0.14684218783778213,0.14684218783778213
70.501,0.15749192537374812,0.15749192537374812
70.50200000000001,0.1595403986573416,0.1595403986573416
70.503,0.1544212333111663,0.1544212333111663
70.504,0.14432090489003313,0.14432090489003313
70.50500000000001,0.1314024987105895,0.1314024987105895
70.506,0.11729053101181486,0.11729053101181486
70.507,0.10294022693396276,0.10294022693396276
70.50800000000001,0.08883857912432958,0.08883857912432958
70.509,0.07535415543900092,0.07535415543900092
70.51,0.06301657218967249,0.06301657218967249
70.51100000000001,0.05257125983962174,0.05257125983962174
70.512,0.044784894110629025,0.044784894110629025
70.513,0.0401105686580534,0.0401105686580534
70.51400000000001,0.038399391432430985,0.038399391432430985
70.515,0.03883271184574699,0.03883271184574699
70.516,0.040152395030540466,0.040152395030540466
70.51700000000001,0.0411279935857678,0.0411279935857678
70.518,0.04108048240072826,0.04108048240072826
70.519,0.04023637418785175,0.04023637418785175
70.52000000000001,0.03973735436380288,0.03973735436380288
70.521,0.041262099025907384,0.041262099025907384
70.522,0.046376933612665816,0.046376933612665816
70.52300000000001,0.05585443738382789,0.05585443738382789
70.524,0.06923058970167806,0.06923058970167806
70.525,0.08479330454143286,0.08479330454143286
70.52600000000001,0.10003400370814242,0.10003400370814242
70.527,0.11241049733638775,0.11241049733638775
70.528,0.12013732826798362,0.12013732826798362
70.52900000000001,0.12269541735685396,0.12269541735685396
70.53,0.12085230741404884,0.12085230741404884
70.531,0.11617449950454306,0.11617449950454306
70.53200000000001,0.11022281047399374,0.11022281047399374
70.533,0.10376672579871649,0.10376672579871649
70.534,0.09637106997013256,0.09637106997013256
70.53500000000001,0.08658121091754767,0.08658121091754767
70.536,0.07270078111335865,0.07270078111335865
70.537,0.05390227769096745,0.05390227769096745
70.53800000000001,0.031234591835982872,0.031234591835982872
70.539,0.00806921603786237,0.00806921603786237
70.54,0.010317530232116123,-0.010317530232116123
70.54100000000001,0.018037158097325645,-0.018037158097325645
70.542,0.010435905319429506,-0.010435905319429506
70.543,0.014076967078270997,0.014076967078270997
70.54400000000001,0.05286539251221689,0.05286539251221689
70.545,0.09906425408630759,0.09906425408630759
70.546,0.1428979954624645,0.1428979954624645
70.54700000000001,0.1740549898142172,0.1740549898142172
70.548,0.18448062821890332,0.18448062821890332
70.549,0.1707624502664642,0.1707624502664642
70.55000000000001,0.1353485008814017,0.1353485008814017
70.551,0.08615774939643295,0.08615774939643295
70.552,0.03461732224321046,0.03461732224321046
70.55300000000001,0.007352268983040755,-0.007352268983040755
70.554,0.030542297817253483,-0.030542297817253483
70.555,0.030909011727401126,-0.030909011727401126
70.55600000000001,0.010543617755659374,-0.010543617755659374
70.557,0.023130329219297474,0.023130329219297474
70.558,0.05968529447617388,0.05968529447617388
70.55900000000001,0.08883427284395218,0.08883427284395218
70.56,0.10343797391363951,0.10343797391363951
70.561,0.10147248614641047,0.10147248614641047
70.56200000000001,0.08638422192103201,0.08638422192103201
70.563,0.0657607632148578,0.0657607632148578
70.56400000000001,0.0487626453592076,0.0487626453592076
70.56500000000001,0.04313152795450281,0.04313152795450281
70.566,0.052702494266636535,0.052702494266636535
70.56700000000001,0.07617319443639325,0.07617319443639325
70.56800000000001,0.10748117509969823,0.10748117509969823
70.569,0.1376426242662241,0.1376426242662241
70.57000000000001,0.15746654807866145,0.15746654807866145
70.57100000000001,0.1603103774897099,0.1603103774897099
70.572,0.14405488591209958,0.14405488591209958
70.57300000000001,0.11173450737667134,0.11173450737667134
70.57400000000001,0.07067561517640808,0.07067561517640808
70.575,0.030438080853491645,0.030438080853491645
70.57600000000001,0.00019119518311283556,0.00019119518311283556
70.57700000000001,0.013710178208625079,-0.013710178208625079
70.578,0.009278065384770717,-0.009278065384770717
70.57900000000001,0.010815816066101824,0.010815816066101824
70.58000000000001,0.040218293558759166,0.040218293558759166
70.581,0.07079954671922772,0.07079954671922772
70.58200000000001,0.09490560824930316,0.09490560824930316
70.58300000000001,0.10732410800338754,0.10732410800338754
70.584,0.10645347491541202,0.10645347491541202
70.58500000000001,0.09442084125265371,0.09442084125265371
70.58600000000001,0.07619738418537914,0.07619738418537914
70.587,0.05802434400113876,0.05802434400113876
70.58800000000001,0.045620585256262336,0.045620585256262336
70.58900000000001,0.042661545918026844,0.042661545918026844
70.59,0.04990847728980219,0.04990847728980219
70.59100000000001,0.06516789409602342,0.06516789409602342
70.59200000000001,0.08403390694268631,0.08403390694268631
70.593,0.10117056425710547,0.10117056425710547
70.59400000000001,0.11177264522317976,0.11177264522317976
70.59500000000001,0.11282298399599533,0.11282298399599533
70.596,0.10383839019844476,0.10383839019844476
70.59700000000001,0.0869394496805409,0.0869394496805409
70.59800000000001,0.06625378041486707,0.06625378041486707
70.599,0.04682583462403245,0.04682583462403245
70.60000000000001,0.03332224213919077,0.03332224213919077
70.60100000000001,0.028864995808625116,0.028864995808625116
70.602,0.034286770757805174,0.034286770757805174
70.60300000000001,0.04799256115036887,0.04799256115036887
70.604,0.0664553557779084,0.0664553557779084
70.605,0.08520833368841063,0.08520833368841063
70.60600000000001,0.10006366355504315,0.10006366355504315
70.607,0.10822426837548194,0.10822426837548194
70.608,0.10898008859799946,0.10898008859799946
70.60900000000001,0.10379197069336898,0.10379197069336898
70.61,0.09573749663738695,0.09573749663738695
70.611,0.08847793305951979,0.08847793305951979
70.61200000000001,0.08505072308859019,0.08505072308859019
70.613,0.08685230694352963,0.08685230694352963
70.614,0.09312891073689067,0.09312891073689067
70.61500000000001,0.10114719966025865,0.10114719966025865
70.616,0.10701242460309879,0.10701242460309879
70.617,0.10689962873157799,0.10689962873157799
70.61800000000001,0.09832693416439287,0.09832693416439287
70.619,0.08107456148783121,0.08107456148783121
70.62,0.05745129865163645,0.05745129865163645
70.62100000000001,0.03180480098530403,0.03180480098530403
70.622,0.00940443220972198,0.00940443220972198
70.623,0.004977713732750244,-0.004977713732750244
70.62400000000001,0.008364143712240146,-0.008364143712240146
70.625,0.00035854335402851767,-0.00035854335402851767
70.626,0.016810239066296084,0.016810239066296084
70.62700000000001,0.03898800562450511,0.03898800562450511
70.628,0.061310095126408504,0.061310095126408504
70.629,0.07954774719904711,0.07954774719904711
70.63000000000001,0.09117233519421619,0.09117233519421619
70.631,0.0958271562787596,0.0958271562787596
70.632,0.0950972371615535,0.0950972371615535
70.63300000000001,0.09169785983317102,0.09169785983317102
70.634,0.08838523468983195,0.08838523468983195
70.635,0.08696819501966324,0.08696819501966324
70.63600000000001,0.08774568756093437,0.08774568756093437
70.637,0.08953357256794825,0.08953357256794825
70.638,0.09023445876726721,0.09023445876726721
70.63900000000001,0.08771988195423286,0.08771988195423286
70.64,0.08069812710330915,0.08069812710330915
70.641,0.06926358874237692,0.06926358874237692
70.64200000000001,0.05495208824699138,0.05495208824699138
70.643,0.04031090497146006,0.04031090497146006
70.644,0.02816371174197796,0.02816371174197796
70.64500000000001,0.02084715116844804,0.02084715116844804
70.646,0.01968478897623971,0.01968478897623971
70.647,0.024853885205325943,0.024853885205325943
70.64800000000001,0.03563634706059271,0.03563634706059271
70.649,0.05089262773701142,0.05089262773701142
70.65,0.06951632196756607,0.06951632196756607
70.65100000000001,0.09064972168626872,0.09064972168626872
70.652,0.11355790655944897,0.11355790655944897
70.653,0.1372244865858132,0.1372244865858132
70.65400000000001,0.15987878980147574,0.15987878980147574
70.655,0.17872999563301195,0.17872999563301195
70.656,0.19013564319350773,0.19013564319350773
70.65700000000001,0.19028046256210462,0.19028046256210462
70.658,0.17623811545304124,0.17623811545304124
70.659,0.14710824521061583,0.14710824521061583
70.66000000000001,0.10483564764795017,0.10483564764795017
70.661,0.054368267725344976,0.054368267725344976
70.662,0.0029897365708135837,0.0029897365708135837
70.66300000000001,0.04108337567194875,-0.04108337567194875
70.664,0.07050330893035017,-0.07050330893035017
70.665,0.08050311739963323,-0.08050311739963323
70.66600000000001,0.07002798279360223,-0.07002798279360223
70.667,0.0419500594200688,-0.0419500594200688
70.668,0.002297293011485957,-0.002297293011485957
70.66900000000001,0.04128102374026432,0.04128102374026432
70.67,0.08136578641624403,0.08136578641624403
70.671,0.11240866090771151,0.11240866090771151
70.67200000000001,0.13171862512544297,0.13171862512544297
70.673,0.139572500350867,0.139572500350867
70.674,0.13850895409804198,0.13850895409804198
70.67500000000001,0.13211270323093482,0.13211270323093482
70.676,0.12372818614629555,0.12372818614629555
70.677,0.11552083610193153,0.11552083610193153
70.67800000000001,0.10814440175838613,0.10814440175838613
70.679,0.10103707755344926,0.10103707755344926
70.68,0.09314417427152089,0.09314417427152089
70.68100000000001,0.08372997536734084,0.08372997536734084
70.682,0.07294004787811947,0.07294004787811947
70.683,0.06190103429609928,0.06190103429609928
70.68400000000001,0.05234471108611327,0.05234471108611327
70.685,0.04593791529976743,0.04593791529976743
70.686,0.043614980588613905,0.043614980588613905
70.68700000000001,0.045201863787698526,0.045201863787698526
70.688,0.04949628173999909,0.04949628173999909
70.68900000000001,0.054776484283417526,0.054776484283417526
70.69000000000001,0.05952929932939455,0.05952929932939455
70.691,0.06308893942317217,0.06308893942317217
70.69200000000001,0.06590326971946281,0.06590326971946281
70.69300000000001,0.06928723353969479,0.06928723353969479
70.694,0.0747308975384422,0.0747308975384422
70.69500000000001,0.08302202014454108,0.08302202014454108
70.69600000000001,0.09354307606159762,0.09354307606159762
70.697,0.10406587721453753,0.10406587721453753
70.69800000000001,0.11119968438906702,0.11119968438906702
70.69900000000001,0.11140760842780084,0.11140760842780084
70.7,0.10227855272730801,0.10227855272730801
70.70100000000001,0.08361454545928382,0.08361454545928382
70.70200000000001,0.05791950807376223,0.05791950807376223
70.703,0.03005450147645572,0.03005450147645572
70.70400000000001,0.006099408434214526,0.006099408434214526
70.70500000000001,0.00826238088371778,-0.00826238088371778
70.706,0.009340054865070058,-0.009340054865070058
70.70700000000001,0.0034991909554289435,0.0034991909554289435
70.70800000000001,0.02764648303912054,0.02764648303912054
70.709,0.05801556323924828,0.05801556323924828
70.71000000000001,0.08850824035896587,0.08850824035896587
70.71100000000001,0.11370170295066795,0.11370170295066795
70.712,0.13020885287181105,0.13020885287181105
70.71300000000001,0.1372825739433352,0.1372825739433352
70.71400000000001,0.13650373525888737,0.13650373525888737
70.715,0.1307171336301911,0.1307171336301911
70.71600000000001,0.12264481339312039,0.12264481339312039
70.71700000000001,0.11371694495784013,0.11371694495784013
70.718,0.10357502398102914,0.10357502398102914
70.71900000000001,0.09044835081319635,0.09044835081319635
70.72000000000001,0.07227120925190245,0.07227120925190245
70.721,0.048114054902233194,0.048114054902233194
70.72200000000001,0.019355332740132125,0.019355332740132125
70.72300000000001,0.009920468519935777,-0.009920468519935777
70.724,0.03356146872608601,-0.03356146872608601
70.72500000000001,0.04492455507383797,-0.04492455507383797
70.72600000000001,0.03894036681372648,-0.03894036681372648
70.727,0.014004627246645085,-0.014004627246645085
70.72800000000001,0.026964645499211848,0.026964645499211848
70.729,0.07673795475726641,0.07673795475726641
70.73,0.12530308447904082,0.12530308447904082
70.73100000000001,0.16234204705957933,0.16234204705957933
70.732,0.17996757251013595,0.17996757251013595
70.733,0.17491839770030304,0.17491839770030304
70.73400000000001,0.14954771400664923,0.14954771400664923
70.735,0.11128269332345475,0.11128269332345475
70.736,0.07067972807537526,0.07067972807537526
70.73700000000001,0.038612183666342004,0.038612183666342004
70.738,0.023379208414312957,0.023379208414312957
70.739,0.028541086200400523,0.028541086200400523
70.74000000000001,0.0520680478058797,0.0520680478058797
70.741,0.08700646502256015,0.08700646502256015
70.742,0.12343725317257292,0.12343725317257292
70.74300000000001,0.15115324063224422,0.15115324063224422
70.744,0.16231188546416142,0.16231188546416142
70.745,0.15336560468736593,0.15336560468736593
70.74600000000001,0.1258068080357979,0.1258068080357979
70.747,0.08560838653938263,0.08560838653938263
70.748,0.0415883088428568,0.0415883088428568
70.74900000000001,0.003183323919603298,0.003183323919603298
70.75,0.021778210855647684,-0.021778210855647684
70.751,0.028771170431240667,-0.028771170431240667
70.75200000000001,0.01738623984311427,-0.01738623984311427
70.753,0.008844395322092469,0.008844395322092469
70.754,0.04347597581631368,0.04347597581631368
70.75500000000001,0.07872952859979065,0.07872952859979065
70.756,0.1072338755041018,0.1072338755041018
70.757,0.12355695608813866,0.12355695608813866
70.75800000000001,0.12523450666567193,0.12523450666567193
70.759,0.11312745380266898,0.11312745380266898
70.76,0.09107550899490136,0.09107550899490136
70.76100000000001,0.0649427371161524,0.0649427371161524
70.762,0.041257855605477234,0.041257855605477234
70.763,0.025727496720231446,0.025727496720231446
70.76400000000001,0.021933898782601213,0.021933898782601213
70.765,0.0305080043573005,0.0305080043573005
70.766,0.04898699251188443,0.04898699251188443
70.76700000000001,0.07242525743274264,0.07242525743274264
70.768,0.09465059208968207,0.09465059208968207
70.769,0.10988185027270636,0.10988185027270636
70.77000000000001,0.11430046066797717,0.11430046066797717
70.771,0.10714180867728196,0.10714180867728196
70.772,0.0909682632602391,0.0909682632602391
70.77300000000001,0.07099304510322768,0.07099304510322768
70.774,0.053594292303073665,0.053594292303073665
70.775,0.0444143815635889,0.0444143815635889
70.77600000000001,0.04659755120917586,0.04659755120917586
70.777,0.05971765225593373,0.05971765225593373
70.778,0.0797716087123479,0.0797716087123479
70.77900000000001,0.10030355195485674,0.10030355195485674
70.78,0.1143689619112731,0.1143689619112731
70.781,0.1167600061582541,0.1167600061582541
70.78200000000001,0.10579223987952968,0.10579223987952968
70.783,0.08405086655542138,0.08405086655542138
70.784,0.0577948725891404,0.0577948725891404
70.78500000000001,0.03513430586249888,0.03513430586249888
70.786,0.023500283709086967,0.023500283709086967
70.787,0.02718581936725628,0.02718581936725628
70.78800000000001,0.04575563239572977,0.04575563239572977
70.789,0.07388571692278956,0.07388571692278956
70.79,0.10276310800412669,0.10276310800412669
70.79100000000001,0.12268360383626398,0.12268360383626398
70.792,0.12608656909450922,0.12608656909450922
70.793,0.1100932029355628,0.1100932029355628
70.79400000000001,0.07773113985719715,0.07773113985719715
70.795,0.03740612176792801,0.03740612176792801
70.796,0.000708412867834074,0.000708412867834074
70.79700000000001,0.02084469587393767,-0.02084469587393767
70.798,0.019189477975982028,-0.019189477975982028
70.799,0.007778611444251515,0.007778611444251515
70.80000000000001,0.0553271936916393,0.0553271936916393
70.801,0.11291663894228887,0.11291663894228887
70.802,0.16686008946400754,0.16686008946400754
70.80300000000001,0.20386636478074593,0.20386636478074593
70.804,0.21447447906692574,0.21447447906692574
70.805,0.19543931721088859,0.19543931721088859
70.80600000000001,0.15044969592633106,0.15044969592633106
70.807,0.0890473490747894,0.0890473490747894
70.808,0.02411736042320456,0.02411736042320456
70.80900000000001,0.031310689685788984,-0.031310689685788984
70.81,0.06707541058164512,-0.06707541058164512
70.811,0.07795399474395948,-0.07795399474395948
70.81200000000001,0.06435369935711399,-0.06435369935711399
70.813,0.031596865899774285,-0.031596865899774285
70.81400000000001,0.011856468165677425,0.011856468165677425
70.81500000000001,0.056672687212137696,0.056672687212137696
70.816,0.09477672797138603,0.09477672797138603
70.81700000000001,0.12086462549070087,0.12086462549070087
70.81800000000001,0.13304904872210432,0.13304904872210432
70.819,0.13265144571701004,0.13265144571701004
70.82000000000001,0.12335697451996541,0.12335697451996541
70.82100000000001,0.11004658535589384,0.11004658535589384
70.822,0.0976116480374507,0.0976116480374507
70.82300000000001,0.08997352025610672,0.08997352025610672
70.82400000000001,0.08942324986514194,0.08942324986514194
70.825,0.09630914680649005,0.09630914680649005
70.82600000000001,0.10905368526278347,0.10905368526278347
70.82700000000001,0.12447041310271767,0.12447041310271767
70.828,0.13835159567461042,0.13835159567461042
70.82900000000001,0.14628091186612058,0.14628091186612058
70.83000000000001,0.14457938249234958,0.14457938249234958
70.831,0.1312268461156032,0.1312268461156032
70.83200000000001,0.10654643275140674,0.10654643275140674
70.83300000000001,0.07343353515884932,0.07343353515884932
70.834,0.0369799946123901,0.0369799946123901
70.83500000000001,0.003487317192403472,0.003487317192403472
70.83600000000001,0.020954575491333394,-0.020954575491333394
70.837,0.03198316399260137,-0.03198316399260137
70.83800000000001,0.028153036545034982,-0.028153036545034982
70.83900000000001,0.011423658079738552,-0.011423658079738552
70.84,0.013257053127113227,0.013257053127113227
70.84100000000001,0.03921650326213544,0.03921650326213544
70.84200000000001,0.059845794015868536,0.059845794015868536
70.843,0.07040624864095979,0.07040624864095979
70.84400000000001,0.06931453625575079,0.06931453625575079
70.84500000000001,0.05850584564291772,0.05850584564291772
70.846,0.04274962107631253,0.04274962107631253
70.84700000000001,0.028118844266993293,0.028118844266993293
70.84800000000001,0.020085363446346483,0.020085363446346483
70.849,0.021838099066106675,0.021838099066106675
70.85000000000001,0.03335244870242171,0.03335244870242171
70.85100000000001,0.051496211847825935,0.051496211847825935
70.852,0.07111785473100851,0.07111785473100851
70.85300000000001,0.08673938230005285,0.08673938230005285
70.854,0.09427757670180292,0.09427757670180292
70.855,0.09221218743995663,0.09221218743995663
70.85600000000001,0.08181125050549709,0.08181125050549709
70.857,0.06634860901338668,0.06634860901338668
70.858,0.04959752134770512,0.04959752134770512
70.85900000000001,0.03413863156447983,0.03413863156447983
70.86,0.020093532940043568,0.020093532940043568
70.861,0.004760736163864854,0.004760736163864854
70.86200000000001,0.016666918445406464,-0.016666918445406464
70.863,0.04948647724793531,-0.04948647724793531
70.864,0.09745986653515726,-0.09745986653515726
70.86500000000001,0.16101774824901505,-0.16101774824901505
70.866,0.2362739714430253,-0.2362739714430253
70.867,0.31519082277522703,-0.31519082277522703
70.86800000000001,0.38688896247330495,-0.38688896247330495
70.869,0.4397574005777183,-0.4397574005777183
70.87,0.46379469674411855,-0.46379469674411855
70.87100000000001,0.4525683432323291,-0.4525683432323291
70.872,0.4043196328127182,-0.4043196328127182
70.873,0.32201118912524374,-0.32201118912524374
70.87400000000001,0.21242042163262975,-0.21242042163262975
70.875,0.0846260826568741,-0.0846260826568741
70.876,0.05165342502641335,0.05165342502641335
70.87700000000001,0.18745286249912985,0.18745286249912985
70.878,0.31542912336180895,0.31542912336180895
70.879,0.43016433478929805,0.43016433478929805
70.88000000000001,0.5280449668631246,0.5280449668631246
70.881,0.6069530440968693,0.6069530440968693
70.882,0.6659889451720618,0.6659889451720618
70.88300000000001,0.7053407206327287,0.7053407206327287
70.884,0.726277231782241,0.726277231782241
70.885,0.7311352901519228,0.7311352901519228
70.88600000000001,0.7231412413770915,0.7231412413770915
70.887,0.7059674405518976,0.7059674405518976
70.888,0.6830477650308848,0.6830477650308848
70.88900000000001,0.6568104179154395,0.6568104179154395
70.89,0.6280717843907566,0.6280717843907566
70.891,0.5958307853413085,0.5958307853413085
70.89200000000001,0.5576020980981546,0.5576020980981546
70.893,0.510259532164943,0.510259532164943
70.894,0.4511852851166649,0.4511852851166649
70.89500000000001,0.3794000660971284,0.3794000660971284
70.896,0.2963290127926126,0.2963290127926126
70.897,0.20595043723371065,0.20595043723371065
70.89800000000001,0.11425139063718226,0.11425139063718226
70.899,0.028119135329016665,0.028119135329016665
70.9,0.04603547351415482,-0.04603547351415482
70.90100000000001,0.10355108161514226,-0.10355108161514226
70.902,0.14235163676229412,-0.14235163676229412
70.903,0.16314704206492892,-0.16314704206492892
70.90400000000001,0.16898835584187966,-0.16898835584187966
70.905,0.16434577111756465,-0.16434577111756465
70.906,0.1539930743026796,-0.1539930743026796
70.90700000000001,0.14200458228343693,-0.14200458228343693
70.908,0.13110168943535327,-0.13110168943535327
70.909,0.12245688510898156,-0.12245688510898156
70.91000000000001,0.11592014895757952,-0.11592014895757952
70.911,0.11052159637841208,-0.11052159637841208
70.912,0.10505460013797863,-0.10505460013797863
70.91300000000001,0.09856084833615542,-0.09856084833615542
70.914,0.09060580518357286,-0.09060580518357286
70.915,0.08131924461090156,-0.08131924461090156
70.91600000000001,0.07124957989649461,-0.07124957989649461
70.917,0.06112164976609946,-0.06112164976609946
70.918,0.05159048252870169,-0.05159048252870169
70.91900000000001,0.04305804518096468,-0.04305804518096468
70.92,0.03558360309086883,-0.03558360309086883
70.921,0.028887550036723275,-0.028887550036723275
70.92200000000001,0.022432033371613813,-0.022432033371613813
70.923,0.015558040041106058,-0.015558040041106058
70.924,0.007659556718672356,-0.007659556718672356
70.92500000000001,0.0016279400629410912,0.0016279400629410912
70.926,0.012258470269449484,0.012258470269449484
70.927,0.02367361898119813,0.02367361898119813
70.92800000000001,0.03482049720405511,0.03482049720405511
70.929,0.04432739681272335,0.04432739681272335
70.93,0.05083514357574592,0.05083514357574592
70.93100000000001,0.05342495070377806,0.05342495070377806
70.932,0.05202802632464132,0.05202802632464132
70.933,0.04767285634065499,0.04767285634065499
70.93400000000001,0.042443011415705945,0.042443011415705945
70.935,0.03908711235014639,0.03908711235014639
70.936,0.04032898143874153,0.04032898143874153
70.93700000000001,0.048037988402479526,0.048037988402479526
70.938,0.062497090374362685,0.062497090374362685
70.93900000000001,0.08201527629675498,0.08201527629675498
70.94000000000001,0.10305833526644137,0.10305833526644137
70.941,0.12093114981821662,0.12093114981821662
70.94200000000001,0.1308759984773269,0.1308759984773269
70.94300000000001,0.1293086422569405,0.1293086422569405
70.944,0.11484731702240225,0.11484731702240225
70.94500000000001,0.08882719904366998,0.08882719904366998
70.94600000000001,0.05512907008059442,0.05512907008059442
70.947,0.019346785813545875,0.019346785813545875
70.94800000000001,0.012487115300070739,-0.012487115300070739
70.94900000000001,0.035267450768715736,-0.035267450768715736
70.95,0.04589997087650999,-0.04589997087650999
70.95100000000001,0.0438197164415155,-0.0438197164415155
70.95200000000001,0.030838004061040647,-0.030838004061040647
70.953,0.010415376747587413,-0.010415376747587413
70.95400000000001,0.013378535179652262,0.013378535179652262
70.95500000000001,0.0368857293574163,0.0368857293574163
70.956,0.05756871313242007,0.05756871313242007
70.95700000000001,0.07424769430554701,0.07424769430554701
70.95800000000001,0.08688065920469357,0.08688065920469357
70.959,0.09605397793705373,0.09605397793705373
70.96000000000001,0.10242988817766063,0.10242988817766063
70.96100000000001,0.10637778662963115,0.10637778662963115
70.962,0.10791204847058977,0.10791204847058977
70.96300000000001,0.10691469204632686,0.10691469204632686
70.96400000000001,0.1034950078716832,0.1034950078716832
70.965,0.0982800629460785,0.0982800629460785
70.96600000000001,0.0924619773201385,0.0924619773201385
70.96700000000001,0.08753630745113994,0.08753630745113994
70.968,0.0848064863167366,0.0848064863167366
70.96900000000001,0.08484443656781293,0.08484443656781293
70.97000000000001,0.08713866871576448,0.08713866871576448
70.971,0.09010818371197815,0.09010818371197815
70.97200000000001,0.09152995379243944,0.09152995379243944
70.97300000000001,0.08926761809582251,0.08926761809582251
70.974,0.08206085816744135,0.08206085816744135
70.97500000000001,0.07009048049112687,0.07009048049112687
70.97600000000001,0.05509526008382393,0.05509526008382393
70.977,0.039965450067283026,0.039965450067283026
70.97800000000001,0.02792288385063557,0.02792288385063557
70.979,0.021551493506350328,0.021551493506350328
70.98,0.02200666353168912,0.02200666353168912
70.98100000000001,0.028680080513915795,0.028680080513915795
70.982,0.039443650620314186,0.039443650620314186
70.983,0.05139431927850269,0.05139431927850269
70.98400000000001,0.06184310888237854,0.06184310888237854
70.985,0.069201497872871,0.069201497872871
70.986,0.07345077113289755,0.07345077113289755
70.98700000000001,0.07602568962948042,0.07602568962948042
70.988,0.07915212462466448,0.07915212462466448
70.989,0.08487518801789884,0.08487518801789884
70.99000000000001,0.09412904587670523,0.09412904587670523
70.991,0.10619004598398396,0.10619004598398396
70.992,0.11872330478144222,0.11872330478144222
70.99300000000001,0.12842550667548558,0.12842550667548558
70.994,0.13205675099530279,0.13205675099530279
70.995,0.1275162346515668,0.1275162346515668
70.99600000000001,0.11459903934795346,0.11459903934795346
70.997,0.09517979593038439,0.09517979593038439
70.998,0.07276410015305745,0.07276410015305745
70.99900000000001,0.051560432952531654,0.051560432952531654
71.0,0.035379238141795444,0.035379238141795444
71.001,0.02670909497260543,0.02670909497260543
71.00200000000001,0.026240819998948117,0.026240819998948117
71.003,0.03294154352017942,0.03294154352017942
71.004,0.04458674963578768,0.04458674963578768
71.00500000000001,0.058510770469150986,0.058510770469150986
71.006,0.07228771637276421,0.07228771637276421
71.007,0.08411902854775821,0.08411902854775821
71.00800000000001,0.0928511188208958,0.0928511188208958
71.009,0.09771563376326342,0.09771563376326342
71.01,0.09800653870590215,0.09800653870590215
71.01100000000001,0.09293213701361114,0.09293213701361114
71.012,0.08179469610845436,0.08179469610845436
71.013,0.06448787791833244,0.06448787791833244
71.01400000000001,0.042127472555472334,0.042127472555472334
71.015,0.017517091883038738,0.017517091883038738
71.016,0.004849208725419385,-0.004849208725419385
71.01700000000001,0.019418938539109698,-0.019418938539109698
71.018,0.02080277347456705,-0.02080277347456705
71.019,0.0053071982542702845,-0.0053071982542702845
71.02000000000001,0.027665500495370976,0.027665500495370976
71.021,0.07482339513949432,0.07482339513949432
71.022,0.129141712243807,0.129141712243807
71.02300000000001,0.1810572911120445,0.1810572911120445
71.024,0.22047811226163483,0.22047811226163483
71.025,0.2391213491925075,0.2391213491925075
71.02600000000001,0.2325622570677457,0.2325622570677457
71.027,0.20142502939072537,0.20142502939072537
71.028,0.1513663590276313,0.1513663590276313
71.02900000000001,0.09182959141676728,0.09182959141676728
71.03,0.03388475363131871,0.03388475363131871
71.031,0.012282982296132672,-0.012282982296132672
71.03200000000001,0.03958851500664784,-0.03958851500664784
71.033,0.04541588420611442,-0.04541588420611442
71.034,0.031838664678491946,-0.031838664678491946
71.03500000000001,0.004708437292763268,-0.004708437292763268
71.036,0.028075431508490123,0.028075431508490123
71.037,0.05861045062032044,0.05861045062032044
71.03800000000001,0.08080663151843126,0.08080663151843126
71.039,0.09154091511569207,0.09154091511569207
71.04,0.09093544427407707,0.09093544427407707
71.04100000000001,0.08179705386336034,0.08179705386336034
71.042,0.0684693793676141,0.0684693793676141
71.043,0.05547054513689864,0.05547054513689864
71.04400000000001,0.04629701519307017,0.04629701519307017
71.045,0.04268096011622835,0.04268096011622835
71.046,0.044433260938444574,0.044433260938444574
71.04700000000001,0.04983653081248751,0.04983653081248751
71.048,0.05641678477140322,0.05641678477140322
71.049,0.06184697710800191,0.06184697710800191
71.05000000000001,0.06472872090539794,0.06472872090539794
71.051,0.06505081501982368,0.06505081501982368
71.052,0.06421481441806054,0.06421481441806054
71.05300000000001,0.06462566591530328,0.06462566591530328
71.054,0.06894828881540249,0.06894828881540249
71.055,0.07921187446057676,0.07921187446057676
71.05600000000001,0.09598942170011093,0.09598942170011093
71.057,0.11788076954790783,0.11788076954790783
71.058,0.14147764203412216,0.14147764203412216
71.05900000000001,0.16189084863865455,0.16189084863865455
71.06,0.1737857074395881,0.1737857074395881
71.061,0.17272781015400596,0.17272781015400596
71.06200000000001,0.1565236555636651,0.1565236555636651
71.063,0.12618809000937103,0.12618809000937103
71.06400000000001,0.08621189862003265,0.08621189862003265
71.06500000000001,0.04394514134708816,0.04394514134708816
71.066,0.008131734047938544,0.008131734047938544
71.06700000000001,0.013123953605469252,-0.013123953605469252
71.06800000000001,0.014477005993832837,-0.014477005993832837
71.069,0.005021547606365306,0.005021547606365306
71.07000000000001,0.04127493154477646,0.04127493154477646
71.07100000000001,0.08575881492752524,0.08575881492752524
71.072,0.12735983497391,0.12735983497391
71.07300000000001,0.15503818160912375,0.15503818160912375
71.07400000000001,0.16065249597535258,0.16065249597535258
71.075,0.1411900125144654,0.1411900125144654
71.07600000000001,0.0997618941887628,0.0997618941887628
71.07700000000001,0.04503338413996061,0.04503338413996061
71.078,0.01081925367026304,-0.01081925367026304
71.07900000000001,0.05511721281695969,-0.05511721281695969
71.08000000000001,0.07785948125625097,-0.07785948125625097
71.081,0.07421539711068403,-0.07421539711068403
71.08200000000001,0.045649868471810406,-0.045649868471810406
71.08300000000001,0.0006192638147097806,0.0006192638147097806
71.084,0.053662829014093916,0.053662829014093916
71.08500000000001,0.10179015786488255,0.10179015786488255
71.08600000000001,0.13556749443920957,0.13556749443920957
71.087,0.15006337650301882,0.15006337650301882
71.08800000000001,0.14572377523789837,0.14572377523789837
71.08900000000001,0.1276952475303923,0.1276952475303923
71.09,0.1038740300241543,0.1038740300241543
71.09100000000001,0.08232378493738568,0.08232378493738568
71.09200000000001,0.06886619361993329,0.06886619361993329
71.093,0.06556221451887678,0.06556221451887678
71.09400000000001,0.07049975610067793,0.07049975610067793
71.09500000000001,0.07888355643915923,0.07888355643915923
71.096,0.08501723987767429,0.08501723987767429
71.09700000000001,0.08450062496290767,0.08450062496290767
71.09800000000001,0.07591650604850342,0.07591650604850342
71.099,0.06146032995551898,0.06146032995551898
71.10000000000001,0.04631282697112793,0.04631282697112793
71.10100000000001,0.03695885962939838,0.03695885962939838
71.102,0.03898972134796597,0.03898972134796597
71.10300000000001,0.05508909043812049,0.05508909043812049
71.104,0.0838476185257806,0.0838476185257806
71.105,0.11979803021616386,0.11979803021616386
71.10600000000001,0.15469154741424673,0.15469154741424673
71.107,0.17966121631402787,0.17966121631402787
71.108,0.18765088486255754,0.18765088486255754
71.10900000000001,0.1754079438863536,0.1754079438863536
71.11,0.1444644064938001,0.1444644064938001
71.111,0.10082393510357757,0.10082393510357757
71.11200000000001,0.053443748455148876,0.053443748455148876
71.113,0.011941018448396568,0.011941018448396568
71.114,0.015834044490511734,-0.015834044490511734
71.11500000000001,0.025689971900504927,-0.025689971900504927
71.116,0.01794587081823773,-0.01794587081823773
71.117,0.002958612759632606,0.002958612759632606
71.11800000000001,0.029943920901829735,0.029943920901829735
71.119,0.05540815947489852,0.05540815947489852
71.12,0.07336106189726244,0.07336106189726244
71.12100000000001,0.08096697780849693,0.08096697780849693
71.122,0.07907584660127132,0.07907584660127132
71.123,0.07162472972808098,0.07162472972808098
71.12400000000001,0.06412500044468117,0.06412500044468117
71.125,0.06171591736479498,0.06171591736479498
71.126,0.0673878029696453,0.0673878029696453
71.12700000000001,0.08092224719587171,0.08092224719587171
71.128,0.09887867357872104,0.09887867357872104
71.129,0.11563926929545532,0.11563926929545532
71.13000000000001,0.1252002582433056,0.1252002582433056
71.131,0.12316272105759252,0.12316272105759252
71.132,0.10830220653347511,0.10830220653347511
71.13300000000001,0.08320897471335842,0.08320897471335842
71.134,0.05376093614388289,0.05376093614388289
71.135,0.027542442691724567,0.027542442691724567
71.13600000000001,0.011650606751285597,0.011650606751285597
71.137,0.010536566249827795,0.010536566249827795
71.138,0.02454525615090586,0.02454525615090586
71.13900000000001,0.049631804773907495,0.049631804773907495
71.14,0.07839430247406165,0.07839430247406165
71.141,0.10216837402966128,0.10216837402966128
71.14200000000001,0.11359645644239613,0.11359645644239613
71.143,0.10891731721484987,0.10891731721484987
71.144,0.08927599655900265,0.08927599655900265
71.14500000000001,0.060622196530339734,0.060622196530339734
71.146,0.03217204251881545,0.03217204251881545
71.147,0.013835253174501405,0.013835253174501405
71.14800000000001,0.013328629855416496,0.013328629855416496
71.149,0.03380860448227385,0.03380860448227385
71.15,0.07272232579970184,0.07272232579970184
71.15100000000001,0.12223418478525461,0.12223418478525461
71.152,0.17113269770002293,0.17113269770002293
71.153,0.20769552434729355,0.20769552434729355
71.15400000000001,0.22271569748382358,0.22271569748382358
71.155,0.21185148259218156,0.21185148259218156
71.156,0.1766660473121835,0.1766660473121835
71.15700000000001,0.12410742052764556,0.12410742052764556
71.158,0.06462620576794542,0.06462620576794542
71.159,0.009503454729945293,0.009503454729945293
71.16000000000001,0.03184553912081256,-0.03184553912081256
71.161,0.05386484480682885,-0.05386484480682885
71.162,0.05567154861799306,-0.05567154861799306
71.16300000000001,0.040585698414985716,-0.040585698414985716
71.164,0.01465007628892856,-0.01465007628892856
71.165,0.01532125440334875,0.01532125440334875
71.16600000000001,0.04354730829159892,0.04354730829159892
71.167,0.06643671302789977,0.06643671302789977
71.168,0.08285765998506434,0.08285765998506434
71.16900000000001,0.0935932781724218,0.0935932781724218
71.17,0.10030913775769368,0.10030913775769368
71.171,0.1044792296593331,0.1044792296593331
71.17200000000001,0.10667296878782895,0.10667296878782895
71.173,0.1064271761342721,0.1064271761342721
71.174,0.10268603467370707,0.10268603467370707
71.17500000000001,0.09457743644150884,0.09457743644150884
71.176,0.08217947834997852,0.08217947834997852
71.177,0.06694992589165727,0.06694992589165727
71.17800000000001,0.05162899823103917,0.05162899823103917
71.179,0.0396258881241931,0.0396258881241931
71.18,0.034087533282870286,0.034087533282870286
71.18100000000001,0.03695868327508056,0.03695868327508056
71.182,0.048341109992546594,0.048341109992546594
71.183,0.06635421680213915,0.06635421680213915
71.18400000000001,0.0875326394160687,0.0875326394160687
71.185,0.10762997459711254,0.10762997459711254
71.186,0.12258745481436373,0.12258745481436373
71.18700000000001,0.1294031701179399,0.1294031701179399
71.188,0.1266983926129186,0.1266983926129186
71.18900000000001,0.11489030036316183,0.11489030036316183
71.19000000000001,0.09599831688701288,0.09599831688701288
71.191,0.07319296490697447,0.07319296490697447
71.19200000000001,0.05022105889000161,0.05022105889000161
71.19300000000001,0.0308154982451172,0.0308154982451172
71.194,0.018149111845662258,0.018149111845662258
71.19500000000001,0.014353580790624765,0.014353580790624765
71.19600000000001,0.020119653489514944,0.020119653489514944
71.197,0.03442484296523407,0.03442484296523407
71.19800000000001,0.054477465491985066,0.054477465491985066
71.19900000000001,0.07598590536484195,0.07598590536484195
71.2,0.09382809965171246,0.09382809965171246
71.20100000000001,0.10309848039649427,0.10309848039649427
71.20200000000001,0.10036883221087223,0.10036883221087223
71.203,0.0848640445256359,0.0848640445256359
71.20400000000001,0.05918328439345344,0.05918328439345344
71.20500000000001,0.029239279864240686,0.029239279864240686
71.206,0.0032565260214920677,0.0032565260214920677
71.20700000000001,0.010069180853800153,-0.010069180853800153
71.20800000000001,0.0038659352895584753,-0.0038659352895584753
71.209,0.024756379049378774,0.024756379049378774
71.21000000000001,0.07333005813682947,0.07333005813682947
71.21100000000001,0.13393706254268412,0.13393706254268412
71.212,0.1945843441081505,0.1945843441081505
71.21300000000001,0.2418210146141322,0.2418210146141322
71.21400000000001,0.2639880311004126,0.2639880311004126
71.215,0.25425667901596727,0.25425667901596727
71.21600000000001,0.21261057135734962,0.21261057135734962
71.21700000000001,0.14617320400046463,0.14617320400046463
71.218,0.06771847671011422,0.06771847671011422
71.21900000000001,0.007297040667926913,-0.007297040667926913
71.22000000000001,0.06442103766303875,-0.06442103766303875
71.221,0.09364008940411295,-0.09364008940411295
71.22200000000001,0.0916522868961025,-0.0916522868961025
71.22300000000001,0.06238876251504577,-0.06238876251504577
71.224,0.01568112526472798,-0.01568112526472798
71.22500000000001,0.035518978973487325,0.035518978973487325
71.22600000000001,0.07857754933653016,0.07857754933653016
71.227,0.10433110922239686,0.10433110922239686
71.22800000000001,0.10913096428309754,0.10913096428309754
71.229,0.09529887840115836,0.09529887840115836
71.23,0.06997512942112727,0.06997512942112727
71.23100000000001,0.042780073202236535,0.042780073202236535
71.232,0.02300537899202837,0.02300537899202837
71.233,0.01712645815147451,0.01712645815147451
71.23400000000001,0.027277642333609853,0.027277642333609853
71.235,0.05101645414766831,0.05101645414766831
71.236,0.08232574712372309,0.08232574712372309
71.23700000000001,0.11347422301386745,0.11347422301386745
71.238,0.13716356218011594,0.13716356218011594
71.239,0.14837295814120588,0.14837295814120588
71.24000000000001,0.14545412752877107,0.14545412752877107
71.241,0.13027370104351177,0.13027370104351177
71.242,0.10746649845033174,0.10746649845033174
71.24300000000001,0.08307871570511072,0.08307871570511072
71.244,0.06299592638525775,0.06299592638525775
71.245,0.05155318070687365,0.05155318070687365
71.24600000000001,0.050631738556147665,0.050631738556147665
71.247,0.059398103174614025,0.059398103174614025
71.248,0.07468054990931106,0.07468054990931106
71.24900000000001,0.09184327277885385,0.09184327277885385
71.25,0.10593088720753041,0.10593088720753041
71.251,0.11282331663854128,0.11282331663854128
71.25200000000001,0.11015884820841837,0.11015884820841837
71.253,0.09784145915353504,0.09784145915353504
71.254,0.07803566194390221,0.07803566194390221
71.25500000000001,0.05465550167166522,0.05465550167166522
71.256,0.032459305323193854,0.032459305323193854
71.257,0.015950431483145122,0.015950431483145122
71.25800000000001,0.0083366305310002,0.0083366305310002
71.259,0.010799177130889959,0.010799177130889959
71.26,0.022259441008997793,0.022259441008997793
71.26100000000001,0.03971237357631452,0.03971237357631452
71.262,0.05904877776118855,0.05904877776118855
71.263,0.07615030403053269,0.07615030403053269
71.26400000000001,0.08795533284904544,0.08795533284904544
71.265,0.0931920149021479,0.0931920149021479
71.266,0.09256509443636185,0.09256509443636185
71.26700000000001,0.08834453783342666,0.08834453783342666
71.268,0.08348944318037987,0.08348944318037987
71.269,0.08059102730155465,0.08059102730155465
71.27000000000001,0.08098176710295912,0.08098176710295912
71.271,0.08430816997445234,0.08430816997445234
71.272,0.0887134615748435,0.0887134615748435
71.27300000000001,0.09157077167414562,0.09157077167414562
71.274,0.0905156873749493,0.0905156873749493
71.275,0.0844163419766999,0.0844163419766999
71.27600000000001,0.07393121148324644,0.07393121148324644
71.277,0.061439810662746286,0.061439810662746286
71.278,0.05034640818060221,0.05034640818060221
71.27900000000001,0.043978653343010654,0.043978653343010654
71.28,0.044453451655864784,0.044453451655864784
71.281,0.05190598937864421,0.05190598937864421
71.28200000000001,0.06436224981188987,0.06436224981188987
71.283,0.07831763646402767,0.07831763646402767
71.284,0.08983892261356408,0.08983892261356408
71.28500000000001,0.09582017445643598,0.09582017445643598
71.286,0.0949633239538461,0.0949633239538461
71.287,0.08814487642670099,0.08814487642670099
71.28800000000001,0.07804253593933352,0.07804253593933352
71.289,0.06815572820912075,0.06815572820912075
71.29,0.061569641215079685,0.061569641215079685
71.29100000000001,0.059905099303442455,0.059905099303442455
71.292,0.06283070361460874,0.06283070361460874
71.293,0.06831025832390081,0.06831025832390081
71.29400000000001,0.0734890160513777,0.0734890160513777
71.295,0.0758838626117182,0.0758838626117182
71.296,0.07442337644142816,0.07442337644142816
71.29700000000001,0.06993058971168686,0.06993058971168686
71.298,0.06484160836276298,0.06484160836276298
71.299,0.06223780814702451,0.06223780814702451
71.30000000000001,0.06453584618166852,0.06453584618166852
71.301,0.07232905120062783,0.07232905120062783
71.302,0.08384593249784067,0.08384593249784067
71.30300000000001,0.09528888684231318,0.09528888684231318
71.304,0.1020045910629086,0.1020045910629086
71.305,0.10012510176285283,0.10012510176285283
71.30600000000001,0.08811834329774748,0.08811834329774748
71.307,0.06767624515086901,0.06767624515086901
71.308,0.043561945830435045,0.043561945830435045
71.30900000000001,0.022376539521124617,0.022376539521124617
71.31,0.010579456168720691,0.010579456168720691
71.311,0.01237665858176995,0.01237665858176995
71.31200000000001,0.02817643575163631,0.02817643575163631
71.313,0.054165467010869106,0.054165467010869106
71.31400000000001,0.08321762379075026,0.08321762379075026
71.31500000000001,0.10692087232330261,0.10692087232330261
71.316,0.11813240021144056,0.11813240021144056
71.31700000000001,0.11327429107033948,0.11327429107033948
71.31800000000001,0.09363199944214196,0.09363199944214196
71.319,0.06520622113392616,0.06520622113392616
71.32000000000001,0.03710839605340821,0.03710839605340821
71.32100000000001,0.01894356156441268,0.01894356156441268
71.322,0.017947930466784445,0.017947930466784445
71.32300000000001,0.03673884131285243,0.03673884131285243
71.32400000000001,0.07236148523732666,0.07236148523732666
71.325,0.11693288174001504,0.11693288174001504
71.32600000000001,0.15970762121091941,0.15970762121091941
71.32700000000001,0.18996845448390842,0.18996845448390842
71.328,0.19990600278947057,0.19990600278947057
71.32900000000001,0.18666567377133503,0.18666567377133503
71.33000000000001,0.1529975502758012,0.1529975502758012
71.331,0.10636359785216754,0.10636359785216754
71.33200000000001,0.05680634057361611,0.05680634057361611
71.33300000000001,0.014228960387328238,0.014228960387328238
71.334,0.014120727005802136,-0.014120727005802136
71.33500000000001,0.02526530769970914,-0.02526530769970914
71.33600000000001,0.020809776063680507,-0.020809776063680507
71.337,0.005947151983301424,-0.005947151983301424
71.33800000000001,0.01246594955890945,0.01246594955890945
71.33900000000001,0.02813780321515824,0.02813780321515824
71.34,0.037195533754626364,0.037195533754626364
71.34100000000001,0.03913583350429373,0.03913583350429373
71.34200000000001,0.03664152077275484,0.03664152077275484
71.343,0.034383758741578285,0.034383758741578285
71.34400000000001,0.037228013675031146,0.037228013675031146
71.34500000000001,0.048423085476658745,0.048423085476658745
71.346,0.06833638652270047,0.06833638652270047
71.34700000000001,0.09411785000613304,0.09411785000613304
71.34800000000001,0.12038866978823282,0.12038866978823282
71.349,0.14074583728333256,0.14074583728333256
71.35000000000001,0.14963681615614233,0.14963681615614233
71.35100000000001,0.1440552286003327,0.1440552286003327
71.352,0.12456294244747346,0.12456294244747346
71.35300000000001,0.09533672988888564,0.09533672988888564
71.354,0.06321187298571007,0.06321187298571007
71.355,0.035973624355778,0.035973624355778
71.35600000000001,0.02035430620016343,0.02035430620016343
71.357,0.020274264647755613,0.020274264647755613
71.358,0.03579910779521556,0.03579910779521556
71.35900000000001,0.06309315952541605,0.06309315952541605
71.36,0.09538272783283896,0.09538272783283896
71.361,0.12467443689649715,0.12467443689649715
71.36200000000001,0.14377518339926065,0.14377518339926065
71.363,0.14808387373683418,0.14808387373683418
71.364,0.13669065883766662,0.13669065883766662
71.36500000000001,0.11250839559982362,0.11250839559982362
71.366,0.08142172553088001,0.08142172553088001
71.367,0.050700315074482916,0.050700315074482916
71.36800000000001,0.02711334802259513,0.02711334802259513
71.369,0.015250933738619743,0.015250933738619743
71.37,0.016487508463497003,0.016487508463497003
71.37100000000001,0.028834498945104592,0.028834498945104592
71.372,0.04767931942572767,0.04767931942572767
71.373,0.06716704113377214,0.06716704113377214
71.37400000000001,0.08181768119761457,0.08181768119761457
71.375,0.08792997045506024,0.08792997045506024
71.376,0.08440898350645587,0.08440898350645587
71.37700000000001,0.0728392451911668,0.0728392451911668
71.378,0.056847975612150936,0.056847975612150936
71.379,0.040996951516144575,0.040996951516144575
71.38000000000001,0.02955025163800884,0.02955025163800884
71.381,0.025462453719992117,0.025462453719992117
71.382,0.029827708950247,0.029827708950247
71.38300000000001,0.04186611602270007,0.04186611602270007
71.384,0.05935776941851256,0.05935776941851256
71.385,0.07932057889641198,0.07932057889641198
71.38600000000001,0.09869714395092588,0.09869714395092588
71.387,0.1148684942132927,0.1148684942132927
71.388,0.12591842529260688,0.12591842529260688
71.38900000000001,0.13068443752651837,0.13068443752651837
71.39,0.12870445040643608,0.12870445040643608
71.391,0.12017613468698851,0.12017613468698851
71.39200000000001,0.10599039137733124,0.10599039137733124
71.393,0.08781197924451067,0.08781197924451067
71.394,0.06810306205564687,0.06810306205564687
71.39500000000001,0.04996016124115221,0.04996016124115221
71.396,0.03668095134605842,0.03668095134605842
71.397,0.031083060826351927,0.031083060826351927
71.39800000000001,0.03472305181282431,0.03472305181282431
71.399,0.04725686187578759,0.04725686187578759
71.4,0.06619714062126425,0.06619714062126425
71.40100000000001,0.08723865467779013,0.08723865467779013
71.402,0.10515782966469578,0.10515782966469578
71.403,0.11509782974171978,0.11509782974171978
71.40400000000001,0.1138947455894248,0.1138947455894248
71.405,0.10104457801789213,0.10104457801789213
71.406,0.0789851215836832,0.0789851215836832
71.40700000000001,0.05255754512692801,0.05255754512692801
71.408,0.027762899564507393,0.027762899564507393
71.409,0.010157465910818342,0.010157465910818342
71.41000000000001,0.0033589543594432225,0.0033589543594432225
71.411,0.008114993276788995,0.008114993276788995
71.412,0.022217154696161368,0.022217154696161368
71.41300000000001,0.04127976018392254,0.04127976018392254
71.414,0.06012910904236035,0.06012910904236035
71.415,0.07435709584448214,0.07435709584448214
71.41600000000001,0.081548493733411,0.081548493733411
71.417,0.0818088790201259,0.0818088790201259
71.418,0.07745992250336564,0.07745992250336564
71.41900000000001,0.07204802140143163,0.07204802140143163
71.42,0.06903489283453923,0.06903489283453923
71.421,0.07062891837979146,0.07062891837979146
71.42200000000001,0.07714490004460584,0.07714490004460584
71.423,0.08707588064847904,0.08707588064847904
71.424,0.09779915634847991,0.09779915634847991
71.42500000000001,0.10661463762091672,0.10661463762091672
71.426,0.11170765608813915,0.11170765608813915
71.427,0.11267665160058593,0.11267665160058593
71.42800000000001,0.11044828159492415,0.11044828159492415
71.429,0.10664828620878963,0.10664828620878963
71.43,0.10271225307756149,0.10271225307756149
71.43100000000001,0.09912376552564517,0.09912376552564517
71.432,0.09511786552960211,0.09511786552960211
71.433,0.08900254003640451,0.08900254003640451
71.43400000000001,0.07899921560655043,0.07899921560655043
71.435,0.06428099345936467,0.06428099345936467
71.436,0.0457817795059734,0.0457817795059734
71.43700000000001,0.02640602247830115,0.02640602247830115
71.438,0.010473063206591249,0.010473063206591249
71.43900000000001,0.0025115711886734005,0.0025115711886734005
71.44000000000001,0.005776128633707023,0.005776128633707023
71.441,0.020992986138548053,0.020992986138548053
71.44200000000001,0.045799773301823166,0.045799773301823166
71.44300000000001,0.07513165667889865,0.07513165667889865
71.444,0.10249319190564266,0.10249319190564266
71.44500000000001,0.1217486168354609,0.1217486168354609
71.44600000000001,0.12887207118755484,0.12887207118755484
71.447,0.12309364519778554,0.12309364519778554
71.44800000000001,0.10706376833562148,0.10706376833562148
71.44900000000001,0.08597643157572654,0.08597643157572654
71.45,0.06593350484987703,0.06593350484987703
71.45100000000001,0.05208101319234615,0.05208101319234615
71.45200000000001,0.04711837526404472,0.04711837526404472
71.453,0.05064966879256727,0.05064966879256727
71.45400000000001,0.05955831729147576,0.05955831729147576
71.45500000000001,0.06924308287986003,0.06924308287986003
71.456,0.07527206983522894,0.07527206983522894
71.45700000000001,0.07488753265818682,0.07488753265818682
71.45800000000001,0.06786640675004119,0.06786640675004119
71.459,0.05647950998845408,0.05647950998845408
71.46000000000001,0.0446091187383022,0.0446091187383022
71.46100000000001,0.03636776928416752,0.03636776928416752
71.462,0.0347134714012618,0.0347134714012618
71.46300000000001,0.04053006588341379,0.04053006588341379
71.46400000000001,0.05245320760083105,0.05245320760083105
71.465,0.06744641330998946,0.06744641330998946
71.46600000000001,0.08187041755707836,0.08187041755707836
71.46700000000001,0.09263591682330907,0.09263591682330907
71.468,0.09803467259055099,0.09803467259055099
71.46900000000001,0.09799669638325637,0.09799669638325637
71.47000000000001,0.09375705861929196,0.09375705861929196
71.471,0.08714116054669918,0.08714116054669918
71.47200000000001,0.07980579672887389,0.07980579672887389
71.47300000000001,0.07275874784489567,0.07275874784489567
71.474,0.06633280428260724,0.06633280428260724
71.47500000000001,0.06057402539094481,0.06057402539094481
71.47600000000001,0.05580890283121054,0.05580890283121054
71.477,0.05306288870542053,0.05306288870542053
71.47800000000001,0.054054724564112755,0.054054724564112755
71.479,0.06067068380130913,0.06067068380130913
71.48,0.07406112569892542,0.07406112569892542
71.48100000000001,0.0937026179642726,0.0937026179642726
71.482,0.11684612968570263,0.11684612968570263
71.483,0.1386832476138662,0.1386832476138662
71.48400000000001,0.15332832646477446,0.15332832646477446
71.485,0.15541309890182298,0.15541309890182298
71.486,0.14183084981112115,0.14183084981112115
71.48700000000001,0.11305079908351079,0.11305079908351079
71.488,0.07350453251140787,0.07350453251140787
71.489,0.030811107677157334,0.030811107677157334
71.49000000000001,0.006025196732607041,-0.006025196732607041
71.491,0.02896252682682643,-0.02896252682682643
71.492,0.03312496202523074,-0.03312496202523074
71.49300000000001,0.018182710205988495,-0.018182710205988495
71.494,0.011536530537341605,0.011536530537341605
71.495,0.048264335675406,0.048264335675406
71.49600000000001,0.08298125247695154,0.08298125247695154
71.497,0.10791788128462199,0.10791788128462199
71.498,0.11860967820388302,0.11860967820388302
71.49900000000001,0.11489477530949377,0.11489477530949377
71.5,0.10058606340205034,0.10058606340205034
71.501,0.08197274312939484,0.08197274312939484
71.50200000000001,0.06567275646594117,0.06567275646594117
71.503,0.05654654558229266,0.05654654558229266
71.504,0.056335369434633575,0.056335369434633575
71.50500000000001,0.06342441064566495,0.06342441064566495
71.506,0.07374421960895172,0.07374421960895172
71.507,0.08244531604148841,0.08244531604148841
71.50800000000001,0.08573622922953783,0.08573622922953783
71.509,0.08224333423696772,0.08224333423696772
71.51,0.07343671865482215,0.07343671865482215
71.51100000000001,0.06300175837500732,0.06300175837500732
71.512,0.055404058778759646,0.055404058778759646
71.513,0.054170639060653114,0.054170639060653114
71.51400000000001,0.060501523244810285,0.060501523244810285
71.515,0.07270602816973737,0.07270602816973737
71.516,0.08667132422358304,0.08667132422358304
71.51700000000001,0.09721654366512245,0.09721654366512245
71.518,0.09988350165162885,0.09988350165162885
71.519,0.09256475816525378,0.09256475816525378
71.52000000000001,0.07641868588432654,0.07641868588432654
71.521,0.05575031743901726,0.05575031743901726
71.522,0.03686866161342239,0.03686866161342239
71.52300000000001,0.026257293760299394,0.026257293760299394
71.524,0.028611636321492107,0.028611636321492107
71.525,0.04533772180834261,0.04533772180834261
71.52600000000001,0.07396502239460068,0.07396502239460068
71.527,0.10864932953108086,0.10864932953108086
71.528,0.14161932943920985,0.14161932943920985
71.52900000000001,0.16515107524527406,0.16515107524527406
71.53,0.1735157622755985,0.1735157622755985
71.531,0.16437254906134258,0.16437254906134258
71.53200000000001,0.1392532433669058,0.1392532433669058
71.533,0.10305065640427058,0.10305065640427058
71.534,0.06269655790139472,0.06269655790139472
71.53500000000001,0.025421036749362136,0.025421036749362136
71.536,0.0029293714433921147,-0.0029293714433921147
71.537,0.019086416922394878,-0.019086416922394878
71.53800000000001,0.022798930984828436,-0.022798930984828436
71.539,0.016465342783319015,-0.016465342783319015
71.54,0.004124359668160049,-0.004124359668160049
71.54100000000001,0.009876275131659229,0.009876275131659229
71.542,0.022151941099570527,0.022151941099570527
71.543,0.03115445572707709,0.03115445572707709
71.54400000000001,0.03743232990138701,0.03743232990138701
71.545,0.04323671478945035,0.04323671478945035
71.546,0.051606980574424366,0.051606980574424366
71.54700000000001,0.06520465656459651,0.06520465656459651
71.548,0.08522787168182133,0.08522787168182133
71.549,0.11071696705315204,0.11071696705315204
71.55000000000001,0.13846169393839736,0.13846169393839736
71.551,0.16356540871864822,0.16356540871864822
71.552,0.18054895047475683,0.18054895047475683
71.55300000000001,0.1847287054393112,0.1847287054393112
71.554,0.1735178869400562,0.1735178869400562
71.555,0.14730199516991527,0.14730199516991527
71.55600000000001,0.10963282685848852,0.10963282685848852
71.557,0.06665084469468252,0.06665084469468252
71.558,0.025843288514986407,0.025843288514986407
71.55900000000001,0.005576221612532017,-0.005576221612532017
71.56,0.022271132186742926,-0.022271132186742926
71.561,0.021965323218192,-0.021965323218192
71.56200000000001,0.005904088983518796,-0.005904088983518796
71.563,0.02152443274050686,0.02152443274050686
71.56400000000001,0.0539045983259161,0.0539045983259161
71.56500000000001,0.08434919982959221,0.08434919982959221
71.566,0.1070883351000933,0.1070883351000933
71.56700000000001,0.11868610399132362,0.11868610399132362
71.56800000000001,0.11859536225718159,0.11859536225718159
71.569,0.10895377370902448,0.10895377370902448
71.57000000000001,0.09373675895008393,0.09373675895008393
71.57100000000001,0.0775512421219573,0.0775512421219573
71.572,0.06442986840930276,0.06442986840930276
71.57300000000001,0.05695029177436006,0.05695029177436006
71.57400000000001,0.05587539371294237,0.05587539371294237
71.575,0.06033412460293763,0.06033412460293763
71.57600000000001,0.06839831438272226,0.06839831438272226
71.57700000000001,0.0778104179931971,0.0778104179931971
71.578,0.08660847883772749,0.08660847883772749
71.57900000000001,0.09347246244917118,0.09347246244917118
71.58000000000001,0.09774567864506056,0.09774567864506056
71.581,0.09921525922718466,0.09921525922718466
71.58200000000001,0.097818349008441,0.097818349008441
71.58300000000001,0.09344777641272772,0.09344777641272772
71.584,0.08596434585555901,0.08596434585555901
71.58500000000001,0.075412712269191,0.075412712269191
71.58600000000001,0.06233050008075813,0.06233050008075813
71.587,0.04798061400334763,0.04798061400334763
71.58800000000001,0.0343502947807337,0.0343502947807337
71.58900000000001,0.023844183313210365,0.023844183313210365
71.59,0.018721288025129068,0.018721288025129068
71.59100000000001,0.020439785936315902,0.020439785936315902
71.59200000000001,0.029133150748045455,0.029133150748045455
71.593,0.04341956991638307,0.04341956991638307
71.59400000000001,0.06064726562414835,0.06064726562414835
71.59500000000001,0.07753395440191113,0.07753395440191113
71.596,0.09102011995889603,0.09102011995889603
71.59700000000001,0.09907358567893643,0.09907358567893643
71.59800000000001,0.10118870730876495,0.10118870730876495
71.599,0.09841813358053586,0.09841813358053586
71.60000000000001,0.09292751374003583,0.09292751374003583
71.60100000000001,0.08722166442864032,0.08722166442864032
71.602,0.08329972173700217,0.08329972173700217
71.60300000000001,0.08201866466190677,0.08201866466190677
71.604,0.08287163712881362,0.08287163712881362
71.605,0.08424515760142359,0.08424515760142359
71.60600000000001,0.08405706817144121,0.08405706817144121
71.607,0.08055088407461874,0.08055088407461874
71.608,0.07297474095704937,0.07297474095704937
71.60900000000001,0.0619190141969177,0.0619190141969177
71.61,0.04920780367758626,0.04920780367758626
71.611,0.03739205784729305,0.03739205784729305
71.61200000000001,0.0290226837259262,0.0290226837259262
71.613,0.025946466346574715,0.025946466346574715
71.614,0.02884655039989048,0.02884655039989048
71.61500000000001,0.03715387458851227,0.03715387458851227
71.616,0.04932320199789553,0.04932320199789553
71.617,0.06334575002415521,0.06334575002415521
71.61800000000001,0.07730221676544624,0.07730221676544624
71.619,0.08976645743046086,0.08976645743046086
71.62,0.09994451840018637,0.09994451840018637
71.62100000000001,0.10754515447715596,0.10754515447715596
71.622,0.11248317294114529,0.11248317294114529
71.623,0.1145768830528251,0.1145768830528251
71.62400000000001,0.11339473031381786,0.11339473031381786
71.625,0.1083382525876515,0.1083382525876515
71.626,0.0989460089381633,0.0989460089381633
71.62700000000001,0.08530544654640093,0.08530544654640093
71.628,0.06840356519996393,0.06840356519996393
71.629,0.050253656727306195,0.050253656727306195
71.63000000000001,0.03370237199267945,0.03370237199267945
71.631,0.021925439413960524,0.021925439413960524
71.632,0.017725588565011385,0.017725588565011385
71.63300000000001,0.022817223441985002,0.022817223441985002
71.634,0.03729643925887194,0.03729643925887194
71.635,0.05944908749689359,0.05944908749689359
71.63600000000001,0.08596019970509206,0.08596019970509206
71.637,0.11248411626233223,0.11248411626233223
71.638,0.1344469926313594,0.1344469926313594
71.63900000000001,0.14790462219063372,0.14790462219063372
71.64,0.15027702126208098,0.15027702126208098
71.641,0.14082050653096756,0.14082050653096756
71.64200000000001,0.12076154608958567,0.12076154608958567
71.643,0.09308526675956941,0.09308526675956941
71.644,0.06202999360636596,0.06202999360636596
71.64500000000001,0.03238008917986468,0.03238008917986468
71.646,0.008672357926919005,0.008672357926919005
71.647,0.005560254642582474,-0.005560254642582474
71.64800000000001,0.008387328460637944,-0.008387328460637944
71.649,0.00018246027916513086,0.00018246027916513086
71.65,0.01819955374643989,0.01819955374643989
71.65100000000001,0.04212884449698162,0.04212884449698162
71.652,0.06751809224656502,0.06751809224656502
71.653,0.08986386405194047,0.08986386405194047
71.65400000000001,0.1055010990704004,0.1055010990704004
71.655,0.11231804047377958,0.11231804047377958
71.656,0.11012317107745795,0.11012317107745795
