Czas,AbsSum,Sum
189.58,0.05534056456703773,-0.05534056456703773
189.581,0.0477135453741403,-0.0477135453741403
189.582,0.031793959520332704,-0.031793959520332704
189.583,0.014834129416937403,-0.014834129416937403
189.584,0.0017168211731447558,-0.0017168211731447558
189.585,0.00638907518902343,0.00638907518902343
189.586,0.011844892084718728,0.011844892084718728
189.587,0.01902427810084717,0.01902427810084717
189.588,0.03211971330362484,0.03211971330362484
189.589,0.053132457416744217,0.053132457416744217
189.59,0.08078623338269963,0.08078623338269963
189.591,0.1107296353201872,0.1107296353201872
189.592,0.136909950533892,0.136909950533892
189.593,0.15358948075033796,0.15358948075033796
189.594,0.15727496006402886,0.15727496006402886
189.595,0.1478970071304273,0.1478970071304273
189.596,0.1288671567468529,0.1288671567468529
189.597,0.10603693382409207,0.10603693382409207
189.598,0.08594157155433835,0.08594157155433835
189.599,0.07391212600450814,0.07391212600450814
189.6,0.07263200756686672,0.07263200756686672
189.601,0.08152330852628409,0.08152330852628409
189.602,0.09706051455560649,0.09706051455560649
189.603,0.11383171597828534,0.11383171597828534
189.604,0.12598784591199763,0.12598784591199763
189.605,0.12867760867583433,0.12867760867583433
189.606,0.11914351975764581,0.11914351975764581
189.607,0.0972980107816237,0.0972980107816237
189.608,0.06574358820673742,0.06574358820673742
189.609,0.029302396546947218,0.029302396546947218
189.61,0.005832488541265168,-0.005832488541265168
189.611,0.033198717946602896,-0.033198717946602896
189.612,0.047282143068068216,-0.047282143068068216
189.613,0.044680893642107256,-0.044680893642107256
189.614,0.025000725073461072,-0.025000725073461072
189.615,0.00875993381391793,0.00875993381391793
189.616,0.05053863173053785,0.05053863173053785
189.617,0.09232365345435078,0.09232365345435078
189.618,0.12591444242342198,0.12591444242342198
189.619,0.1449501445902328,0.1449501445902328
189.62,0.1466566947242649,0.1466566947242649
189.621,0.13274320895097302,0.13274320895097302
189.622,0.10905672205221051,0.10905672205221051
189.623,0.08395551802445733,0.08395551802445733
189.624,0.06578650133593733,0.06578650133593733
189.625,0.060205576204342304,0.060205576204342304
189.626,0.06822016165914557,0.06822016165914557
189.627,0.08567845515904993,0.08567845515904993
189.628,0.104499772252582,0.104499772252582
189.629,0.11535878330539551,0.11535878330539551
189.63,0.11099893350706891,0.11099893350706891
189.631,0.08905661208850191,0.08905661208850191
189.632,0.05335771583531135,0.05335771583531135
189.633,0.013107050439365997,0.013107050439365997
189.634,0.01990476101559735,-0.01990476101559735
189.635,0.03523661281752144,-0.03523661281752144
189.636,0.027564206187662754,-0.027564206187662754
189.637,0.0010681471242630636,0.0010681471242630636
189.638,0.04141855103664871,0.04141855103664871
189.639,0.07975598451627053,0.07975598451627053
189.64,0.10233487855401102,0.10233487855401102
189.641,0.10019437494685457,0.10019437494685457
189.642,0.0726366902404132,0.0726366902404132
189.643,0.028099209140026282,0.028099209140026282
189.644,0.018037104160200546,-0.018037104160200546
189.645,0.048131339334249956,-0.048131339334249956
189.646,0.04800637046985046,-0.04800637046985046
189.647,0.011841717060345425,-0.011841717060345425
189.648,0.05542983617378927,0.05542983617378927
189.649,0.13910597297926808,0.13910597297926808
189.65,0.21885722538715968,0.21885722538715968
189.651,0.2747471419960188,0.2747471419960188
189.652,0.2932014298587695,0.2932014298587695
189.653,0.27099057843174945,0.27099057843174945
189.654,0.21593745211101711,0.21593745211101711
189.655,0.1441483305608866,0.1441483305608866
189.656,0.07472431528671653,0.07472431528671653
189.657,0.02374308008315751,0.02374308008315751
189.658,0.0004782113317410852,-0.0004782113317410852
189.659,0.000704859477967501,0.000704859477967501
189.66,0.01772812567711224,0.01772812567711224
189.661,0.0370395010686313,0.0370395010686313
189.662,0.0465132250663316,0.0465132250663316
189.663,0.040106965219324886,0.040106965219324886
189.664,0.02010986231971912,0.02010986231971912
189.665,0.003794831401574106,-0.003794831401574106
189.666,0.018288155362401137,-0.018288155362401137
189.667,0.011627473630533736,-0.011627473630533736
189.668,0.0215689752749757,0.0215689752749757
189.669,0.07769352693707998,0.07769352693707998
189.67,0.14464497435309553,0.14464497435309553
189.671,0.20532160517361664,0.20532160517361664
189.672,0.24293974611915625,0.24293974611915625
189.673,0.24637767735812832,0.24637767735812832
189.674,0.21374612820978278,0.21374612820978278
189.675,0.15300796542387496,0.15300796542387496
189.676,0.0794846109746079,0.0794846109746079
189.677,0.011135493774035554,0.011135493774035554
189.678,0.036784181353240464,-0.036784181353240464
189.679,0.0559323784760003,-0.0559323784760003
189.68,0.04665456787469069,-0.04665456787469069
189.681,0.016901126048285864,-0.016901126048285864
189.682,0.021151310020591785,0.021151310020591785
189.683,0.05547246496440006,0.05547246496440006
189.684,0.07799169960763797,0.07799169960763797
189.685,0.08660210257662793,0.08660210257662793
189.686,0.0848291367311318,0.0848291367311318
189.687,0.07950286539029672,0.07950286539029672
189.688,0.07746331642105853,0.07746331642105853
189.689,0.08260538840331555,0.08260538840331555
189.69,0.09435475636861179,0.09435475636861179
189.691,0.10806385377938166,0.10806385377938166
189.692,0.1170681483963727,0.1170681483963727
189.693,0.11553091518133685,0.11553091518133685
189.694,0.1009490332598908,0.1009490332598908
189.695,0.07537020725140775,0.07537020725140775
189.696,0.044895826475428224,0.044895826475428224
189.697,0.01770083136092615,0.01770083136092615
189.698,0.0013399807699361332,0.0013399807699361332
189.699,0.0003332569208567282,0.0003332569208567282
189.7,0.014864680547298281,0.014864680547298281
189.701,0.040969729576892266,0.040969729576892266
189.702,0.07201876021526044,0.07201876021526044
189.703,0.10085109694214278,0.10085109694214278
189.704,0.12174409812297604,0.12174409812297604
189.705,0.13156111694727834,0.13156111694727834
189.706,0.12982568129030736,0.12982568129030736
189.707,0.11793591253819424,0.11793591253819424
189.708,0.09806462865363508,0.09806462865363508
189.709,0.07235208474155241,0.07235208474155241
189.71,0.042773872259346035,0.042773872259346035
189.711,0.011664230160592037,0.011664230160592037
189.712,0.017518726512126492,-0.017518726512126492
189.713,0.03979876687941508,-0.03979876687941508
189.714,0.04917083512275966,-0.04917083512275966
189.715,0.04010938388904017,-0.04010938388904017
189.716,0.009725237318819913,-0.009725237318819913
189.717,0.040218402786233565,0.040218402786233565
189.718,0.10235442157834407,0.10235442157834407
189.719,0.16450308316609652,0.16450308316609652
189.72,0.2123143875024165,0.2123143875024165
189.721,0.2331679141387175,0.2331679141387175
189.722,0.22016766798504506,0.22016766798504506
189.723,0.17486993426101116,0.17486993426101116
189.724,0.10766583010734498,0.10766583010734498
189.725,0.035445633111822916,0.035445633111822916
189.726,0.022925858868704685,-0.022925858868704685
189.727,0.052008390840846075,-0.052008390840846075
189.728,0.044367085947898954,-0.044367085947898954
189.729,0.0028296753974726974,-0.0028296753974726974
189.73,0.0603709764387641,0.0603709764387641
189.731,0.12734821775726934,0.12734821775726934
189.732,0.1800206861907534,0.1800206861907534
189.733,0.20551283886035465,0.20551283886035465
189.734,0.19974628456617727,0.19974628456617727
189.735,0.1680864158493356,0.1680864158493356
189.736,0.122914766666395,0.122914766666395
189.737,0.07904422595766936,0.07904422595766936
189.738,0.048614080382688885,0.048614080382688885
189.739,0.03724140427709344,0.03724140427709344
189.74,0.042717463586883664,0.042717463586883664
189.741,0.05660014100290578,0.05660014100290578
189.742,0.06800520698878199,0.06800520698878199
189.743,0.06811933980641527,0.06811933980641527
189.744,0.05372704724339017,0.05372704724339017
189.745,0.028442590383168653,0.028442590383168653
189.746,0.0012168911957686213,0.0012168911957686213
189.747,0.01727766622754423,-0.01727766622754423
189.748,0.018977668669667325,-0.018977668669667325
189.749,0.0017919577739093917,-0.0017919577739093917
189.75,0.02932656268239553,0.02932656268239553
189.751,0.06406265856379001,0.06406265856379001
189.752,0.09058752220715727,0.09058752220715727
189.753,0.10014379846716337,0.10014379846716337
189.754,0.09061589634057965,0.09061589634057965
189.755,0.06766802522686088,0.06766802522686088
189.756,0.04290859773471167,0.04290859773471167
189.757,0.02964462224295672,0.02964462224295672
189.758,0.03771878640512161,0.03771878640512161
189.759,0.06932693253491551,0.06932693253491551
189.76,0.1174314000951302,0.1174314000951302
189.761,0.16750090909406556,0.16750090909406556
189.762,0.20212617255539667,0.20212617255539667
189.763,0.2070021881975701,0.2070021881975701
189.764,0.1762172877850665,0.1762172877850665
189.765,0.11495503806074381,0.11495503806074381
189.766,0.03855529782237599,0.03855529782237599
189.767,0.0318878296975188,-0.0318878296975188
189.768,0.0760161760167033,-0.0760161760167033
189.769,0.08066643783269734,-0.08066643783269734
189.77,0.04415101313932057,-0.04415101313932057
189.771,0.02308069387842715,0.02308069387842715
189.772,0.10164227192317221,0.10164227192317221
189.773,0.16922949834934053,0.16922949834934053
189.774,0.2074869259460277,0.2074869259460277
189.775,0.20748894357708414,0.20748894357708414
189.776,0.17209225370963788,0.17209225370963788
189.777,0.11448172964257841,0.11448172964257841
189.778,0.053501764612688296,0.053501764612688296
189.779,0.007406853358985055,0.007406853358985055
189.78,0.01186845033505135,-0.01186845033505135
189.781,0.002071045379158587,-0.002071045379158587
189.782,0.02936506079510015,0.02936506079510015
189.783,0.06849576103984756,0.06849576103984756
189.784,0.09999853913539081,0.09999853913539081
189.785,0.11243621964472483,0.11243621964472483
189.786,0.10187943097204144,0.10187943097204144
189.787,0.07276317968520352,0.07276317968520352
189.788,0.03585226022444088,0.03585226022444088
189.789,0.004180969335703777,0.004180969335703777
189.79,0.011525531299914293,-0.011525531299914293
189.791,0.00635170539093266,-0.00635170539093266
189.792,0.017516636629344662,0.017516636629344662
189.793,0.052010028439471556,0.052010028439471556
189.794,0.08631735273893959,0.08631735273893959
189.795,0.11073748788168092,0.11073748788168092
189.796,0.1198581290255345,0.1198581290255345
189.797,0.11400542024066596,0.11400542024066596
189.798,0.09858420516318978,0.09858420516318978
189.799,0.08169536546740064,0.08169536546740064
189.8,0.07099700939374687,0.07099700939374687
189.801,0.07097571870904296,0.07097571870904296
189.802,0.08156558966115202,0.08156558966115202
189.803,0.0985054042970912,0.0985054042970912
189.804,0.11517493759617059,0.11517493759617059
189.805,0.12514057739882567,0.12514057739882567
189.806,0.12444346339400791,0.12444346339400791
189.807,0.11283049613744578,0.11283049613744578
189.808,0.09357396871041335,0.09357396871041335
189.809,0.07206679478,0.07206679478
189.81,0.053811299843818716,0.053811299843818716
189.811,0.04258838563441536,0.04258838563441536
189.812,0.03945618741494572,0.03945618741494572
189.813,0.04285666072608629,0.04285666072608629
189.814,0.04966188921810355,0.04966188921810355
189.815,0.05664564199722211,0.05664564199722211
189.816,0.06174716062124874,0.06174716062124874
189.817,0.06463526283440868,0.06463526283440868
189.818,0.06641043518553813,0.06641043518553813
189.819,0.06865867267892978,0.06865867267892978
189.82,0.07233907071059265,0.07233907071059265
189.821,0.07704202217004119,0.07704202217004119
189.822,0.08097970009118605,0.08097970009118605
189.823,0.08174189541791121,0.08174189541791121
189.824,0.07750567461343749,0.07750567461343749
189.825,0.06816948220833519,0.06816948220833519
189.826,0.05588257627715776,0.05588257627715776
189.827,0.04466305958606309,0.04466305958606309
189.828,0.03915746314655344,0.03915746314655344
189.829,0.0429513688781793,0.0429513688781793
189.83,0.05705234038914009,0.05705234038914009
189.831,0.07914570606406812,0.07914570606406812
189.832,0.1039708162812012,0.1039708162812012
189.833,0.12476930565658484,0.12476930565658484
189.834,0.1353623844179006,0.1353623844179006
189.835,0.1321677364347178,0.1321677364347178
189.836,0.11546180378184068,0.11546180378184068
189.837,0.08943595677193183,0.08943595677193183
189.838,0.06100114354756414,0.06100114354756414
189.839,0.03772171981657846,0.03772171981657846
189.84,0.025554849276918423,0.025554849276918423
189.841,0.027133823805448376,0.027133823805448376
189.842,0.041142126205987894,0.041142126205987894
189.843,0.06294970338223171,0.06294970338223171
189.844,0.08625658141178993,0.08625658141178993
189.845,0.10515956027877271,0.10515956027877271
189.846,0.11593604284314996,0.11593604284314996
189.847,0.11796104693958509,0.11796104693958509
189.848,0.1134900887395649,0.1134900887395649
189.849,0.10643772688187458,0.10643772688187458
189.85,0.10062151421462207,0.10062151421462207
189.851,0.09811094491220729,0.09811094491220729
189.852,0.09826972769630227,0.09826972769630227
189.853,0.0978326433612029,0.0978326433612029
189.854,0.09200448362057778,0.09200448362057778
189.855,0.0762278856648626,0.0762278856648626
189.856,0.04804840740689076,0.04804840740689076
189.857,0.008472656748884866,0.008472656748884866
189.858,0.03763011396128624,-0.03763011396128624
189.859,0.08224748391518777,-0.08224748391518777
189.86,0.11590520871821952,-0.11590520871821952
189.861,0.1298842465328388,-0.1298842465328388
189.862,0.1184073003603614,-0.1184073003603614
189.863,0.08024349621498228,-0.08024349621498228
189.864,0.019332574874368125,-0.019332574874368125
189.865,0.055729337009063906,0.055729337009063906
189.866,0.1332364363677121,0.1332364363677121
189.867,0.20062032335224522,0.20062032335224522
189.868,0.24692091003503402,0.24692091003503402
189.869,0.2649637970797507,0.2649637970797507
189.87,0.2527903563474936,0.2527903563474936
189.871,0.2140388204699566,0.2140388204699566
189.872,0.15718691562180176,0.15718691562180176
189.873,0.09380160161401685,0.09380160161401685
189.874,0.036155766880230145,0.036155766880230145
189.875,0.005279745301128402,-0.005279745301128402
189.876,0.02391612500140461,-0.02391612500140461
189.877,0.018227162808158615,-0.018227162808158615
189.878,0.00824064828917237,0.00824064828917237
189.879,0.04801895774892917,0.04801895774892917
189.88,0.09172636822864844,0.09172636822864844
189.881,0.13040609723340757,0.13040609723340757
189.882,0.1575744933058012,0.1575744933058012
189.883,0.17044624876037417,0.17044624876037417
189.884,0.17004358306659495,0.17004358306659495
189.885,0.16022923817742418,0.16022923817742418
189.886,0.14602623980103124,0.14602623980103124
189.887,0.13179744012042782,0.13179744012042782
189.888,0.11988345851112148,0.11988345851112148
189.889,0.11012631803519879,0.11012631803519879
189.89,0.10039208703062008,0.10039208703062008
189.891,0.08785452564486418,0.08785452564486418
189.892,0.07053463010117067,0.07053463010117067
189.893,0.04850312629053932,0.04850312629053932
189.894,0.024277915457870503,0.024277915457870503
189.895,0.0022440533056335976,0.0022440533056335976
189.896,0.01271477982653213,-0.01271477982653213
189.897,0.016888103643333485,-0.016888103643333485
189.898,0.009106952617673802,-0.009106952617673802
189.899,0.008697889041428652,0.008697889041428652
189.9,0.0319664184860331,0.0319664184860331
189.901,0.0548563940593243,0.0548563940593243
189.902,0.07199746565958498,0.07199746565958498
189.903,0.08003894515479848,0.08003894515479848
189.904,0.0784613226109212,0.0784613226109212
189.905,0.06940233179704802,0.06940233179704802
189.906,0.0566197756398652,0.0566197756398652
189.907,0.04403294381572298,0.04403294381572298
189.908,0.034428111718145304,0.034428111718145304
189.909,0.028824191152489798,0.028824191152489798
189.91,0.026706013151491348,0.026706013151491348
189.911,0.02695889455038869,0.02695889455038869
189.912,0.029030210825434333,0.029030210825434333
189.913,0.033730996843521543,0.033730996843521543
189.914,0.04322800029002938,0.04322800029002938
189.915,0.06011925312064137,0.06011925312064137
189.916,0.08590271238391622,0.08590271238391622
189.917,0.11946821690855125,0.11946821690855125
189.918,0.15632604521659244,0.15632604521659244
189.919,0.18907530359625757,0.18907530359625757
189.92,0.20917105680972115,0.20917105680972115
189.921,0.20952807602968515,0.20952807602968515
189.922,0.18710221466161348,0.18710221466161348
189.923,0.1444861482309452,0.1444861482309452
189.924,0.0898123944936875,0.0898123944936875
189.925,0.03480696196518318,0.03480696196518318
189.926,0.008502624227138544,-0.008502624227138544
189.927,0.03139089435732678,-0.03139089435732678
189.928,0.031123854713517973,-0.031123854713517973
189.929,0.011751222088528857,-0.011751222088528857
189.93,0.017364326010521403,0.017364326010521403
189.931,0.044857886694147586,0.044857886694147586
189.932,0.061408648710026936,0.061408648710026936
189.933,0.06309916859351183,0.06309916859351183
189.934,0.05284666103381963,0.05284666103381963
189.935,0.03930768406220331,0.03930768406220331
189.936,0.03355056093534081,0.03355056093534081
189.937,0.04462103534418693,0.04462103534418693
189.938,0.07559038145099972,0.07559038145099972
189.939,0.1215845605609549,0.1215845605609549
189.94,0.17065342957377672,0.17065342957377672
189.941,0.20735499785057954,0.20735499785057954
189.942,0.21793971690829284,0.21793971690829284
189.943,0.19537957890623847,0.19537957890623847
189.944,0.14244212223751185,0.14244212223751185
189.945,0.07160320375258444,0.07160320375258444
189.946,0.001641400569799556,0.001641400569799556
189.947,0.04809119736038814,-0.04809119736038814
189.948,0.06387434777363188,-0.06387434777363188
189.949,0.04221102003479571,-0.04221102003479571
189.95,0.008811532168356395,0.008811532168356395
189.951,0.0719583837529687,0.0719583837529687
189.952,0.1263714745934108,0.1263714745934108
189.953,0.15440266865075802,0.15440266865075802
189.954,0.14748821672325962,0.14748821672325962
189.955,0.10907270696669502,0.10907270696669502
189.956,0.05354950112617951,0.05354950112617951
189.957,0.001510873890787856,0.001510873890787856
189.958,0.02715287248054754,-0.02715287248054754
189.959,0.02002556627389318,-0.02002556627389318
189.96,0.023449771101353933,0.023449771101353933
189.961,0.0914504789394075,0.0914504789394075
189.962,0.16331717036086246,0.16331717036086246
189.963,0.216013479731068,0.216013479731068
189.964,0.23139767515136045,0.23139767515136045
189.965,0.20194937535357993,0.20194937535357993
189.966,0.13312714479790566,0.13312714479790566
189.967,0.04166066646379418,0.04166066646379418
189.968,0.04958335328132846,-0.04958335328132846
189.969,0.11843072951146993,-0.11843072951146993
189.97,0.1497054462669506,-0.1497054462669506
189.971,0.13905291650358498,-0.13905291650358498
189.972,0.09322053964351984,-0.09322053964351984
189.973,0.026945407705961544,-0.026945407705961544
189.974,0.04229958794606259,0.04229958794606259
189.975,0.09982565175456037,0.09982565175456037
189.976,0.1376814033095446,0.1376814033095446
189.977,0.1558700278043541,0.1558700278043541
189.978,0.16068375877075924,0.16068375877075924
189.979,0.1610190021747706,0.1610190021747706
189.98,0.16418043000660187,0.16418043000660187
189.981,0.17275583579406684,0.17275583579406684
189.982,0.18365043139567905,0.18365043139567905
189.983,0.1895154272525037,0.1895154272525037
189.984,0.18191569964867238,0.18191569964867238
189.985,0.15497674937872352,0.15497674937872352
189.986,0.10813506667233641,0.10813506667233641
189.987,0.047004783356294544,0.047004783356294544
189.988,0.01790079474437012,-0.01790079474437012
189.989,0.07407401311910233,-0.07407401311910233
189.99,0.11047878203366135,-0.11047878203366135
189.991,0.12038651938124512,-0.12038651938124512
189.992,0.10270700259482024,-0.10270700259482024
189.993,0.0615511712259319,-0.0615511712259319
189.994,0.004421456722714656,-0.004421456722714656
189.995,0.06012457683518169,0.06012457683518169
189.996,0.12441107390858219,0.12441107390858219
189.997,0.1825532114831876,0.1825532114831876
189.998,0.23024532688667043,0.23024532688667043
189.999,0.26387095491274093,0.26387095491274093
190.0,0.27968742387959034,0.27968742387959034
190.001,0.2737868258302427,0.2737868258302427
190.002,0.24314148416308234,0.24314148416308234
190.003,0.1874681180735862,0.1874681180735862
190.004,0.11113515171223987,0.11113515171223987
190.005,0.024121289164268367,0.024121289164268367
190.006,0.05876856389013574,-0.05876856389013574
190.007,0.12065249006365641,-0.12065249006365641
190.008,0.14675759820399503,-0.14675759820399503
190.009,0.12886435593279755,-0.12886435593279755
190.01,0.06854252092391844,-0.06854252092391844
190.011,0.022070909030090125,0.022070909030090125
190.012,0.1225143374727824,0.1225143374727824
190.013,0.20888024531610472,0.20888024531610472
190.014,0.26005334901632216,0.26005334901632216
190.015,0.2635067096681305,0.2635067096681305
190.016,0.218893530642974,0.218893530642974
190.017,0.13828563381903414,0.13828563381903414
190.018,0.04291111397716252,0.04291111397716252
190.019,0.042687202851409256,-0.042687202851409256
190.02,0.09736149389362514,-0.09736149389362514
190.021,0.10897236850470082,-0.10897236850470082
190.022,0.0773023363347467,-0.0773023363347467
190.023,0.013516639631022898,-0.013516639631022898
190.024,0.06352243203104035,0.06352243203104035
190.025,0.13285784835060488,0.13285784835060488
190.026,0.17722551531362707,0.17722551531362707
190.027,0.18735534091879624,0.18735534091879624
190.028,0.1636826695285416,0.1636826695285416
190.029,0.11523156877724294,0.11523156877724294
190.03,0.05629442427979847,0.05629442427979847
190.031,0.002118287008934683,0.002118287008934683
190.032,0.035045053562211104,-0.035045053562211104
190.033,0.048463815949441824,-0.048463815949441824
190.034,0.03755613761493748,-0.03755613761493748
190.035,0.006812026849971176,-0.006812026849971176
190.036,0.03631357789558565,0.03631357789558565
190.037,0.08367563567974234,0.08367563567974234
190.038,0.12816735940248325,0.12816735940248325
190.039,0.16455945991679344,0.16455945991679344
190.04,0.18952949331250313,0.18952949331250313
190.041,0.20125954006898428,0.20125954006898428
190.042,0.19905262948353575,0.19905262948353575
190.043,0.18326407109443354,0.18326407109443354
190.044,0.1555596777061854,0.1555596777061854
190.045,0.11924494911344086,0.11924494911344086
190.046,0.07928902419237027,0.07928902419237027
190.047,0.041755256152477216,0.041755256152477216
190.048,0.012611525561974757,0.012611525561974757
190.049,0.003787491221535211,-0.003787491221535211
190.05,0.006023424540232303,-0.006023424540232303
190.051,0.003806755546993612,0.003806755546993612
190.052,0.020595121746135314,0.020595121746135314
190.053,0.03776924559364314,0.03776924559364314
190.054,0.04943086850068501,0.04943086850068501
190.055,0.052364857716419744,0.052364857716419744
190.056,0.047180986749209675,0.047180986749209675
190.057,0.038117566261096636,0.038117566261096636
190.058,0.03150053000811326,0.03150053000811326
190.059,0.03334863880300554,0.03334863880300554
190.06,0.046958301228656296,0.046958301228656296
190.061,0.07135322847512282,0.07135322847512282
190.062,0.10121180828877563,0.10121180828877563
190.063,0.12837594559095478,0.12837594559095478
190.064,0.14447776327053763,0.14447776327053763
190.065,0.14380089789619888,0.14380089789619888
190.066,0.1253785753288723,0.1253785753288723
190.067,0.09357072852133563,0.09357072852133563
190.068,0.056878268382741126,0.056878268382741126
190.069,0.025363686929827267,0.025363686929827267
190.07,0.0075357838029535,0.0075357838029535
190.071,0.007746655780944689,0.007746655780944689
190.072,0.024971613099708412,0.024971613099708412
190.073,0.0533599878343205,0.0533599878343205
190.074,0.08432934732003505,0.08432934732003505
190.075,0.10944726444238406,0.10944726444238406
190.076,0.1230909325639955,0.1230909325639955
190.077,0.12398266553623105,0.12398266553623105
190.078,0.11512452572935739,0.11512452572935739
190.079,0.10223963949565329,0.10223963949565329
190.08,0.09135743537981234,0.09135743537981234
190.081,0.08646447930636758,0.08646447930636758
190.082,0.08808373000961489,0.08808373000961489
190.083,0.0932721066758011,0.0932721066758011
190.084,0.09698324983315598,0.09698324983315598
190.085,0.09423339469518521,0.09423339469518521
190.086,0.08222134151210136,0.08222134151210136
190.087,0.06159097318083573,0.06159097318083573
190.088,0.036366483201058175,0.036366483201058175
190.089,0.012602815234679543,0.012602815234679543
190.09,0.003719017866653518,-0.003719017866653518
190.091,0.00874396274747613,-0.00874396274747613
190.092,0.001968429239357694,-0.001968429239357694
190.093,0.013804895570889597,0.013804895570889597
190.094,0.033730092813123,0.033730092813123
190.095,0.05287354416192991,0.05287354416192991
190.096,0.06807058594299753,0.06807058594299753
190.097,0.07893572891980027,0.07893572891980027
190.098,0.08761736862230962,0.08761736862230962
190.099,0.09739261636967256,0.09739261636967256
190.1,0.11067495536684824,0.11067495536684824
190.101,0.12727058125412416,0.12727058125412416
190.102,0.14366062179127947,0.14366062179127947
190.103,0.15371855706899962,0.15371855706899962
190.104,0.15072563602028,0.15072563602028
190.105,0.1300236808561539,0.1300236808561539
190.106,0.09134340994745815,0.09134340994745815
190.107,0.03988946760652623,0.03988946760652623
190.108,0.014350806046949383,-0.014350806046949383
190.109,0.059006549252869855,-0.059006549252869855
190.11,0.08275475506730479,-0.08275475506730479
190.111,0.07871150370717883,-0.07871150370717883
190.112,0.046671598925752567,-0.046671598925752567
190.113,0.006573526786675332,0.006573526786675332
190.114,0.0689984667043646,0.0689984667043646
190.115,0.12667051896206627,0.12667051896206627
190.116,0.16761403465482672,0.16761403465482672
190.117,0.1850148740535824,0.1850148740535824
190.118,0.1787913010741229,0.1787913010741229
190.119,0.1550977224368575,0.1550977224368575
190.12,0.12399836146752952,0.12399836146752952
190.121,0.09612257197159524,0.09612257197159524
190.122,0.07940308217664316,0.07940308217664316
190.123,0.0769158856399279,0.0769158856399279
190.124,0.08642768783636923,0.08642768783636923
190.125,0.1016663366744357,0.1016663366744357
190.126,0.1147683178256571,0.1147683178256571
190.127,0.11901274527554229,0.11901274527554229
190.128,0.11092748030228283,0.11092748030228283
190.129,0.09113831484383472,0.09113831484383472
190.13,0.06380846222620784,0.06380846222620784
190.131,0.03500518286715537,0.03500518286715537
190.132,0.010661687251137808,0.010661687251137808
190.133,0.005129240454619599,-0.005129240454619599
190.134,0.010952242093211217,-0.010952242093211217
190.135,0.007872678119662302,-0.007872678119662302
190.136,0.0015604700909002123,0.0015604700909002123
190.137,0.014606421385191304,0.014606421385191304
190.138,0.029360001497542365,0.029360001497542365
190.139,0.04512618960947634,0.04512618960947634
190.14,0.06206726246019456,0.06206726246019456
190.141,0.08037238246173639,0.08037238246173639
190.142,0.09940279687921771,0.09940279687921771
190.143,0.11726864980861396,0.11726864980861396
190.144,0.1310982196433459,0.1310982196433459
190.145,0.13794917984513355,0.13794917984513355
190.146,0.13601275029046045,0.13601275029046045
190.147,0.12559964362818432,0.12559964362818432
190.148,0.10944262579033515,0.10944262579033515
190.149,0.09209375867314429,0.09209375867314429
190.15,0.07854562364483586,0.07854562364483586
190.151,0.07253006941378426,0.07253006941378426
190.152,0.07511585377001517,0.07511585377001517
190.153,0.08416399077124836,0.08416399077124836
190.154,0.09491807603210467,0.09491807603210467
190.155,0.10160149441209398,0.10160149441209398
190.156,0.09951009295812718,0.09951009295812718
190.157,0.08687152282383259,0.08687152282383259
190.158,0.06577963345399573,0.06577963345399573
190.159,0.04180301673130282,0.04180301673130282
190.16,0.022317829373692755,0.022317829373692755
190.161,0.014071716410499313,0.014071716410499313
190.162,0.020785536544191574,0.020785536544191574
190.163,0.04163001326969229,0.04163001326969229
190.164,0.07115390039373803,0.07115390039373803
190.165,0.10076843924736512,0.10076843924736512
190.166,0.12136546208948285,0.12136546208948285
190.167,0.12624295179150335,0.12624295179150335
190.168,0.11337416292240121,0.11337416292240121
190.169,0.08623949962897481,0.08623949962897481
190.17,0.052891697856798814,0.052891697856798814
190.171,0.02350023107292243,0.02350023107292243
190.172,0.007131289873337998,0.007131289873337998
190.173,0.008794064380223787,0.008794064380223787
190.174,0.027726353288544336,0.027726353288544336
190.175,0.05751456908597308,0.05751456908597308
190.176,0.0880620881327705,0.0880620881327705
190.177,0.10882072431801482,0.10882072431801482
190.178,0.11227641891527651,0.11227641891527651
190.179,0.09657142327088586,0.09657142327088586
190.18,0.066391326044831,0.066391326044831
190.181,0.03177353345406031,0.03177353345406031
190.182,0.005141421652892664,0.005141421652892664
190.183,0.0025664378751276695,-0.0025664378751276695
190.184,0.014502737029677304,0.014502737029677304
190.185,0.05490723339703152,0.05490723339703152
190.186,0.10981948051351464,0.10981948051351464
190.187,0.16515284194786206,0.16515284194786206
190.188,0.20534406762344704,0.20534406762344704
190.189,0.21772621107111734,0.21772621107111734
190.19,0.1962357209466865,0.1962357209466865
190.191,0.1433751483701975,0.1433751483701975
190.192,0.06984662164380495,0.06984662164380495
190.193,0.0080650927403485,-0.0080650927403485
190.194,0.07264225301714289,-0.07264225301714289
190.195,0.10927006655832272,-0.10927006655832272
190.196,0.1101152064183164,-0.1101152064183164
190.197,0.07596067996783051,-0.07596067996783051
190.198,0.015742587868834867,-0.015742587868834867
190.199,0.05601773588075831,0.05601773588075831
190.2,0.12311688689243372,0.12311688689243372
190.201,0.17179771985972137,0.17179771985972137
190.202,0.1939774708195834,0.1939774708195834
190.203,0.18875429221662543,0.18875429221662543
190.204,0.16189513266967448,0.16189513266967448
190.205,0.12359252539200782,0.12359252539200782
190.206,0.08525045816234722,0.08525045816234722
190.207,0.056286634982410044,0.056286634982410044
190.208,0.04186403092050228,0.04186403092050228
190.209,0.04212447535421915,0.04212447535421915
190.21,0.05300531612136683,0.05300531612136683
190.211,0.06823292687990201,0.06823292687990201
190.212,0.0817528641470684,0.0817528641470684
190.213,0.08977235493596503,0.08977235493596503
190.214,0.09177212969832538,0.09177212969832538
190.215,0.0902233520094482,0.0902233520094482
190.216,0.08919313739636925,0.08919313739636925
190.217,0.09239206745566109,0.09239206745566109
190.218,0.10139102214886608,0.10139102214886608
190.219,0.11466037882958724,0.11466037882958724
190.22,0.1277916645288446,0.1277916645288446
190.221,0.13485054570034882,0.13485054570034882
190.222,0.1304183967037238,0.1304183967037238
190.223,0.11163734206298792,0.11163734206298792
190.224,0.07955990180853689,0.07955990180853689
190.225,0.03932249301046786,0.03932249301046786
190.226,0.0009609676928914457,-0.0009609676928914457
190.227,0.032277811546313595,-0.032277811546313595
190.228,0.047149034273192836,-0.047149034273192836
190.229,0.0416856660096816,-0.0416856660096816
190.23,0.016661277450169765,-0.016661277450169765
190.231,0.022696394890856952,0.022696394890856952
190.232,0.0680968882563,0.0680968882563
190.233,0.11031437900309271,0.11031437900309271
190.234,0.14141044629202715,0.14141044629202715
190.235,0.15642914063805025,0.15642914063805025
190.236,0.15415217340276555,0.15415217340276555
190.237,0.13682528415327244,0.13682528415327244
190.238,0.1090876699980019,0.1090876699980019
190.239,0.07654743988112633,0.07654743988112633
190.24,0.04448465864189943,0.04448465864189943
190.241,0.017031812948315128,0.017031812948315128
190.242,0.003057119864530722,-0.003057119864530722
190.243,0.014184443386975443,-0.014184443386975443
190.244,0.015527085508899696,-0.015527085508899696
190.245,0.006801903876766602,-0.006801903876766602
190.246,0.011645801778809917,0.011645801778809917
190.247,0.03846635043646551,0.03846635043646551
190.248,0.07087735551682783,0.07087735551682783
190.249,0.10451381553616246,0.10451381553616246
190.25,0.13382947613076035,0.13382947613076035
190.251,0.1531226209102654,0.1531226209102654
190.252,0.1579899974797503,0.1579899974797503
190.253,0.14677978194049723,0.14677978194049723
190.254,0.12151893707610184,0.12151893707610184
190.255,0.08788693372578882,0.08788693372578882
190.256,0.05408137123141121,0.05408137123141121
190.257,0.02878721415925578,0.02878721415925578
190.258,0.01879386674369754,0.01879386674369754
190.259,0.026979271911337754,0.026979271911337754
190.26,0.05132210225920342,0.05132210225920342
190.261,0.08531517900767627,0.08531517900767627
190.262,0.1197208487895336,0.1197208487895336
190.263,0.14517321154215024,0.14517321154215024
190.264,0.15484198336961996,0.15484198336961996
190.265,0.14633320802679406,0.14633320802679406
190.266,0.12223482948213871,0.12223482948213871
190.267,0.08914864633961761,0.08914864633961761
190.268,0.05554149527472618,0.05554149527472618
190.269,0.029131581114000493,0.029131581114000493
190.27,0.0146688913146098,0.0146688913146098
190.271,0.012820813448978674,0.012820813448978674
190.272,0.02048482601422874,0.02048482601422874
190.273,0.032353355220198665,0.032353355220198665
190.274,0.043124240112090595,0.043124240112090595
190.275,0.04953501423446793,0.04953501423446793
190.276,0.05147681392911041,0.05147681392911041
190.277,0.051787858609313675,0.051787858609313675
190.278,0.05481612563787497,0.05481612563787497
190.279,0.06430199074157805,0.06430199074157805
190.28,0.08139802863742585,0.08139802863742585
190.281,0.10361557876971017,0.10361557876971017
190.282,0.12516992633131374,0.12516992633131374
190.283,0.13869534797563188,0.13869534797563188
190.284,0.13779244599721574,0.13779244599721574
190.285,0.11953464237677558,0.11953464237677558
190.286,0.08602303023283397,0.08602303023283397
190.287,0.04436189792070788,0.04436189792070788
190.288,0.004942440986715146,0.004942440986715146
190.289,0.021502068340925495,-0.021502068340925495
190.29,0.02716648852467607,-0.02716648852467607
190.291,0.009716229206721105,-0.009716229206721105
190.292,0.026753139123044445,0.026753139123044445
190.293,0.07270649360443993,0.07270649360443993
190.294,0.11585723445386442,0.11585723445386442
190.295,0.14475046422733717,0.14475046422733717
190.296,0.15214118507891894,0.15214118507891894
190.297,0.13712057947204936,0.13712057947204936
190.298,0.10533124598674326,0.10533124598674326
190.299,0.06720912901326326,0.06720912901326326
190.3,0.03480304366776932,0.03480304366776932
190.301,0.018156225683931382,0.018156225683931382
190.302,0.022353233580558518,0.022353233580558518
190.303,0.04610854602377912,0.04610854602377912
190.304,0.0822805605177288,0.0822805605177288
190.305,0.12009906682264826,0.12009906682264826
190.306,0.14838553972606805,0.14838553972606805
190.307,0.15877869522873267,0.15877869522873267
190.308,0.14802420763242563,0.14802420763242563
190.309,0.11871627348664937,0.11871627348664937
190.31,0.07837148767519841,0.07837148767519841
190.311,0.037209555683382245,0.037209555683382245
190.312,0.005358696858310363,0.005358696858310363
190.313,0.009696862553170926,-0.009696862553170926
190.314,0.004762515110512289,-0.004762515110512289
190.315,0.018660364744727875,0.018660364744727875
190.316,0.05515009872905696,0.05515009872905696
190.317,0.09694643155150695,0.09694643155150695
190.318,0.13580483096822626,0.13580483096822626
190.319,0.16462003903517974,0.16462003903517974
190.32,0.17849343296506914,0.17849343296506914
190.321,0.17515931781550842,0.17515931781550842
190.322,0.15489351072602608,0.15489351072602608
190.323,0.12013409007090226,0.12013409007090226
190.324,0.07502826248062866,0.07502826248062866
190.325,0.02501189735577003,0.02501189735577003
190.326,0.023604931070056567,-0.023604931070056567
190.327,0.0641609844277018,-0.0641609844277018
190.328,0.09038615083694046,-0.09038615083694046
190.329,0.09737481784211521,-0.09737481784211521
190.33,0.0826499489214938,-0.0826499489214938
190.331,0.04704112195137233,-0.04704112195137233
190.332,0.004951959303436171,0.004951959303436171
190.333,0.06556629578708639,0.06556629578708639
190.334,0.12501857398434657,0.12501857398434657
190.335,0.1733971584989995,0.1733971584989995
190.336,0.20278420840633138,0.20278420840633138
190.337,0.209062976846347,0.209062976846347
190.338,0.19289916295362453,0.19289916295362453
190.339,0.15958172596264109,0.15958172596264109
190.34,0.11771584952474079,0.11771584952474079
190.341,0.07708730164976552,0.07708730164976552
190.342,0.04626166203090243,0.04626166203090243
190.343,0.030565369994259184,0.030565369994259184
190.344,0.030989178702555797,0.030989178702555797
190.345,0.044288672626697556,0.044288672626697556
190.346,0.0642113881198294,0.0642113881198294
190.347,0.08346066790531537,0.08346066790531537
190.348,0.09580877815000388,0.09580877815000388
190.349,0.09775316382505772,0.09775316382505772
190.35,0.08927091004930343,0.08927091004930343
190.351,0.07351306487028109,0.07351306487028109
190.352,0.05560107244258372,0.05560107244258372
190.353,0.04094342569817333,0.04094342569817333
190.354,0.03360673142307791,0.03360673142307791
190.355,0.035222930448073786,0.035222930448073786
190.356,0.044718195130990734,0.044718195130990734
190.357,0.0588774264748253,0.0588774264748253
190.358,0.07350001954001772,0.07350001954001772
190.359,0.08473788389244596,0.08473788389244596
190.36,0.09018228607327927,0.09018228607327927
190.361,0.08938165143085297,0.08938165143085297
190.362,0.08368283028050594,0.08368283028050594
190.363,0.07551972205174673,0.07551972205174673
190.364,0.06744816297022282,0.06744816297022282
190.365,0.06128894272911345,0.06128894272911345
190.366,0.05767535834294546,0.05767535834294546
190.367,0.056135139119686484,0.056135139119686484
190.368,0.05562982995207988,0.05562982995207988
190.369,0.05530145705269862,0.05530145705269862
190.37,0.05509795627247449,0.05509795627247449
190.371,0.05599384296708343,0.05599384296708343
190.372,0.059676495585770484,0.059676495585770484
190.373,0.06777825207109989,0.06777825207109989
190.374,0.08092611794589533,0.08092611794589533
190.375,0.09798369379974692,0.09798369379974692
190.376,0.1158312735786986,0.1158312735786986
190.377,0.12987093134595984,0.12987093134595984
190.378,0.1352002223683033,0.1352002223683033
190.379,0.12814937498078915,0.12814937498078915
190.38,0.1077084098501413,0.1077084098501413
190.381,0.07634725985991797,0.07634725985991797
190.382,0.03987430289749616,0.03987430289749616
190.383,0.006253488058101331,0.006253488058101331
190.384,0.016372288127420975,-0.016372288127420975
190.385,0.021926697553009022,-0.021926697553009022
190.386,0.008256611412060577,-0.008256611412060577
190.387,0.021992813302283754,0.021992813302283754
190.388,0.06182064942350873,0.06182064942350873
190.389,0.1015867974319904,0.1015867974319904
190.39,0.1315687026374086,0.1315687026374086
190.391,0.14464512203409297,0.14464512203409297
190.392,0.1383197671829075,0.1383197671829075
190.393,0.11546220237260396,0.11546220237260396
190.394,0.08350647204933193,0.08350647204933193
190.395,0.05230499072903916,0.05230499072903916
190.396,0.031247667453797145,0.031247667453797145
190.397,0.026494165040463757,0.026494165040463757
190.398,0.039151067275407625,0.039151067275407625
190.399,0.06495341740473615,0.06495341740473615
190.4,0.09556005860844285,0.09556005860844285
190.401,0.121080891746282,0.121080891746282
190.402,0.13307408193371106,0.13307408193371106
190.403,0.12710278101127037,0.12710278101127037
190.404,0.10407331783321494,0.10407331783321494
190.405,0.06995115827556608,0.06995115827556608
190.406,0.03395137449314167,0.03395137449314167
190.407,0.0057701526511793055,0.0057701526511793055
190.408,0.0072847746220200404,-0.0072847746220200404
190.409,0.002385352865085122,-0.002385352865085122
190.41,0.0181295961783996,0.0181295961783996
190.411,0.04765024126142481,0.04765024126142481
190.412,0.0774576458968701,0.0774576458968701
190.413,0.09944727296451639,0.09944727296451639
190.414,0.10855236208756969,0.10855236208756969
190.415,0.1041241387035774,0.1041241387035774
190.416,0.08987674097898246,0.08987674097898246
190.417,0.07247009616259903,0.07247009616259903
190.418,0.05923147576129573,0.05923147576129573
190.419,0.055769796606348176,0.055769796606348176
190.42,0.06423983032412606,0.06423983032412606
190.421,0.08277398868036734,0.08277398868036734
190.422,0.1062038863547603,0.1062038863547603
190.423,0.12777712930308316,0.12777712930308316
190.424,0.14127336462654894,0.14127336462654894
190.425,0.1428306758115343,0.1428306758115343
190.426,0.131929068778313,0.131929068778313
190.427,0.11128535088767921,0.11128535088767921
190.428,0.0857818019661647,0.0857818019661647
190.429,0.06085366820318727,0.06085366820318727
190.43,0.04090047482994619,0.04090047482994619
190.431,0.028226890459578602,0.028226890459578602
190.432,0.022794066333706953,0.022794066333706953
190.433,0.02276076430528695,0.02276076430528695
190.434,0.02552524600323469,0.02552524600323469
190.435,0.02883545519549413,0.02883545519549413
190.436,0.03155820303370871,0.03155820303370871
190.437,0.033867350217070324,0.033867350217070324
190.438,0.03685418706714816,0.03685418706714816
190.439,0.04178527975247537,0.04178527975247537
190.44,0.049351993806912464,0.049351993806912464
190.441,0.05923258119031205,0.05923258119031205
190.442,0.07013867092221737,0.07013867092221737
190.443,0.08030716733820364,0.08030716733820364
190.444,0.08821144870181397,0.08821144870181397
190.445,0.09317621656119024,0.09317621656119024
190.446,0.09562245383882906,0.09562245383882906
190.447,0.09682455496245157,0.09682455496245157
190.448,0.09826802778264732,0.09826802778264732
190.449,0.10087044529243383,0.10087044529243383
190.45,0.104399846295538,0.104399846295538
190.451,0.10736237177353347,0.10736237177353347
190.452,0.10745530082373889,0.10745530082373889
190.453,0.10245807984997812,0.10245807984997812
190.454,0.09124786816427277,0.09124786816427277
190.455,0.07455094587289879,0.07455094587289879
190.456,0.05511034867386799,0.05511034867386799
190.457,0.037143222345599636,0.037143222345599636
190.458,0.025211662673277013,0.025211662673277013
190.459,0.022848417058638715,0.022848417058638715
190.46,0.031383877953365724,0.031383877953365724
190.461,0.049372727242462444,0.049372727242462444
190.462,0.07283135976086874,0.07283135976086874
190.463,0.09623467909322514,0.09623467909322514
190.464,0.11397393231980302,0.11397393231980302
190.465,0.12183122438434957,0.12183122438434957
190.466,0.11803033502558447,0.11803033502558447
190.467,0.10357308450040015,0.10357308450040015
190.468,0.08181015250070489,0.08181015250070489
190.469,0.057438925213068925,0.057438925213068925
190.47,0.03528383098069732,0.03528383098069732
190.471,0.019243903883260582,0.019243903883260582
190.472,0.011685682034840772,0.011685682034840772
190.473,0.013364799985947862,0.013364799985947862
190.474,0.023755606630451398,0.023755606630451398
190.475,0.04153423142955792,0.04153423142955792
190.476,0.06494629407391739,0.06494629407391739
190.477,0.0918967453745656,0.0918967453745656
190.478,0.1197780603991796,0.1197780603991796
190.479,0.14522586031681262,0.14522586031681262
190.48,0.16408011985615767,0.16408011985615767
190.481,0.17178910334051412,0.17178910334051412
190.482,0.16432713364661966,0.16432713364661966
190.483,0.13946335008916133,0.13946335008916133
190.484,0.09800659216842456,0.09800659216842456
190.485,0.04455130853855449,0.04455130853855449
190.486,0.012683587850157219,-0.012683587850157219
190.487,0.0630990238338951,-0.0630990238338951
190.488,0.0958859218255923,-0.0958859218255923
190.489,0.10263515966039394,-0.10263515966039394
190.49,0.07969110627668774,-0.07969110627668774
190.491,0.029543240504777857,-0.029543240504777857
190.492,0.03923732721603179,0.03923732721603179
190.493,0.11362703034660604,0.11362703034660604
190.494,0.1790120450374142,0.1790120450374142
190.495,0.22258107968886276,0.22258107968886276
190.496,0.23636626894112633,0.23636626894112633
190.497,0.21911986781286452,0.21911986781286452
190.498,0.1765195689666581,0.1765195689666581
190.499,0.1196482107014949,0.1196482107014949
190.5,0.06216226873749431,0.06216226873749431
190.501,0.01691158330476572,0.01691158330476572
190.502,0.007098371137493342,-0.007098371137493342
190.503,0.006632463007329337,-0.006632463007329337
190.504,0.01539902666854931,0.01539902666854931
190.505,0.051119705787835645,0.051119705787835645
190.506,0.0900115008314395,0.0900115008314395
190.507,0.12170051571682339,0.12170051571682339
190.508,0.13845273908507116,0.13845273908507116
190.509,0.13677065628870233,0.13677065628870233
190.51,0.1177777468597545,0.1177777468597545
190.511,0.086430189912158,0.086430189912158
190.512,0.04989929513638125,0.04989929513638125
190.513,0.015643665082398783,0.015643665082398783
190.514,0.0102980258042501,-0.0102980258042501
190.515,0.024397955918434855,-0.024397955918434855
190.516,0.025942927075480626,-0.025942927075480626
190.517,0.01661804031343772,-0.01661804031343772
190.518,0.00038188863365862247,0.00038188863365862247
190.519,0.021385198394398897,0.021385198394398897
190.52,0.04312009962296104,0.04312009962296104
190.521,0.0632435235722264,0.0632435235722264
190.522,0.08047328062035941,0.08047328062035941
190.523,0.09440205502548737,0.09440205502548737
190.524,0.10514724683211285,0.10514724683211285
190.525,0.11300087077816956,0.11300087077816956
190.526,0.11819869549412809,0.11819869549412809
190.527,0.12085383885823231,0.12085383885823231
190.528,0.12102806706541935,0.12102806706541935
190.529,0.11886834249204559,0.11886834249204559
190.53,0.11472710729183966,0.11472710729183966
190.531,0.10920769749158299,0.10920769749158299
190.532,0.10311584279235708,0.10311584279235708
190.533,0.097336081520639,0.097336081520639
190.534,0.09267427789421778,0.09267427789421778
190.535,0.08970956496039717,0.08970956496039717
190.536,0.08868565586136268,0.08868565586136268
190.537,0.08945303528116844,0.08945303528116844
190.538,0.09146061577383113,0.09146061577383113
190.539,0.09379351793284818,0.09379351793284818
190.54,0.09526072002992292,0.09526072002992292
190.541,0.09454419199597086,0.09454419199597086
190.542,0.09041964337747643,0.09041964337747643
190.543,0.08204167021316477,0.08204167021316477
190.544,0.06925432640850127,0.06925432640850127
190.545,0.05285244034293224,0.05285244034293224
190.546,0.03469586708369565,0.03469586708369565
190.547,0.01758464391567016,0.01758464391567016
190.548,0.004846518956026946,0.004846518956026946
190.549,0.0003347363755805688,-0.0003347363755805688
190.55,0.0042698138410821596,0.0042698138410821596
190.551,0.01918145830877882,0.01918145830877882
190.552,0.042748210316368995,0.042748210316368995
190.553,0.0711606838948955,0.0711606838948955
190.554,0.099039573572822,0.099039573572822
190.555,0.12053173346480817,0.12053173346480817
190.556,0.13069055436089383,0.13069055436089383
190.557,0.1267972043406156,0.1267972043406156
190.558,0.1092469432259704,0.1092469432259704
190.559,0.081702271304948,0.081702271304948
190.56,0.05039301193573453,0.05039301193573453
190.561,0.022679747111345794,0.022679747111345794
190.562,0.005224408205119824,0.005224408205119824
190.563,0.002258073567255048,0.002258073567255048
190.564,0.014446588004328742,0.014446588004328742
190.565,0.038712444340670116,0.038712444340670116
190.566,0.06910667796634495,0.06910667796634495
190.567,0.09851006734011691,0.09851006734011691
190.568,0.12067462037225019,0.12067462037225019
190.569,0.13198413105867468,0.13198413105867468
190.57,0.13237036503692856,0.13237036503692856
190.571,0.1250656594970443,0.1250656594970443
190.572,0.11523825339611538,0.11523825339611538
190.573,0.10793260437409757,0.10793260437409757
190.574,0.10599935891556411,0.10599935891556411
190.575,0.10875168020405068,0.10875168020405068
190.576,0.11189133809160023,0.11189133809160023
190.577,0.10885342269123832,0.10885342269123832
190.578,0.09323809369375669,0.09323809369375669
190.579,0.06158556582464758,0.06158556582464758
190.58,0.015551233611382775,0.015551233611382775
190.581,0.03736254100166647,-0.03736254100166647
190.582,0.08496922650162919,-0.08496922650162919
190.583,0.11332601898023753,-0.11332601898023753
190.584,0.11070324112913188,-0.11070324112913188
190.585,0.07145780353610387,-0.07145780353610387
190.586,0.001410704488072012,0.001410704488072012
190.587,0.09594380633487942,0.09594380633487942
190.588,0.19345603686185098,0.19345603686185098
190.589,0.2728675331053574,0.2728675331053574
190.59,0.316023281775591,0.316023281775591
190.591,0.3125225659479347,0.3125225659479347
190.592,0.26265340078130506,0.26265340078130506
190.593,0.1775293744797568,0.1775293744797568
190.594,0.07632108199456367,0.07632108199456367
190.595,0.018675640799139415,-0.018675640799139415
190.596,0.0877491064804592,-0.0877491064804592
190.597,0.11864004499756187,-0.11864004499756187
190.598,0.1092052898687047,-0.1092052898687047
190.599,0.06718216502967667,-0.06718216502967667
190.6,0.007234227948186733,-0.007234227948186733
190.601,0.0537328058471509,0.0537328058471509
190.602,0.10150817180305438,0.10150817180305438
190.603,0.12827174632377947,0.12827174632377947
190.604,0.13400459486598915,0.13400459486598915
190.605,0.12533663423781527,0.12533663423781527
190.606,0.11238123902609409,0.11238123902609409
190.607,0.10472579327029896,0.10472579327029896
190.608,0.10796112168494498,0.10796112168494498
190.609,0.12188248214514386,0.12188248214514386
190.61,0.1408773419335161,0.1408773419335161
190.611,0.15624864859931797,0.15624864859931797
190.612,0.15957045465908148,0.15957045465908148
190.613,0.14585433151176308,0.14585433151176308
190.614,0.11541958870020408,0.11541958870020408
190.615,0.073855841335982,0.073855841335982
190.616,0.030159650281638584,0.030159650281638584
190.617,0.006230829990128917,-0.006230829990128917
190.618,0.028413839920656048,-0.028413839920656048
190.619,0.03396030108857684,-0.03396030108857684
190.62,0.025168350072998003,-0.025168350072998003
190.621,0.00763268086458424,-0.00763268086458424
190.622,0.012251153505955292,0.012251153505955292
190.623,0.0298452622023766,0.0298452622023766
190.624,0.043887033684844035,0.043887033684844035
190.625,0.05654034672170316,0.05654034672170316
190.626,0.07187218230364412,0.07187218230364412
190.627,0.09337303356192539,0.09337303356192539
190.628,0.12153977656092985,0.12153977656092985
190.629,0.1525583917371558,0.1525583917371558
190.63,0.17874423129268546,0.17874423129268546
190.631,0.19074933291163854,0.19074933291163854
190.632,0.18086167338437487,0.18086167338437487
190.633,0.14625216373278893,0.14625216373278893
190.634,0.09095247473377843,0.09095247473377843
190.635,0.025713317395923196,0.025713317395923196
190.636,0.03441516765367103,-0.03441516765367103
190.637,0.0741550819053004,-0.0741550819053004
190.638,0.08249502166750511,-0.08249502166750511
190.639,0.05617075979459207,-0.05617075979459207
190.64,0.0009695981772211981,-0.0009695981772211981
190.641,0.06963246133790135,0.06963246133790135
190.642,0.13814128869926234,0.13814128869926234
190.643,0.18791881429878132,0.18791881429878132
190.644,0.2077680125229624,0.2077680125229624
190.645,0.1948337138501628,0.1948337138501628
190.646,0.15497457358238909,0.15497457358238909
190.647,0.1005776228645654,0.1005776228645654
190.648,0.04659434936650264,0.04659434936650264
190.649,0.006108689478121265,0.006108689478121265
190.65,0.013166671355276494,-0.013166671355276494
190.651,0.01044359100700698,-0.01044359100700698
190.652,0.008867692050556819,0.008867692050556819
190.653,0.0357272083127671,0.0357272083127671
190.654,0.06086306950239684,0.06086306950239684
190.655,0.07778648729655524,0.07778648729655524
190.656,0.08444137649538264,0.08444137649538264
190.657,0.08306223909008681,0.08306223909008681
190.658,0.07848531696690064,0.07848531696690064
190.659,0.07569969797933296,0.07569969797933296
190.66,0.07764813273468363,0.07764813273468363
190.661,0.08412439015684958,0.08412439015684958
190.662,0.09214025403129433,0.09214025403129433
190.663,0.09753763039821695,0.09753763039821695
190.664,0.0971276084159014,0.0971276084159014
190.665,0.09043337500192083,0.09043337500192083
190.666,0.08027191679012913,0.08027191679012913
190.667,0.07186838541833684,0.07186838541833684
190.668,0.0707825598694658,0.0707825598694658
190.669,0.08041741049809725,0.08041741049809725
190.67,0.10008820006509422,0.10008820006509422
190.671,0.12447293513985613,0.12447293513985613
190.672,0.14479162038522575,0.14479162038522575
190.673,0.1514394024019443,0.1514394024019443
190.674,0.13725056544517544,0.13725056544517544
190.675,0.10029599061113625,0.10029599061113625
190.676,0.04522028512371179,0.04522028512371179
190.677,0.017422340141788006,-0.017422340141788006
190.678,0.07372389986999628,-0.07372389986999628
190.679,0.11013395853865449,-0.11013395853865449
190.68,0.11720096678955605,-0.11720096678955605
190.681,0.0921979124551322,-0.0921979124551322
190.682,0.03984042403672994,-0.03984042403672994
190.683,0.029088416694154517,0.029088416694154517
190.684,0.10073861001784801,0.10073861001784801
190.685,0.16186602780640702,0.16186602780640702
190.686,0.2030614487653506,0.2030614487653506
190.687,0.2206201226100899,0.2206201226100899
190.688,0.21661781548707748,0.21661781548707748
190.689,0.19735012472703595,0.19735012472703595
190.69,0.17079147776047887,0.17079147776047887
190.691,0.14397944439386756,0.14397944439386756
190.692,0.12116287838693318,0.12116287838693318
190.693,0.10321385751210532,0.10321385751210532
190.694,0.08832750509958553,0.08832750509958553
190.695,0.07359249991353534,0.07359249991353534
190.696,0.056756568291149945,0.056756568291149945
190.697,0.03751004485023546,0.03751004485023546
190.698,0.017846511482753513,0.017846511482753513
190.699,0.00143113378486448,0.00143113378486448
190.7,0.0077268581994489605,-0.0077268581994489605
190.701,0.006769792596004076,-0.006769792596004076
190.702,0.004897976029492268,0.004897976029492268
190.703,0.025265090505709464,0.025265090505709464
190.704,0.05022023181842816,0.05022023181842816
190.705,0.07469748714699809,0.07469748714699809
190.706,0.09404696893431885,0.09404696893431885
190.707,0.10518066659765224,0.10518066659765224
190.708,0.10716624619830717,0.10716624619830717
190.709,0.10116320297790993,0.10116320297790993
190.71,0.08982528144834112,0.08982528144834112
190.711,0.07644572399806049,0.07644572399806049
190.712,0.06415106425431727,0.06415106425431727
190.713,0.055360869491252185,0.055360869491252185
190.714,0.05157675455695343,0.05157675455695343
190.715,0.053416979458401403,0.053416979458401403
190.716,0.0607355681883428,0.0607355681883428
190.717,0.0726839999843778,0.0726839999843778
190.718,0.08767079707315739,0.08767079707315739
190.719,0.10329601541431321,0.10329601541431321
190.72,0.1164190227121924,0.1164190227121924
190.721,0.12351215298295948,0.12351215298295948
190.722,0.1213520754278139,0.1213520754278139
190.723,0.10794121662455836,0.10794121662455836
190.724,0.08339996737823618,0.08339996737823618
190.725,0.05049699253993478,0.05049699253993478
190.726,0.014534339322667789,0.014534339322667789
190.727,0.017525144773216428,-0.017525144773216428
190.728,0.03855841983745345,-0.03855841983745345
190.729,0.04305032579805668,-0.04305032579805668
190.73,0.028634433617255484,-0.028634433617255484
190.731,0.003068872672404188,0.003068872672404188
190.732,0.04661508803271186,0.04661508803271186
190.733,0.09391144331422563,0.09391144331422563
190.734,0.13611453478233138,0.13611453478233138
190.735,0.16573541130187208,0.16573541130187208
190.736,0.1783697807802851,0.1783697807802851
190.737,0.17358131439504465,0.17358131439504465
190.738,0.15471948601483154,0.15471948601483154
190.739,0.127768363409142,0.127768363409142
190.74,0.099599147990868,0.099599147990868
190.741,0.0761520500191819,0.0761520500191819
190.742,0.0610599886914025,0.0610599886914025
190.743,0.05506024053987835,0.05506024053987835
190.744,0.05628135137604007,0.05628135137604007
190.745,0.06122791210345602,0.06122791210345602
190.746,0.06609761276031123,0.06609761276031123
190.747,0.06800511238653795,0.06800511238653795
190.748,0.0657623351637795,0.0657623351637795
190.749,0.060037985367321856,0.060037985367321856
190.75,0.05292604150112634,0.05292604150112634
190.751,0.04712563423630356,0.04712563423630356
190.752,0.045023764810673494,0.045023764810673494
190.753,0.04796127934986205,0.04796127934986205
190.754,0.05586899731102357,0.05586899731102357
190.755,0.06732632681674011,0.06732632681674011
190.756,0.07996728632417849,0.07996728632417849
190.757,0.09107655464005471,0.09107655464005471
190.758,0.09819769016442281,0.09819769016442281
190.759,0.09961045359709564,0.09961045359709564
190.76,0.09460091101243528,0.09460091101243528
190.761,0.0835178623850441,0.0835178623850441
190.762,0.06765904146018475,0.06765904146018475
190.763,0.04905014343522085,0.04905014343522085
190.764,0.030172443135813687,0.030172443135813687
190.765,0.01367323987099378,0.01367323987099378
190.766,0.0020724818028636793,0.0020724818028636793
190.767,0.0025306928013197894,-0.0025306928013197894
190.768,0.001256873517935242,0.001256873517935242
190.769,0.013868455683797798,0.013868455683797798
190.77,0.03459402664979194,0.03459402664979194
190.771,0.06151592876178458,0.06151592876178458
190.772,0.09160917946167868,0.09160917946167868
190.773,0.12103464999202584,0.12103464999202584
190.774,0.14562330094342313,0.14562330094342313
190.775,0.16151057622275755,0.16151057622275755
190.776,0.16583746895568563,0.16583746895568563
190.777,0.1573964201166549,0.1573964201166549
190.778,0.137076523779311,0.137076523779311
190.779,0.10796572767235779,0.10796572767235779
190.78,0.07500858255949061,0.07500858255949061
190.781,0.0442004055957641,0.0442004055957641
190.782,0.02141360715389551,0.02141360715389551
190.783,0.01107494755314975,0.01107494755314975
190.784,0.015006471678864486,0.015006471678864486
190.785,0.03176759981024624,0.03176759981024624
190.786,0.05676274103368195,0.05676274103368195
190.787,0.08320573408894072,0.08320573408894072
190.788,0.10379248344647829,0.10379248344647829
190.789,0.11269172151203266,0.11269172151203266
190.79,0.10730224460617999,0.10730224460617999
190.791,0.0892141117423384,0.0892141117423384
190.792,0.06398316337311405,0.06398316337311405
190.793,0.039656351168279036,0.039656351168279036
190.794,0.02438338429377085,0.02438338429377085
190.795,0.023792413600264295,0.023792413600264295
190.796,0.03896771044077996,0.03896771044077996
190.797,0.06576423633219064,0.06576423633219064
190.798,0.09582721325505306,0.09582721325505306
190.799,0.11914661307118402,0.11914661307118402
190.8,0.127431819096387,0.127431819096387
190.801,0.11722897909811492,0.11722897909811492
190.802,0.09167068731444528,0.09167068731444528
190.803,0.06009466910503769,0.06009466910503769
190.804,0.03541810039719384,0.03541810039719384
190.805,0.029915749894048327,0.029915749894048327
190.806,0.05067234963531431,0.05067234963531431
190.807,0.0962335114016748,0.0962335114016748
190.808,0.1557402105070893,0.1557402105070893
190.809,0.21113205294619064,0.21113205294619064
190.81,0.24203791538979336,0.24203791538979336
190.811,0.23204136727120228,0.23204136727120228
190.812,0.17442882641723845,0.17442882641723845
190.813,0.07552386853770177,0.07552386853770177
190.814,0.045671611112071964,-0.045671611112071964
190.815,0.16172779998304287,-0.16172779998304287
190.816,0.24390668040924912,-0.24390668040924912
190.817,0.2701592504381831,-0.2701592504381831
190.818,0.23162067841753098,-0.23162067841753098
190.819,0.13557411793991125,-0.13557411793991125
190.82,0.003863186520081885,-0.003863186520081885
190.821,0.1328976168103202,0.1328976168103202
190.822,0.2436645178044694,0.2436645178044694
190.823,0.3053962327566766,0.3053962327566766
190.824,0.3090636127995181,0.3090636127995181
190.825,0.2614657604863184,0.2614657604863184
190.826,0.18238486518498265,0.18238486518498265
190.827,0.09806221908785373,0.09806221908785373
190.828,0.033106090315679015,0.033106090315679015
190.829,0.0033828578130026266,0.0033828578130026266
190.83,0.012056606916770685,0.012056606916770685
190.831,0.0498638646760321,0.0498638646760321
190.832,0.09930364301852279,0.09930364301852279
190.833,0.14115981615220097,0.14115981615220097
190.834,0.1610718329290226,0.1610718329290226
190.835,0.15395494897229134,0.15395494897229134
190.836,0.12489662643183808,0.12489662643183808
190.837,0.0864231675571272,0.0864231675571272
190.838,0.05329410076032315,0.05329410076032315
190.839,0.03680348374616571,0.03680348374616571
190.84,0.040669664842325925,0.040669664842325925
190.841,0.05995667459208964,0.05995667459208964
190.842,0.08333116235313809,0.08333116235313809
190.843,0.09773306225239442,0.09773306225239442
190.844,0.09366673441395235,0.09366673441395235
190.845,0.06911219767755616,0.06911219767755616
190.846,0.030582373541523822,0.030582373541523822
190.847,0.009083670697729862,-0.009083670697729862
190.848,0.03538913671698907,-0.03538913671698907
190.849,0.037589256488408385,-0.037589256488408385
190.85,0.012834422765774067,-0.012834422765774067
190.851,0.03251133205220724,0.03251133205220724
190.852,0.08490791524535002,0.08490791524535002
190.853,0.12833302196993812,0.12833302196993812
190.854,0.14994592866665157,0.14994592866665157
190.855,0.14465664519547827,0.14465664519547827
190.856,0.116910843016651,0.116910843016651
190.857,0.07900083081883302,0.07900083081883302
190.858,0.04647963897150009,0.04647963897150009
190.859,0.03232924366052026,0.03232924366052026
190.86,0.042019529860980676,0.042019529860980676
190.861,0.07130503081197603,0.07130503081197603
190.862,0.1076346329356832,0.1076346329356832
190.863,0.13473800685316428,0.13473800685316428
190.864,0.13877346405675306,0.13877346405675306
190.865,0.11380732311890362,0.11380732311890362
190.866,0.06457975728499377,0.06457975728499377
190.867,0.005446198332133889,0.005446198332133889
190.868,0.04425565959688249,-0.04425565959688249
190.869,0.06685824912245697,-0.06685824912245697
190.87,0.05270426765618763,-0.05270426765618763
190.871,0.0038863623446812046,-0.0038863623446812046
190.872,0.06603511064655332,0.06603511064655332
190.873,0.13635942863470896,0.13635942863470896
190.874,0.18619897107702021,0.18619897107702021
190.875,0.20166709820801243,0.20166709820801243
190.876,0.1807619958876725,0.1807619958876725
190.877,0.1341578835144961,0.1341578835144961
190.878,0.08151595802561151,0.08151595802561151
190.879,0.04449950852297957,0.04449950852297957
190.88,0.03887141572263331,0.03887141572263331
190.881,0.0684410079711999,0.0684410079711999
190.882,0.12305824969633794,0.12305824969633794
190.883,0.18150506905913466,0.18150506905913466
190.884,0.2184584795275024,0.2184584795275024
190.885,0.2132702976871288,0.2132702976871288
190.886,0.15761950526452306,0.15761950526452306
190.887,0.05939332567058653,0.05939332567058653
190.888,0.0586456966045803,-0.0586456966045803
190.889,0.1651420281985022,-0.1651420281985022
190.89,0.22947035443152997,-0.22947035443152997
190.891,0.23116130667540424,-0.23116130667540424
190.892,0.16642137280325386,-0.16642137280325386
190.893,0.04965292915244168,-0.04965292915244168
190.894,0.0905247535523952,0.0905247535523952
190.895,0.21950462116800806,0.21950462116800806
190.896,0.3065937501332654,0.3065937501332654
190.897,0.3335285347230452,0.3335285347230452
190.898,0.29904835172401656,0.29904835172401656
190.899,0.21827836246336574,0.21827836246336574
190.9,0.1173341741262317,0.1173341741262317
190.901,0.025031464731759545,0.025031464731759545
190.902,0.03560558602032904,-0.03560558602032904
190.903,0.0534274630450029,-0.0534274630450029
190.904,0.031136663577653656,-0.031136663577653656
190.905,0.017133803921209,0.017133803921209
190.906,0.07151929814519131,0.07151929814519131
190.907,0.11331562543787577,0.11331562543787577
190.908,0.1307581426325457,0.1307581426325457
190.909,0.12192824911520495,0.12192824911520495
190.91,0.09411339666543839,0.09411339666543839
190.911,0.06017564089963767,0.06017564089963767
190.912,0.033435346442897584,0.033435346442897584
190.913,0.02294956975831286,0.02294956975831286
190.914,0.03077206750154704,0.03077206750154704
190.915,0.05196880971210738,0.05196880971210738
190.916,0.07714314518283127,0.07714314518283127
190.917,0.09636357509491122,0.09636357509491122
190.918,0.10297234959449786,0.10297234959449786
190.919,0.09590053899904594,0.09590053899904594
190.92,0.07973831771314477,0.07973831771314477
190.921,0.06266083471154049,0.06266083471154049
190.922,0.05307767178931977,0.05307767178931977
190.923,0.056292070677683936,0.056292070677683936
190.924,0.07239642551930192,0.07239642551930192
190.925,0.09613874928962463,0.09613874928962463
190.926,0.11876525469625854,0.11876525469625854
190.927,0.13114379105583973,0.13114379105583973
190.928,0.12704430798556765,0.12704430798556765
190.929,0.10543124884138932,0.10543124884138932
190.93,0.07099628969819527,0.07099628969819527
190.931,0.032780568156103085,0.032780568156103085
190.932,0.0013797738892555866,0.0013797738892555866
190.933,0.014325228170575022,-0.014325228170575022
190.934,0.009854106291551368,-0.009854106291551368
190.935,0.013593065670113758,0.013593065670113758
190.936,0.04959743124404059,0.04959743124404059
190.937,0.08849935923668406,0.08849935923668406
190.938,0.12021903479108054,0.12021903479108054
190.939,0.13704248513387496,0.13704248513387496
190.94,0.13557876487524623,0.13557876487524623
190.941,0.11740749528315475,0.11740749528315475
190.942,0.08835695905935026,0.08835695905935026
190.943,0.05673968774311633,0.05673968774311633
190.944,0.03111353873066225,0.03111353873066225
190.945,0.018182980904358326,0.018182980904358326
190.946,0.02132797823732968,0.02132797823732968
190.947,0.040017062444696716,0.040017062444696716
190.948,0.070114562126107,0.070114562126107
190.949,0.10490082281938551,0.10490082281938551
190.95,0.13652267589835532,0.13652267589835532
190.951,0.1575738379989846,0.1575738379989846
190.952,0.1625401905623325,0.1625401905623325
190.953,0.14889800765305505,0.14889800765305505
190.954,0.11770393111517952,0.11770393111517952
190.955,0.0735654640409531,0.0735654640409531
190.956,0.02394681089725803,0.02394681089725803
190.957,0.022136919984224956,-0.022136919984224956
190.958,0.055855151425899474,-0.055855151425899474
190.959,0.07041191297693294,-0.07041191297693294
190.96,0.06260522267914248,-0.06260522267914248
190.961,0.03369135857222605,-0.03369135857222605
190.962,0.010730793495955071,0.010730793495955071
190.963,0.061873495110506216,0.061873495110506216
190.964,0.10973110178671597,0.10973110178671597
190.965,0.14539945751301153,0.14539945751301153
190.966,0.1631436059210687,0.1631436059210687
190.967,0.1616536819376071,0.1616536819376071
190.968,0.144141497975123,0.144141497975123
190.969,0.11725800093989269,0.11725800093989269
190.97,0.08915419037334327,0.08915419037334327
190.971,0.0672553765405497,0.0672553765405497
190.972,0.05638950530701292,0.05638950530701292
190.973,0.0577812835355378,0.0577812835355378
190.974,0.06913885907859818,0.06913885907859818
190.975,0.08571529371040487,0.08571529371040487
190.976,0.10193831619490812,0.10193831619490812
190.977,0.11306232347220169,0.11306232347220169
190.978,0.11634523648384687,0.11634523648384687
190.979,0.11146134232833727,0.11146134232833727
190.98,0.10014623956136814,0.10014623956136814
190.981,0.08532499444747721,0.08532499444747721
190.982,0.07011017030236388,0.07011017030236388
190.983,0.057032874783719656,0.057032874783719656
190.984,0.04771073586067498,0.04771073586067498
190.985,0.04293682815916555,0.04293682815916555
190.986,0.04298860694261131,0.04298860694261131
190.987,0.04788312211585399,0.04788312211585399
190.988,0.05737187810808897,0.05737187810808897
190.989,0.07064257617601521,0.07064257617601521
190.99,0.08589511538992456,0.08589511538992456
190.991,0.10009075628307773,0.10009075628307773
190.992,0.10916684282320555,0.10916684282320555
190.993,0.10885176389675322,0.10885176389675322
190.994,0.09595807079124552,0.09595807079124552
190.995,0.06977616548177434,0.06977616548177434
190.996,0.03304745637406903,0.03304745637406903
190.997,0.007958900906859356,-0.007958900906859356
190.998,0.04449866658116175,-0.04449866658116175
190.999,0.06739541611873456,-0.06739541611873456
191.0,0.06955895047066618,-0.06955895047066618
191.001,0.048225484525957873,-0.048225484525957873
191.002,0.006165781282944871,-0.006165781282944871
191.003,0.048630053907719795,0.048630053907719795
191.004,0.10482655964958076,0.10482655964958076
191.005,0.15070560151700474,0.15070560151700474
191.006,0.17736347703434752,0.17736347703434752
191.007,0.18116449464088213,0.18116449464088213
191.008,0.16466651780780905,0.16466651780780905
191.009,0.1356947455434736,0.1356947455434736
191.01,0.10482467138258666,0.10482467138258666
191.011,0.08205253056651207,0.08205253056651207
191.012,0.07370675942249405,0.07370675942249405
191.013,0.08058889585209306,0.08058889585209306
191.014,0.09794100083013091,0.09794100083013091
191.015,0.117243169161803,0.117243169161803
191.016,0.12924329510443244,0.12924329510443244
191.017,0.1272119474571216,0.1272119474571216
191.018,0.10933633008861743,0.10933633008861743
191.019,0.0794482747865326,0.0794482747865326
191.02,0.045831586969904636,0.045831586969904636
191.021,0.0184928924660539,0.0184928924660539
191.022,0.005795892525118029,0.005795892525118029
191.023,0.01157990552892496,0.01157990552892496
191.024,0.03373503439604231,0.03373503439604231
191.025,0.06473540066829586,0.06473540066829586
191.026,0.09399203683257729,0.09399203683257729
191.027,0.11128718872790366,0.11128718872790366
191.028,0.1101877455725504,0.1101877455725504
191.029,0.09032603153138874,0.09032603153138874
191.03,0.057784850232082574,0.057784850232082574
191.031,0.023418705100253012,0.023418705100253012
191.032,0.0004054369344832498,-0.0004054369344832498
191.033,0.0036629741235779667,-0.0036629741235779667
191.034,0.01805751833278557,0.01805751833278557
191.035,0.061876672001642374,0.061876672001642374
191.036,0.11806992977224362,0.11806992977224362
191.037,0.17252967286762133,0.17252967286762133
191.038,0.21053937997365213,0.21053937997365213
191.039,0.22077632005373538,0.22077632005373538
191.04,0.19840749590766138,0.19840749590766138
191.041,0.14642529770835067,0.14642529770835067
191.042,0.07489061190755453,0.07489061190755453
191.043,0.0016498920696090824,-0.0016498920696090824
191.044,0.06780703882452954,-0.06780703882452954
191.045,0.11102999035231143,-0.11102999035231143
191.046,0.12434734328047492,-0.12434734328047492
191.047,0.107510636554069,-0.107510636554069
191.048,0.06636759213016208,-0.06636759213016208
191.049,0.01079310486317353,-0.01079310486317353
191.05,0.04812332958141652,0.04812332958141652
191.051,0.10079280879973096,0.10079280879973096
191.052,0.14101529146806357,0.14101529146806357
191.053,0.16662556560384867,0.16662556560384867
191.054,0.17889118835893303,0.17889118835893303
191.055,0.18103303092154577,0.18103303092154577
191.056,0.1764712156060324,0.1764712156060324
191.057,0.16742591834711296,0.16742591834711296
191.058,0.154327745934419,0.154327745934419
191.059,0.1361811791538423,0.1361811791538423
191.06,0.11168086966632051,0.11168086966632051
191.061,0.08061473102029537,0.08061473102029537
191.062,0.044983086666156025,0.044983086666156025
191.063,0.009351380333135761,0.009351380333135761
191.064,0.019793504868537704,-0.019793504868537704
191.065,0.035576236193140987,-0.035576236193140987
191.066,0.03273337402430254,-0.03273337402430254
191.067,0.009467585733019979,-0.009467585733019979
191.068,0.03146112076465468,0.03146112076465468
191.069,0.08283116141944946,0.08283116141944946
191.07,0.13432952557695121,0.13432952557695121
191.071,0.17490167877653162,0.17490167877653162
191.072,0.19547485101963535,0.19547485101963535
191.073,0.19130501323616356,0.19130501323616356
191.074,0.16327293904544105,0.16327293904544105
191.075,0.11773331392303987,0.11773331392303987
191.076,0.06492545087115631,0.06492545087115631
191.077,0.016366665599563346,0.016366665599563346
191.078,0.018054002320403884,-0.018054002320403884
191.079,0.03247470003741604,-0.03247470003741604
191.08,0.026293305367862896,-0.026293305367862896
191.081,0.0039179427815324575,-0.0039179427815324575
191.082,0.026844120066859878,0.026844120066859878
191.083,0.057242202024975875,0.057242202024975875
191.084,0.08012940752809916,0.08012940752809916
191.085,0.09184394647282756,0.09184394647282756
191.086,0.09289419953932554,0.09289419953932554
191.087,0.08730201163015527,0.08730201163015527
191.088,0.08087885745647139,0.08087885745647139
191.089,0.07903235025467104,0.07903235025467104
191.09,0.08482601758582486,0.08482601758582486
191.091,0.09790797425311548,0.09790797425311548
191.092,0.11462420722617006,0.11462420722617006
191.093,0.12924122153157236,0.12924122153157236
191.094,0.1358495486461373,0.1358495486461373
191.095,0.13031715725347692,0.13031715725347692
191.096,0.11167043627688256,0.11167043627688256
191.097,0.08248896126108107,0.08248896126108107
191.098,0.04823181228405171,0.04823181228405171
191.099,0.015753126233391423,0.015753126233391423
191.1,0.008499443762707726,-0.008499443762707726
191.101,0.02004934638883804,-0.02004934638883804
191.102,0.01728834448495964,-0.01728834448495964
191.103,0.0015280145156505442,-0.0015280145156505442
191.104,0.023688199778598706,0.023688199778598706
191.105,0.053690148808133165,0.053690148808133165
191.106,0.08380294011898615,0.08380294011898615
191.107,0.11015864672841702,0.11015864672841702
191.108,0.1300517915213497,0.1300517915213497
191.109,0.14189965084354528,0.14189965084354528
191.11,0.14501504064718884,0.14501504064718884
191.111,0.13942900442484762,0.13942900442484762
191.112,0.1259090274415846,0.1259090274415846
191.113,0.10615316438237965,0.10615316438237965
191.114,0.0829823302619559,0.0829823302619559
191.115,0.06028111584517992,0.06028111584517992
191.116,0.04249561020262749,0.04249561020262749
191.117,0.03367272074872307,0.03367272074872307
191.118,0.03625307549158108,0.03625307549158108
191.119,0.050012445461770305,0.050012445461770305
191.12,0.07159635649550578,0.07159635649550578
191.121,0.09496610844452924,0.09496610844452924
191.122,0.11279594246307534,0.11279594246307534
191.123,0.1185187942836583,0.1185187942836583
191.124,0.10843558174185297,0.10843558174185297
191.125,0.08319474995542753,0.08319474995542753
191.126,0.04807554056460006,0.04807554056460006
191.127,0.011849569324807074,0.011849569324807074
191.128,0.015550166394877607,-0.015550166394877607
191.129,0.025906264312512195,-0.025906264312512195
191.13,0.015261856530091822,-0.015261856530091822
191.131,0.014696191468664743,0.014696191468664743
191.132,0.056915813787348446,0.056915813787348446
191.133,0.10090515556945223,0.10090515556945223
191.134,0.13575538634192874,0.13575538634192874
191.135,0.15333688564077308,0.15333688564077308
191.136,0.1506626434379299,0.1506626434379299
191.137,0.13066024064569604,0.13066024064569604
191.138,0.10109707796201617,0.10109707796201617
191.139,0.07199992017154777,0.07199992017154777
191.14,0.05240154575965961,0.05240154575965961
191.141,0.04746856438445102,0.04746856438445102
191.142,0.056938774826012395,0.056938774826012395
191.143,0.07536382289050514,0.07536382289050514
191.144,0.09405736065374026,0.09405736065374026
191.145,0.1040897540971788,0.1040897540971788
191.146,0.09933443017188393,0.09933443017188393
191.147,0.07856866899945936,0.07856866899945936
191.148,0.04595975315460388,0.04595975315460388
191.149,0.009810782667728724,0.009810782667728724
191.15,0.01998724700633092,-0.01998724700633092
191.151,0.03494219845188429,-0.03494219845188429
191.152,0.03042013936864385,-0.03042013936864385
191.153,0.0068251192239586755,-0.0068251192239586755
191.154,0.030797074996592677,0.030797074996592677
191.155,0.07449460935259067,0.07449460935259067
191.156,0.11582350206933745,0.11582350206933745
191.157,0.1481037179344169,0.1481037179344169
191.158,0.167805432567387,0.167805432567387
191.159,0.17471782131817526,0.17471782131817526
191.16,0.1710157824645926,0.1710157824645926
191.161,0.15972983215060665,0.15972983215060665
191.162,0.14330175433311587,0.14330175433311587
191.163,0.12281655868717944,0.12281655868717944
191.164,0.0981842137043154,0.0981842137043154
191.165,0.06912965804718652,0.06912965804718652
191.166,0.036498412506589695,0.036498412506589695
191.167,0.0032334822343216274,0.0032334822343216274
191.168,0.025513205314310117,-0.025513205314310117
191.169,0.043343142368459486,-0.043343142368459486
191.17,0.04442827651243175,-0.04442827651243175
191.171,0.025597815864231044,-0.025597815864231044
191.172,0.01205435230128904,0.01205435230128904
191.173,0.06268543201333476,0.06268543201333476
191.174,0.11664096579874328,0.11664096579874328
191.175,0.1626430154725298,0.1626430154725298
191.176,0.19062930955485013,0.19062930955485013
191.177,0.1944040018796067,0.1944040018796067
191.178,0.17329639918598594,0.17329639918598594
191.179,0.13232448908796068,0.13232448908796068
191.18,0.08082379542477791,0.08082379542477791
191.181,0.02997263724171151,0.02997263724171151
191.182,0.010033787026083818,-0.010033787026083818
191.183,0.03233764389400007,-0.03233764389400007
191.184,0.034672279727392064,-0.034672279727392064
191.185,0.01926890732611075,-0.01926890732611075
191.186,0.008397495463527083,0.008397495463527083
191.187,0.04150018200269767,0.04150018200269767
191.188,0.07373363652442477,0.07373363652442477
191.189,0.10060870268944155,0.10060870268944155
191.19,0.11988735294323516,0.11988735294323516
191.191,0.13121615073841597,0.13121615073841597
191.192,0.13529535185754282,0.13529535185754282
191.193,0.1330381701912482,0.1330381701912482
191.194,0.1251013406831729,0.1251013406831729
191.195,0.11194719918817908,0.11194719918817908
191.196,0.09432682829054317,0.09432682829054317
191.197,0.07386603129183622,0.07386603129183622
191.198,0.05337475740163322,0.05337475740163322
191.199,0.036609436812505836,0.036609436812505836
191.2,0.027451598291682533,0.027451598291682533
191.201,0.02873042636162415,0.02873042636162415
191.202,0.04110422628547883,0.04110422628547883
191.203,0.062447722100457126,0.062447722100457126
191.204,0.08804955324293684,0.08804955324293684
191.205,0.11165494166544887,0.11165494166544887
191.206,0.12708914322961307,0.12708914322961307
191.207,0.12997792054604096,0.12997792054604096
191.208,0.11902398550925097,0.11902398550925097
191.209,0.09642698349422907,0.09642698349422907
191.21,0.06730591407318554,0.06730591407318554
191.211,0.03830260877563263,0.03830260877563263
191.212,0.015802141764871047,0.015802141764871047
191.213,0.004313507495214752,0.004313507495214752
191.214,0.005478707375618841,0.005478707375618841
191.215,0.01795272122167102,0.01795272122167102
191.216,0.0381046200941928,0.0381046200941928
191.217,0.06123523672081599,0.06123523672081599
191.218,0.08287518706200858,0.08287518706200858
191.219,0.0997560749610098,0.0997560749610098
191.22,0.1102149115796005,0.1102149115796005
191.221,0.11402564684173311,0.11402564684173311
191.222,0.11186047145162603,0.11186047145162603
191.223,0.1046904208167414,0.1046904208167414
191.224,0.09340638140205382,0.09340638140205382
191.225,0.07879881230122154,0.07879881230122154
191.226,0.06184253889374536,0.06184253889374536
191.227,0.0440744023755375,0.0440744023755375
191.228,0.02779326895624301,0.02779326895624301
191.229,0.015878852361579154,0.015878852361579154
191.23,0.011191346603050656,0.011191346603050656
191.231,0.015710467793422778,0.015710467793422778
191.232,0.02971841964461186,0.02971841964461186
191.233,0.05136290733542359,0.05136290733542359
191.234,0.07683362345825251,0.07683362345825251
191.235,0.1011810298042004,0.1011810298042004
191.236,0.11957323955178834,0.11957323955178834
191.237,0.12861262421232844,0.12861262421232844
191.238,0.1272865172792612,0.1272865172792612
191.239,0.11722882859691319,0.11722882859691319
191.24,0.10218953162514577,0.10218953162514577
191.241,0.08687104227241038,0.08687104227241038
191.242,0.07550221069368601,0.07550221069368601
191.243,0.07060689464933345,0.07060689464933345
191.244,0.07235437046429793,0.07235437046429793
191.245,0.07867835181441518,0.07867835181441518
191.246,0.0860916863359209,0.0860916863359209
191.247,0.09089659866439548,0.09089659866439548
191.248,0.0903741477627571,0.0903741477627571
191.249,0.08356847811084123,0.08356847811084123
191.25,0.0714445230074352,0.0714445230074352
191.251,0.05642840005342831,0.05642840005342831
191.252,0.04155182989723505,0.04155182989723505
191.253,0.029539373448981054,0.029539373448981054
191.254,0.022161779482309463,0.022161779482309463
191.255,0.020043063361109947,0.020043063361109947
191.256,0.022910992241894412,0.022910992241894412
191.257,0.030100477866715103,0.030100477866715103
191.258,0.0410281334232403,0.0410281334232403
191.259,0.055388850592721806,0.055388850592721806
191.26,0.07296702611282324,0.07296702611282324
191.261,0.09314745879838782,0.09314745879838782
191.262,0.11437410548036242,0.11437410548036242
191.263,0.13386868253252038,0.13386868253252038
191.264,0.1478527621214587,0.1478527621214587
191.265,0.1523350163190189,0.1523350163190189
191.266,0.14429396179370668,0.14429396179370668
191.267,0.1228932995724632,0.1228932995724632
191.268,0.09028990877231968,0.09028990877231968
191.269,0.05167308281287064,0.05167308281287064
191.27,0.014391988099462294,0.014391988099462294
191.271,0.01368074319434498,-0.01368074319434498
191.272,0.026134680013926603,-0.026134680013926603
191.273,0.01979245925913864,-0.01979245925913864
191.274,0.004273793980973606,0.004273793980973606
191.275,0.04082207390944448,0.04082207390944448
191.276,0.08164411613930755,0.08164411613930755
191.277,0.11758918014624076,0.11758918014624076
191.278,0.14085840908881164,0.14085840908881164
191.279,0.14693765093075006,0.14693765093075006
191.28,0.13564215852283623,0.13564215852283623
191.281,0.11100558405659533,0.11100558405659533
191.282,0.08007651147800332,0.08007651147800332
191.283,0.05098719025069709,0.05098719025069709
191.284,0.030843068365454807,0.030843068365454807
191.285,0.024000295571174446,0.024000295571174446
191.286,0.03115657218284773,0.03115657218284773
191.287,0.04943134834708873,0.04943134834708873
191.288,0.07333502074736487,0.07333502074736487
191.289,0.09630451163742038,0.09630451163742038
191.29,0.11237101137757732,0.11237101137757732
191.291,0.11754208789983434,0.11754208789983434
191.292,0.11060251886652539,0.11060251886652539
191.293,0.09321650707910845,0.09321650707910845
191.294,0.06939110312294705,0.06939110312294705
191.295,0.044490834517630695,0.044490834517630695
191.296,0.02405448828707968,0.02405448828707968
191.297,0.012659941471595548,0.012659941471595548
191.298,0.013033047713010282,0.013033047713010282
191.299,0.02552842285015333,0.02552842285015333
191.3,0.04804370496708965,0.04804370496708965
191.301,0.07637210788956117,0.07637210788956117
191.302,0.10494721877862712,0.10494721877862712
191.303,0.12788144133365265,0.12788144133365265
191.304,0.14014282738574457,0.14014282738574457
191.305,0.13866299292907103,0.13866299292907103
191.306,0.12314078058103828,0.12314078058103828
191.307,0.09632502451262126,0.09632502451262126
191.308,0.06363981589480616,0.06363981589480616
191.309,0.03215311578899205,0.03215311578899205
191.31,0.009057477133413094,0.009057477133413094
191.311,1.5338200705872218e-05,-1.5338200705872218e-05
191.312,0.007563405763629127,0.007563405763629127
191.313,0.030613069100063228,0.030613069100063228
191.314,0.06423493445838835,0.06423493445838835
191.315,0.10084264528142173,0.10084264528142173
191.316,0.13192042145840066,0.13192042145840066
191.317,0.15008505823548512,0.15008505823548512
191.318,0.15092182598824166,0.15092182598824166
191.319,0.1341035092150742,0.1341035092150742
191.32,0.10348193089241775,0.10348193089241775
191.321,0.06611517106269749,0.06611517106269749
191.322,0.03048392058655991,0.03048392058655991
191.323,0.004372662528203675,0.004372662528203675
191.324,0.007019697284928572,-0.007019697284928572
191.325,0.0022455061531316822,-0.0022455061531316822
191.326,0.016235688879224996,0.016235688879224996
191.327,0.04291308289748219,0.04291308289748219
191.328,0.07081852079032913,0.07081852079032913
191.329,0.09339523918911885,0.09339523918911885
191.33,0.10612694698150182,0.10612694698150182
191.331,0.10750775430031112,0.10750775430031112
191.332,0.0991401418683513,0.0991401418683513
191.333,0.08500109448327686,0.08500109448327686
191.334,0.07014076090211119,0.07014076090211119
191.335,0.05921195574228144,0.05921195574228144
191.336,0.055241564698138124,0.055241564698138124
191.337,0.0589529761661991,0.0589529761661991
191.338,0.06877094306311293,0.06877094306311293
191.339,0.08144368879501118,0.08144368879501118
191.34,0.09305812067927133,0.09305812067927133
191.341,0.10014242429869924,0.10014242429869924
191.342,0.10055946975807117,0.10055946975807117
191.343,0.09398084820932162,0.09398084820932162
191.344,0.0818620134373591,0.0818620134373591
191.345,0.06697364243232506,0.06697364243232506
191.346,0.052647726603515466,0.052647726603515466
191.347,0.04194773463113344,0.04194773463113344
191.348,0.03696623241234498,0.03696623241234498
191.349,0.0384011969423379,0.0384011969423379
191.35,0.045483381046662164,0.045483381046662164
191.351,0.05624291211827326,0.05624291211827326
191.352,0.06803177666953997,0.06803177666953997
191.353,0.07817159055094525,0.07817159055094525
191.354,0.08457821924914755,0.08457821924914755
191.355,0.08622635989980032,0.08622635989980032
191.356,0.08335444026304861,0.08335444026304861
191.357,0.0773666081320985,0.0773666081320985
191.358,0.07045489030829266,0.07045489030829266
191.359,0.06502878181979965,0.06502878181979965
191.36,0.06308784158846636,0.06308784158846636
191.361,0.06569238528154009,0.06569238528154009
191.362,0.07266974440848895,0.07266974440848895
191.363,0.08263889007425718,0.08263889007425718
191.364,0.09335512835641069,0.09335512835641069
191.365,0.1022891638908745,0.1022891638908745
191.366,0.1072859612601289,0.1072859612601289
191.367,0.1071207591759209,0.1071207591759209
191.368,0.10179419004091317,0.10179419004091317
191.369,0.09248193997459264,0.09248193997459264
191.37,0.08115679102610529,0.08115679102610529
191.371,0.07000119812538941,0.07000119812538941
191.372,0.06079423546776952,0.06079423546776952
191.373,0.05446475122203953,0.05446475122203953
191.374,0.05094794758793375,0.05094794758793375
191.375,0.04938143088629854,0.04938143088629854
191.376,0.04856186425678666,0.04856186425678666
191.377,0.047493747807487496,0.047493747807487496
191.378,0.04582944956453927,0.04582944956453927
191.379,0.04403754667234572,0.04403754667234572
191.38,0.0432335852718424,0.0432335852718424
191.381,0.04473077882507326,0.04473077882507326
191.382,0.04947437090614071,0.04947437090614071
191.383,0.057573164588628156,0.057573164588628156
191.384,0.06811455556622237,0.06811455556622237
191.385,0.07935184334954792,0.07935184334954792
191.386,0.08921719804843731,0.08921719804843731
191.387,0.09598848308366459,0.09598848308366459
191.388,0.09887000780880051,0.09887000780880051
191.389,0.09826465519492644,0.09826465519492644
191.39,0.09561635087488352,0.09561635087488352
191.391,0.09285516092834056,0.09285516092834056
191.392,0.09162906563218232,0.09162906563218232
191.393,0.09260047800049764,0.09260047800049764
191.394,0.09508314771634763,0.09508314771634763
191.395,0.09719013174213398,0.09719013174213398
191.396,0.09648686471713885,0.09648686471713885
191.397,0.0909540442654071,0.0909540442654071
191.398,0.07993085116549481,0.07993085116549481
191.399,0.06468278021982399,0.06468278021982399
191.4,0.04833806893168502,0.04833806893168502
191.401,0.03513685916841136,0.03513685916841136
191.402,0.02917495175564322,0.02917495175564322
191.403,0.033018834241935524,0.033018834241935524
191.404,0.04664954985375536,0.04664954985375536
191.405,0.06712369081908154,0.06712369081908154
191.406,0.08913353599282026,0.08913353599282026
191.407,0.10636603700713376,0.10636603700713376
191.408,0.11329235908676916,0.11329235908676916
191.409,0.10685646671779514,0.10685646671779514
191.41,0.08753257527110225,0.08753257527110225
191.411,0.05939454114072107,0.05939454114072107
191.412,0.02913568194629801,0.02913568194629801
191.413,0.004302766447184636,0.004302766447184636
191.414,0.008742352500304085,-0.008742352500304085
191.415,0.0065290838477506385,-0.0065290838477506385
191.416,0.010651417963154719,0.010651417963154719
191.417,0.03895385825627762,0.03895385825627762
191.418,0.07216853499016618,0.07216853499016618
191.419,0.10349358782857743,0.10349358782857743
191.42,0.1273214914807812,0.1273214914807812
191.421,0.1404932342232621,0.1404932342232621
191.422,0.1426764497615809,0.1426764497615809
191.423,0.13583622696907693,0.13583622696907693
191.424,0.12307979903629396,0.12307979903629396
191.425,0.10735897479211798,0.10735897479211798
191.426,0.09053568862920636,0.09053568862920636
191.427,0.07314952790368268,0.07314952790368268
191.428,0.05493274422219452,0.05493274422219452
191.429,0.03580673853779848,0.03580673853779848
191.43,0.016882238943073835,0.016882238943073835
191.431,0.0009577420810011894,0.0009577420810011894
191.432,0.007814023413597937,-0.007814023413597937
191.433,0.005100342243723022,-0.005100342243723022
191.434,0.011941249976000323,0.011941249976000323
191.435,0.043093728225994,0.043093728225994
191.436,0.0842564405384254,0.0842564405384254
191.437,0.12781698214160842,0.12781698214160842
191.438,0.16428719885799192,0.16428719885799192
191.439,0.1848225936070973,0.1848225936070973
191.44,0.18388607885504937,0.18388607885504937
191.441,0.1611848783325862,0.1611848783325862
191.442,0.12216866849532404,0.12216866849532404
191.443,0.0767950792722869,0.0767950792722869
191.444,0.036820262578367124,0.036820262578367124
191.445,0.012377801084494822,0.012377801084494822
191.446,0.008893867457105742,0.008893867457105742
191.447,0.025340567881889653,0.025340567881889653
191.448,0.05444938554962442,0.05444938554962442
191.449,0.08490189806236614,0.08490189806236614
191.45,0.10487571571573318,0.10487571571573318
191.451,0.10586022059955247,0.10586022059955247
191.452,0.08552950027188855,0.08552950027188855
191.453,0.04872331297621613,0.04872331297621613
191.454,0.006167544345131892,0.006167544345131892
191.455,0.028717515839777774,-0.028717515839777774
191.456,0.04395080675276719,-0.04395080675276719
191.457,0.032774422760939226,-0.032774422760939226
191.458,0.004113478009117433,0.004113478009117433
191.459,0.058598638339588005,0.058598638339588005
191.46,0.11746783792227444,0.11746783792227444
191.461,0.1662832702423893,0.1662832702423893
191.462,0.19359933018228825,0.19359933018228825
191.463,0.19420364786035038,0.19420364786035038
191.464,0.1703864354206095,0.1703864354206095
191.465,0.1308837904006026,0.1308837904006026
191.466,0.08789000973839389,0.08789000973839389
191.467,0.05314478206205231,0.05314478206205231
191.468,0.03437422022231651,0.03437422022231651
191.469,0.03321457151560603,0.03321457151560603
191.47,0.045230162037795285,0.045230162037795285
191.471,0.06193043327035275,0.06193043327035275
191.472,0.07403337381253738,0.07403337381253738
191.473,0.07483263394950801,0.07483263394950801
191.474,0.06252793517057986,0.06252793517057986
191.475,0.04076336780579526,0.04076336780579526
191.476,0.0172470105341751,0.0172470105341751
191.477,0.000979439818169503,0.000979439818169503
191.478,0.0009242924212873316,-0.0009242924212873316
191.479,0.014275045280264465,0.014275045280264465
191.48,0.04396689738938764,0.04396689738938764
191.481,0.08102210819085709,0.08102210819085709
191.482,0.11609686981663225,0.11609686981663225
191.483,0.1405898768768763,0.1405898768768763
191.484,0.14924314938279037,0.14924314938279037
191.485,0.1415396275034344,0.1415396275034344
191.486,0.12149721616075437,0.12149721616075437
191.487,0.09602405120569357,0.09602405120569357
191.488,0.07248200627724288,0.07248200627724288
191.489,0.05633950422787004,0.05633950422787004
191.49,0.04970859979550668,0.04970859979550668
191.491,0.05119927345929365,0.05119927345929365
191.492,0.05702696836783838,0.05702696836783838
191.493,0.06286195266150973,0.06286195266150973
191.494,0.06567095324971461,0.06567095324971461
191.495,0.06485083117198265,0.06485083117198265
191.496,0.062261165562280896,0.062261165562280896
191.497,0.06120383035970911,0.06120383035970911
191.498,0.06480340066355117,0.06480340066355117
191.499,0.07446094059640207,0.07446094059640207
191.5,0.08900785053348725,0.08900785053348725
191.501,0.10489993140506426,0.10489993140506426
191.502,0.1173792218676204,0.1173792218676204
191.503,0.12215298074997127,0.12215298074997127
191.504,0.11694044080529764,0.11694044080529764
191.505,0.10229324037315535,0.10229324037315535
191.506,0.08138107667474315,0.08138107667474315
191.507,0.05883784673279702,0.05883784673279702
191.508,0.03912786413073155,0.03912786413073155
191.509,0.025074588177683266,0.025074588177683266
191.51,0.017123842990143467,0.017123842990143467
191.511,0.01361625736055494,0.01361625736055494
191.512,0.011934994747349714,0.011934994747349714
191.513,0.010035190215351708,0.010035190215351708
191.514,0.007694632792805134,0.007694632792805134
191.515,0.006922017220522214,0.006922017220522214
191.516,0.011288458821625769,0.011288458821625769
191.517,0.024386531966221314,0.024386531966221314
191.518,0.047998650504289087,0.047998650504289087
191.519,0.08072081980726242,0.08072081980726242
191.52,0.11766378320283644,0.11766378320283644
191.521,0.1514755647773418,0.1514755647773418
191.522,0.17443145433056384,0.17443145433056384
191.523,0.18090586003564013,0.18090586003564013
191.524,0.16934443384484776,0.16934443384484776
191.525,0.1429815523776976,0.1429815523776976
191.526,0.10896619194587709,0.10896619194587709
191.527,0.07612562346087226,0.07612562346087226
191.528,0.052106191100923516,0.052106191100923516
191.529,0.040891018893853825,0.040891018893853825
191.53,0.0415978923164273,0.0415978923164273
191.531,0.04902717464704143,0.04902717464704143
191.532,0.05580549787213851,0.05580549787213851
191.533,0.055378511447370826,0.055378511447370826
191.534,0.04476461539304655,0.04476461539304655
191.535,0.026026864700747332,0.026026864700747332
191.536,0.005850851303070392,0.005850851303070392
191.537,0.006710134828916137,-0.006710134828916137
191.538,0.003581596212419824,-0.003581596212419824
191.539,0.019073433901403147,0.019073433901403147
191.54,0.05889064786289078,0.05889064786289078
191.541,0.10743389706490114,0.10743389706490114
191.542,0.15250060160309942,0.15250060160309942
191.543,0.1819097990360259,0.1819097990360259
191.544,0.1875185013160674,0.1875185013160674
191.545,0.1680743846365833,0.1680743846365833
191.546,0.12986257174374494,0.12986257174374494
191.547,0.08483421299758054,0.08483421299758054
191.548,0.04676966335618893,0.04676966335618893
191.549,0.026729448352571517,0.026729448352571517
191.55,0.029331798383820162,0.029331798383820162
191.551,0.05115516610824855,0.05115516610824855
191.552,0.08186780035199526,0.08186780035199526
191.553,0.10776454035553806,0.10776454035553806
191.554,0.11655709249034607,0.11655709249034607
191.555,0.10180731012176802,0.10180731012176802
191.556,0.06547748441168166,0.06547748441168166
191.557,0.017677856581935103,0.017677856581935103
191.558,0.02637914230342897,-0.02637914230342897
191.559,0.051267347895108895,-0.051267347895108895
191.56,0.04649287048988504,-0.04649287048988504
191.561,0.010201003427073974,-0.010201003427073974
191.562,0.049800329114486175,0.049800329114486175
191.563,0.11807798150296644,0.11807798150296644
191.564,0.17605581178730967,0.17605581178730967
191.565,0.20753515322684013,0.20753515322684013
191.566,0.20351870276340378,0.20351870276340378
191.567,0.16483993411851006,0.16483993411851006
191.568,0.10181637598680715,0.10181637598680715
191.569,0.03109777048360929,0.03109777048360929
191.57,0.029246323769692495,-0.029246323769692495
191.571,0.06484183687521072,-0.06484183687521072
191.572,0.06877245392333053,-0.06877245392333053
191.573,0.04292918171661941,-0.04292918171661941
191.574,0.0033035743195444223,0.0033035743195444223
191.575,0.05643182628633725,0.05643182628633725
191.576,0.10310804470394008,0.10310804470394008
191.577,0.13388057886166327,0.13388057886166327
191.578,0.14533210782454797,0.14533210782454797
191.579,0.14011268517353392,0.14011268517353392
191.58,0.1250938219214861,0.1250938219214861
191.581,0.10845505160146485,0.10845505160146485
191.582,0.09677928604820352,0.09677928604820352
191.583,0.09311509203611079,0.09311509203611079
191.584,0.09653477976268077,0.09653477976268077
191.585,0.10314986708436291,0.10314986708436291
191.586,0.1080471764955655,0.1080471764955655
191.587,0.10734628170797311,0.10734628170797311
191.588,0.09962315541790367,0.09962315541790367
191.589,0.08625276098337742,0.08625276098337742
191.59,0.07066184161248734,0.07066184161248734
191.591,0.05688315197706029,0.05688315197706029
191.592,0.04802217581391344,0.04802217581391344
191.593,0.04522202308835466,0.04522202308835466
191.594,0.047471522776498576,0.047471522776498576
191.595,0.05225234697676595,0.05225234697676595
191.596,0.056702271909023994,0.056702271909023994
191.597,0.05880069948266464,0.05880069948266464
191.598,0.058112732088833274,0.058112732088833274
191.599,0.055833239651286615,0.055833239651286615
191.6,0.054161892794239996,0.054161892794239996
191.601,0.05529755251917523,0.05529755251917523
191.602,0.060469238481336784,0.060469238481336784
191.603,0.069380286239348,0.069380286239348
191.604,0.08025920428951672,0.08025920428951672
191.605,0.09046537339238125,0.09046537339238125
191.606,0.09738929786684825,0.09738929786684825
191.607,0.0992940863930527,0.0992940863930527
191.608,0.0957954767365159,0.0957954767365159
191.609,0.08784190362673483,0.08784190362673483
191.61,0.07726060759202769,0.07726060759202769
191.611,0.0660958832925902,0.0660958832925902
191.612,0.05601978955599485,0.05601978955599485
191.613,0.0480295186781563,0.0480295186781563
191.614,0.04249537106712453,0.04249537106712453
191.615,0.0394586063033886,0.0394586063033886
191.616,0.03897207087431598,0.03897207087431598
191.617,0.04127331921311339,0.04127331921311339
191.618,0.04667845103062107,0.04667845103062107
191.619,0.05523850451861145,0.05523850451861145
191.62,0.06633771218560502,0.06633771218560502
191.621,0.07846921658366357,0.07846921658366357
191.622,0.08936865612136535,0.08936865612136535
191.623,0.09653788734167734,0.09653788734167734
191.624,0.09801091955648666,0.09801091955648666
191.625,0.09308052171764847,0.09308052171764847
191.626,0.08268019528030379,0.08268019528030379
191.627,0.0692223319274845,0.0692223319274845
191.628,0.055895254384532356,0.055895254384532356
191.629,0.04564232822583714,0.04564232822583714
191.63,0.04019486658169069,0.04019486658169069
191.631,0.03953980774263566,0.03953980774263566
191.632,0.04205817890692387,0.04205817890692387
191.633,0.04531801947531067,0.04531801947531067
191.634,0.047239370713324735,0.047239370713324735
191.635,0.0471749672550843,0.0471749672550843
191.636,0.04644497248902857,0.04644497248902857
191.637,0.04804266421506975,0.04804266421506975
191.638,0.055534360762991675,0.055534360762991675
191.639,0.07150127689064556,0.07150127689064556
191.64,0.0960890927700433,0.0960890927700433
191.641,0.12625089569421455,0.12625089569421455
191.642,0.1560682622757541,0.1560682622757541
191.643,0.17817285432207108,0.17817285432207108
191.644,0.18589027063763042,0.18589027063763042
191.645,0.17543367920479191,0.17543367920479191
191.646,0.1474005479639855,0.1474005479639855
191.647,0.10701104718089915,0.10701104718089915
191.648,0.06291921634990416,0.06291921634990416
191.649,0.02489928081310655,0.02489928081310655
191.65,0.0010982892083906126,0.0010982892083906126
191.651,0.004284995662766966,-0.004284995662766966
191.652,0.007849336052047295,0.007849336052047295
191.653,0.03189956948280637,0.03189956948280637
191.654,0.059386663979581034,0.059386663979581034
191.655,0.08162284567664724,0.08162284567664724
191.656,0.09237118788021759,0.09237118788021759
191.657,0.08965427332219633,0.08965427332219633
191.658,0.07615753254100666,0.07615753254100666
191.659,0.05813713013904631,0.05813713013904631
191.66,0.043225793940198765,0.043225793940198765
191.661,0.03787202320238059,0.03787202320238059
191.662,0.04523980053286425,0.04523980053286425
191.663,0.06421598209180712,0.06421598209180712
191.664,0.08979156222718432,0.08979156222718432
191.665,0.11463580235464454,0.11463580235464454
191.666,0.13131888249499424,0.13131888249499424
191.667,0.1344726678303929,0.1344726678303929
191.668,0.12225044420653264,0.12225044420653264
191.669,0.09671283772589967,0.09671283772589967
191.67,0.06312451137975472,0.06312451137975472
191.671,0.028469522903977085,0.028469522903977085
191.672,0.00031843574355894244,-0.00031843574355894244
191.673,0.017905011353869904,-0.017905011353869904
191.674,0.021523548076404442,-0.021523548076404442
191.675,0.011231234262112033,-0.011231234262112033
191.676,0.010459349481389157,0.010459349481389157
191.677,0.0393477984442967,0.0393477984442967
191.678,0.0704588634186083,0.0704588634186083
191.679,0.09890804552885579,0.09890804552885579
191.68,0.1206236389706592,0.1206236389706592
191.681,0.13290359540459074,0.13290359540459074
191.682,0.13480382036086969,0.13480382036086969
191.683,0.12732090915978578,0.12732090915978578
191.684,0.11328573602638192,0.11328573602638192
191.685,0.09687641929552293,0.09687641929552293
191.686,0.08272565535935028,0.08272565535935028
191.687,0.07473510530443228,0.07473510530443228
191.688,0.07487111344011543,0.07487111344011543
191.689,0.08232606674563892,0.08232606674563892
191.69,0.0934166547144808,0.0934166547144808
191.691,0.1024218412846043,0.1024218412846043
191.692,0.1032692509859574,0.1032692509859574
191.693,0.0916495347499462,0.0916495347499462
191.694,0.06689794905952673,0.06689794905952673
191.695,0.03294205071745382,0.03294205071745382
191.696,0.0021745177590745124,-0.0021745177590745124
191.697,0.0282574876871029,-0.0282574876871029
191.698,0.035968484613204454,-0.035968484613204454
191.699,0.019997452170435137,-0.019997452170435137
191.7,0.018648698097621708,0.018648698097621708
191.701,0.07211951773576475,0.07211951773576475
191.702,0.12733889067102622,0.12733889067102622
191.703,0.16946902367627503,0.16946902367627503
191.704,0.1862758324906415,0.1862758324906415
191.705,0.1720654409823279,0.1720654409823279
191.706,0.12989103803323387,0.12989103803323387
191.707,0.07119591736491726,0.07119591736491726
191.708,0.012834921788635878,0.012834921788635878
191.709,0.02773896173991275,-0.02773896173991275
191.71,0.037702555309259034,-0.037702555309259034
191.711,0.012884362904475033,-0.012884362904475033
191.712,0.040721013416231466,0.040721013416231466
191.713,0.10849343286948221,0.10849343286948221
191.714,0.17137573957431962,0.17137573957431962
191.715,0.21145646348055513,0.21145646348055513
191.716,0.21723445175366352,0.21723445175366352
191.717,0.18694017636869398,0.18694017636869398
191.718,0.12889909530008303,0.12889909530008303
191.719,0.05886049190795517,0.05886049190795517
191.72,0.004825845328861322,-0.004825845328861322
191.721,0.046637293951056535,-0.046637293951056535
191.722,0.05820695861996039,-0.05820695861996039
191.723,0.04024905054995409,-0.04024905054995409
191.724,0.0015909082653627893,-0.0015909082653627893
191.725,0.04422769764753687,0.04422769764753687
191.726,0.08355882400179526,0.08355882400179526
191.727,0.10689072084293327,0.10689072084293327
191.728,0.1113684154323411,0.1113684154323411
191.729,0.1008759785015314,0.1008759785015314
191.73,0.08382947050039347,0.08382947050039347
191.731,0.0696043606638932,0.0696043606638932
191.732,0.06494322607576075,0.06494322607576075
191.733,0.07162445881613078,0.07162445881613078
191.734,0.08615989109736133,0.08615989109736133
191.735,0.10152401645808884,0.10152401645808884
191.736,0.11017896869985111,0.11017896869985111
191.737,0.10721019520636932,0.10721019520636932
191.738,0.09238119337695738,0.09238119337695738
191.739,0.07034363692954271,0.07034363692954271
191.74,0.04893806031945491,0.04893806031945491
191.741,0.036232063938355985,0.036232063938355985
191.742,0.03740936883300128,0.03740936883300128
191.743,0.0526777022448246,0.0526777022448246
191.744,0.07699053733254146,0.07699053733254146
191.745,0.10171537619803783,0.10171537619803783
191.746,0.11767054650153419,0.11767054650153419
191.747,0.11844972211483751,0.11844972211483751
191.748,0.10283848902832848,0.10283848902832848
191.749,0.07544033488811985,0.07544033488811985
191.75,0.045257834884294246,0.045257834884294246
191.751,0.022694805711826138,0.022694805711826138
191.752,0.0160023754968861,0.0160023754968861
191.753,0.02839134712993774,0.02839134712993774
191.754,0.05680738901317506,0.05680738901317506
191.755,0.09279631943917521,0.09279631943917521
191.756,0.1251744122365963,0.1251744122365963
191.757,0.1436102553678893,0.1436102553678893
191.758,0.14192717133705623,0.14192717133705623
191.759,0.12004450826990265,0.12004450826990265
191.76,0.08394658512163189,0.08394658512163189
191.761,0.04373180330859294,0.04373180330859294
191.762,0.010422372672157065,0.010422372672157065
191.763,0.007402510983032906,-0.007402510983032906
191.764,0.006069705019416172,-0.006069705019416172
191.765,0.01237003119044755,0.01237003119044755
191.766,0.04114373234717483,0.04114373234717483
191.767,0.07115589401624622,0.07115589401624622
191.768,0.093938894741312,0.093938894741312
191.769,0.10418305947239648,0.10418305947239648
191.77,0.10107589643551496,0.10107589643551496
191.771,0.0881179340055327,0.0881179340055327
191.772,0.07159673945101708,0.07159673945101708
191.773,0.05831589388875491,0.05831589388875491
191.774,0.053362918136290904,0.053362918136290904
191.775,0.05861695172657444,0.05861695172657444
191.776,0.07239506382345806,0.07239506382345806
191.777,0.0902356815992027,0.0902356815992027
191.778,0.10646040678059165,0.10646040678059165
191.779,0.11595396983825079,0.11595396983825079
191.78,0.11560392623839943,0.11560392623839943
191.781,0.10502031152380509,0.10502031152380509
191.782,0.0864276933234922,0.0864276933234922
191.783,0.0638842252302052,0.0638842252302052
191.784,0.04214957230460725,0.04214957230460725
191.785,0.025557715030058548,0.025557715030058548
191.786,0.017167141160705945,0.017167141160705945
191.787,0.018314926757353467,0.018314926757353467
191.788,0.02855990482397064,0.02855990482397064
191.789,0.04591415574937763,0.04591415574937763
191.79,0.0672473595102776,0.0672473595102776
191.791,0.08878522814631995,0.08878522814631995
191.792,0.10667034201344383,0.10667034201344383
191.793,0.1175722106929542,0.1175722106929542
191.794,0.11930649243797631,0.11930649243797631
191.795,0.11136506040160521,0.11136506040160521
191.796,0.09520687696991459,0.09520687696991459
191.797,0.0741569853417956,0.0741569853417956
191.798,0.0528319567098563,0.0528319567098563
191.799,0.03614588404382135,0.03614588404382135
191.8,0.02810800936345137,0.02810800936345137
191.801,0.030738452979137243,0.030738452979137243
191.802,0.043445720803591215,0.043445720803591215
191.803,0.06310417143352631,0.06310417143352631
191.804,0.08486358602226929,0.08486358602226929
191.805,0.10348166973972495,0.10348166973972495
191.806,0.11478031826407697,0.11478031826407697
191.807,0.11676328064103614,0.11676328064103614
191.808,0.11003007864748793,0.11003007864748793
191.809,0.09735397950308688,0.09735397950308688
191.81,0.08258258370424065,0.08258258370424065
191.811,0.06926343073545138,0.06926343073545138
191.812,0.059500697303299654,0.059500697303299654
191.813,0.053467100956749336,0.053467100956749336
191.814,0.04974988433732164,0.04974988433732164
191.815,0.046386662867516915,0.046386662867516915
191.816,0.04216543424204611,0.04216543424204611
191.817,0.03763322725096052,0.03763322725096052
191.818,0.035338249510432185,0.035338249510432185
191.819,0.0391031863721516,0.0391031863721516
191.82,0.05250098161432182,0.05250098161432182
191.821,0.07704400859905403,0.07704400859905403
191.822,0.11077245957106752,0.11077245957106752
191.823,0.14786042610435612,0.14786042610435612
191.824,0.17955514360026847,0.17955514360026847
191.825,0.1963190295891235,0.1963190295891235
191.826,0.19060518618010502,0.19060518618010502
191.827,0.15942065735009492,0.15942065735009492
191.828,0.10582454978150313,0.10582454978150313
191.829,0.03878810915906672,0.03878810915906672
191.83,0.02866927971621469,-0.02866927971621469
191.831,0.08261440467637804,-0.08261440467637804
191.832,0.11173525926523387,-0.11173525926523387
191.833,0.1102553883338322,-0.1102553883338322
191.834,0.07937341529605546,-0.07937341529605546
191.835,0.026810471444334127,-0.026810471444334127
191.836,0.03538371280197339,0.03538371280197339
191.837,0.09409744698953149,0.09409744698953149
191.838,0.13852427678925472,0.13852427678925472
191.839,0.16266198629872952,0.16266198629872952
191.84,0.1662767950921158,0.1662767950921158
191.841,0.1541623671595751,0.1541623671595751
191.842,0.1340492636355406,0.1340492636355406
191.843,0.11390798111031342,0.11390798111031342
191.844,0.09952087639970242,0.09952087639970242
191.845,0.09304618552914334,0.09304618552914334
191.846,0.09292591316801335,0.09292591316801335
191.847,0.09503167786520073,0.09503167786520073
191.848,0.09455259366538615,0.09455259366538615
191.849,0.08792968187454275,0.08792968187454275
191.85,0.07418459914516817,0.07418459914516817
191.851,0.05524538164363846,0.05524538164363846
191.852,0.035238887424618115,0.035238887424618115
191.853,0.019068370729683704,0.019068370729683704
191.854,0.01080980435958745,0.01080980435958745
191.855,0.012479671692479544,0.012479671692479544
191.856,0.0235579120895284,0.0235579120895284
191.857,0.04136349222546398,0.04136349222546398
191.858,0.0620823752682953,0.0620823752682953
191.859,0.08204064045828385,0.08204064045828385
191.86,0.09876338513935812,0.09876338513935812
191.861,0.11146991221879476,0.11146991221879476
191.862,0.12087909200636204,0.12087909200636204
191.863,0.12845191203396467,0.12845191203396467
191.864,0.13539274531524592,0.13539274531524592
191.865,0.14180387167805497,0.14180387167805497
191.866,0.14632106426461688,0.14632106426461688
191.867,0.14638099508950764,0.14638099508950764
191.868,0.13904779802831202,0.13904779802831202
191.869,0.12213165935036963,0.12213165935036963
191.87,0.09522844761479576,0.09522844761479576
191.871,0.06032571615826665,0.06032571615826665
191.872,0.021747663118953264,0.021747663118953264
191.873,0.014592419053130135,-0.014592419053130135
191.874,0.04245910021081378,-0.04245910021081378
191.875,0.05675400337532821,-0.05675400337532821
191.876,0.05477823785831348,-0.05477823785831348
191.877,0.03695403890084592,-0.03695403890084592
191.878,0.006799068160367683,-0.006799068160367683
191.879,0.029860378301721058,0.029860378301721058
191.88,0.06625260930721644,0.06625260930721644
191.881,0.09626155663895442,0.09626155663895442
191.882,0.11585632711058613,0.11585632711058613
191.883,0.12397265297297833,0.12397265297297833
191.884,0.12260120173404343,0.12260120173404343
191.885,0.11604000008345006,0.11604000008345006
191.886,0.10949350357336773,0.10949350357336773
191.887,0.1073914114582768,0.1073914114582768
191.888,0.11190176984066169,0.11190176984066169
191.889,0.12208884895114558,0.12208884895114558
191.89,0.1340109992755547,0.1340109992755547
191.891,0.14179834386305679,0.14179834386305679
191.892,0.1394591710414399,0.1394591710414399
191.893,0.12292042326861585,0.12292042326861585
191.894,0.09169071748247482,0.09169071748247482
191.895,0.049593312151957614,0.049593312151957614
191.896,0.004251542141243236,0.004251542141243236
191.897,0.03463498194630432,-0.03463498194630432
191.898,0.057808614856318496,-0.057808614856318496
191.899,0.05907135808723585,-0.05907135808723585
191.9,0.037220683887435047,-0.037220683887435047
191.901,0.003326098650926479,0.003326098650926479
191.902,0.053488048252450904,0.053488048252450904
191.903,0.10185673690938946,0.10185673690938946
191.904,0.13777559584922128,0.13777559584922128
191.905,0.15426549678617496,0.15426549678617496
191.906,0.1499095201614029,0.1499095201614029
191.907,0.12910146422760604,0.12910146422760604
191.908,0.10055560805849906,0.10055560805849906
191.909,0.07451873440584689,0.07451873440584689
191.91,0.059544711340810075,0.059544711340810075
191.911,0.05984570617509166,0.05984570617509166
191.912,0.07406341469039646,0.07406341469039646
191.913,0.09585525706875231,0.09585525706875231
191.914,0.11610507197148823,0.11610507197148823
191.915,0.12603605479799018,0.12603605479799018
191.916,0.12020320479035185,0.12020320479035185
191.917,0.098377538900013,0.098377538900013
191.918,0.06569817788751431,0.06569817788751431
191.919,0.031043306322843245,0.031043306322843245
191.92,0.00416571406906896,0.00416571406906896
191.921,0.0074476390329129005,-0.0074476390329129005
191.922,0.000941594113038069,-0.000941594113038069
191.923,0.02110122759914357,0.02110122759914357
191.924,0.051667503750432164,0.051667503750432164
191.925,0.08176745069737534,0.08176745069737534
191.926,0.1034771878920746,0.1034771878920746
191.927,0.11251339637119573,0.11251339637119573
191.928,0.10945321777218275,0.10945321777218275
191.929,0.09918965990476969,0.09918965990476969
191.93,0.0888340603647706,0.0888340603647706
191.931,0.08482662231727778,0.08482662231727778
191.932,0.09030136011534373,0.09030136011534373
191.933,0.10367125687011969,0.10367125687011969
191.934,0.11897798642597546,0.11897798642597546
191.935,0.12793200414799455,0.12793200414799455
191.936,0.12296664887946629,0.12296664887946629
191.937,0.10025361091735441,0.10025361091735441
191.938,0.061609629731611326,0.061609629731611326
191.939,0.014575702217489717,0.014575702217489717
191.94,0.029446132576505413,-0.029446132576505413
191.941,0.05846055212457413,-0.05846055212457413
191.942,0.06353202726697071,-0.06353202726697071
191.943,0.04165653635209232,-0.04165653635209232
191.944,0.0030788503913681264,0.0030788503913681264
191.945,0.060439266840769834,0.060439266840769834
191.946,0.11681466052848588,0.11681466052848588
191.947,0.1589779540752505,0.1589779540752505
191.948,0.17769213354579239,0.17769213354579239
191.949,0.17010181590354323,0.17010181590354323
191.95,0.14024777789071896,0.14024777789071896
191.951,0.09763571436994489,0.09763571436994489
191.952,0.054376335501380435,0.054376335501380435
191.953,0.021807615249648027,0.021807615249648027
191.954,0.007598626598474878,0.007598626598474878
191.955,0.014110646683293426,0.014110646683293426
191.956,0.038349468983942536,0.038349468983942536
191.957,0.07334112415663263,0.07334112415663263
191.958,0.11036594302222791,0.11036594302222791
191.959,0.1413085630697739,0.1413085630697739
191.96,0.16045593843778705,0.16045593843778705
191.961,0.165346741694955,0.165346741694955
191.962,0.15662920754082799,0.15662920754082799
191.963,0.137191930858775,0.137191930858775
191.964,0.11099724661160049,0.11099724661160049
191.965,0.08203621545637518,0.08203621545637518
191.966,0.05367198671775553,0.05367198671775553
191.967,0.028425309169838542,0.028425309169838542
191.968,0.008073893372943397,0.008073893372943397
191.969,0.006147853016086557,-0.006147853016086557
191.97,0.013433175444498069,-0.013433175444498069
191.971,0.013445377906777578,-0.013445377906777578
191.972,0.006464097291295934,-0.006464097291295934
191.973,0.006499966207431873,0.006499966207431873
191.974,0.023754585779545145,0.023754585779545145
191.975,0.04319134703403771,0.04319134703403771
191.976,0.06270200437824847,0.06270200437824847
191.977,0.08058979900549024,0.08058979900549024
191.978,0.09580217551368198,0.09580217551368198
191.979,0.1078818059320854,0.1078818059320854
191.98,0.1166633079448911,0.1166633079448911
191.981,0.1218745771030787,0.1218745771030787
191.982,0.1228699258760304,0.1228699258760304
191.983,0.11868682068235215,0.11868682068235215
191.984,0.10848270890343947,0.10848270890343947
191.985,0.09222327903679028,0.09222327903679028
191.986,0.07133678372827656,0.07133678372827656
191.987,0.0489956552763795,0.0489956552763795
191.988,0.029775307040198484,0.029775307040198484
191.989,0.018653237394518518,0.018653237394518518
191.99,0.019577284803858452,0.019577284803858452
191.991,0.03404791523524486,0.03404791523524486
191.992,0.06023213239280434,0.06023213239280434
191.993,0.09300942042976068,0.09300942042976068
191.994,0.125066351781975,0.125066351781975
191.995,0.148796292206808,0.148796292206808
191.996,0.15845173080477726,0.15845173080477726
191.997,0.15185844022640316,0.15185844022640316
191.998,0.13109786177158478,0.13109786177158478
191.999,0.10187913302568319,0.10187913302568319
192.0,0.07175593229124755,0.07175593229124755
192.001,0.047747080762433836,0.047747080762433836
192.002,0.03414731693155604,0.03414731693155604
192.003,0.031275777509867764,0.031275777509867764
192.004,0.03560631601654385,0.03560631601654385
192.005,0.041253056940511845,0.041253056940511845
192.006,0.04230776830137106,0.04230776830137106
192.007,0.035212142102166055,0.035212142102166055
192.008,0.02031458277072251,0.02031458277072251
192.009,0.0020278178333927865,0.0020278178333927865
192.01,0.012515878385237711,-0.012515878385237711
192.011,0.015885798740152723,-0.015885798740152723
192.012,0.003032518963509201,-0.003032518963509201
192.013,0.02670412384577414,0.02670412384577414
192.014,0.06897748370602885,0.06897748370602885
192.015,0.11545886271660288,0.11545886271660288
192.016,0.1561949701773233,0.1561949701773233
192.017,0.18252839921925945,0.18252839921925945
192.018,0.1896149451735396,0.1896149451735396
192.019,0.17770899146775698,0.17770899146775698
192.02,0.1518121822926497,0.1518121822926497
192.021,0.11984245861276221,0.11984245861276221
192.022,0.08998266322959791,0.08998266322959791
192.023,0.06813414560843256,0.06813414560843256
192.024,0.05633917058286353,0.05633917058286353
192.025,0.0526714635822505,0.0526714635822505
192.026,0.052559661225063614,0.052559661225063614
192.027,0.050996395697904484,0.050996395697904484
192.028,0.04477938184870922,0.04477938184870922
192.029,0.03393813723317485,0.03393813723317485
192.03,0.021815091075575888,0.021815091075575888
192.031,0.013776019345937529,0.013776019345937529
192.032,0.015036831493411507,0.015036831493411507
192.033,0.028425469233028355,0.028425469233028355
192.034,0.05292903305328789,0.05292903305328789
192.035,0.08359653406896461,0.08359653406896461
192.036,0.11287886677982306,0.11287886677982306
192.037,0.13296695625925148,0.13296695625925148
192.038,0.13832459950820186,0.13832459950820186
192.039,0.12753516183184344,0.12753516183184344
192.04,0.10381781043015414,0.10381781043015414
192.041,0.07403317649492736,0.07403317649492736
192.042,0.046523012317694956,0.046523012317694956
192.043,0.02852627149875886,0.02852627149875886
192.044,0.02404538801939693,0.02404538801939693
192.045,0.03285897745363542,0.03285897745363542
192.046,0.05095964429433608,0.05095964429433608
192.047,0.07219181813975428,0.07219181813975428
192.048,0.09045635802287211,0.09045635802287211
192.049,0.10167971537411802,0.10167971537411802
192.05,0.10486989111245992,0.10486989111245992
192.051,0.10194589254013708,0.10194589254013708
192.052,0.09649241422516952,0.09649241422516952
192.053,0.0919839586874609,0.0919839586874609
192.054,0.09019987721792422,0.09019987721792422
192.055,0.09045337567536227,0.09045337567536227
192.056,0.08992602553260753,0.08992602553260753
192.057,0.08496312026892316,0.08496312026892316
192.058,0.07280970951170906,0.07280970951170906
192.059,0.05309296242138761,0.05309296242138761
192.06,0.02844765122262949,0.02844765122262949
192.061,0.004002388067937401,0.004002388067937401
192.062,0.01412630795506209,-0.01412630795506209
192.063,0.020807934221278135,-0.020807934221278135
192.064,0.01363175372046399,-0.01363175372046399
192.065,0.006230127196910962,0.006230127196910962
192.066,0.034350208825599804,0.034350208825599804
192.067,0.0644545768981053,0.0644545768981053
192.068,0.09041532513520179,0.09041532513520179
192.069,0.10812170608405491,0.10812170608405491
192.07,0.11657601771883774,0.11657601771883774
