Czas,AbsSum,Sum
70.682,0.061819700504178066,0.061819700504178066
70.683,0.05173897295240515,0.05173897295240515
70.68400000000001,0.02560871448491686,0.02560871448491686
70.685,0.012007815345018935,-0.012007815345018935
70.686,0.05453435417364849,-0.05453435417364849
70.68700000000001,0.0947125079001615,-0.0947125079001615
70.688,0.12617745766658028,-0.12617745766658028
70.68900000000001,0.1448601749054318,-0.1448601749054318
70.69000000000001,0.14982598204533393,-0.14982598204533393
70.691,0.14331007397411755,-0.14331007397411755
70.69200000000001,0.12994006505003686,-0.12994006505003686
70.69300000000001,0.11537250030842094,-0.11537250030842094
70.694,0.10473931143315196,-0.10473931143315196
70.69500000000001,0.10134731874882452,-0.10134731874882452
70.69600000000001,0.105984512398689,-0.105984512398689
70.697,0.11699102507840398,-0.11699102507840398
70.69800000000001,0.13101499520803972,-0.13101499520803972
70.69900000000001,0.14417115917230328,-0.14417115917230328
70.7,0.15321687977254284,-0.15321687977254284
70.70100000000001,0.1563856794949945,-0.1563856794949945
70.70200000000001,0.15365776153936495,-0.15365776153936495
70.703,0.14644841175694068,-0.14644841175694068
70.70400000000001,0.13688784057357684,-0.13688784057357684
70.70500000000001,0.12698546046956016,-0.12698546046956016
70.706,0.11798163550305174,-0.11798163550305174
70.70700000000001,0.11009420502612866,-0.11009420502612866
70.70800000000001,0.10270604049747756,-0.10270604049747756
70.709,0.09487492583380885,-0.09487492583380885
70.71000000000001,0.08593760626085789,-0.08593760626085789
70.71100000000001,0.07596210380549517,-0.07596210380549517
70.712,0.06587713779645221,-0.06587713779645221
70.71300000000001,0.05724139206883727,-0.05724139206883727
70.71400000000001,0.05175482092129258,-0.05175482092129258
70.715,0.050706175307980716,-0.050706175307980716
70.71600000000001,0.05456305088044966,-0.05456305088044966
70.71700000000001,0.06284278422876088,-0.06284278422876088
70.718,0.07428537456550666,-0.07428537456550666
70.71900000000001,0.08723233294256127,-0.08723233294256127
70.72000000000001,0.10004531540060779,-0.10004531540060779
70.721,0.11140237910606854,-0.11140237910606854
70.72200000000001,0.1203833941930762,-0.1203833941930762
70.72300000000001,0.12636599872264342,-0.12636599872264342
70.724,0.12885037057951765,-0.12885037057951765
70.72500000000001,0.12737045984391682,-0.12737045984391682
70.72600000000001,0.12160999915885717,-0.12160999915885717
70.727,0.11173569429866625,-0.11173569429866625
70.72800000000001,0.09882970087359333,-0.09882970087359333
70.729,0.08520558969148118,-0.08520558969148118
70.73,0.07437551031760414,-0.07437551031760414
70.73100000000001,0.07052173963686648,-0.07052173963686648
70.732,0.07749440941613261,-0.07749440941613261
70.733,0.09755430451955571,-0.09755430451955571
70.73400000000001,0.1302324242263948,-0.1302324242263948
70.735,0.17172148254895958,-0.17172148254895958
70.736,0.21511647223149766,-0.21511647223149766
70.73700000000001,0.25159730847631634,-0.25159730847631634
70.738,0.2723583015851291,-0.2723583015851291
70.739,0.27082719135433353,-0.27082719135433353
70.74000000000001,0.24457051232566818,-0.24457051232566818
70.741,0.19631064143928956,-0.19631064143928956
70.742,0.13368845315966504,-0.13368845315966504
70.74300000000001,0.0677415146538739,-0.0677415146538739
70.744,0.010434796639398503,-0.010434796639398503
70.745,0.028132102830992656,0.028132102830992656
70.74600000000001,0.042100973984950496,0.042100973984950496
70.747,0.031169566397516224,0.031169566397516224
70.748,0.00048459184795768273,0.00048459184795768273
70.74900000000001,0.040854207245783924,-0.040854207245783924
70.75,0.0822599100708481,-0.0822599100708481
70.751,0.11440861574644878,-0.11440861574644878
70.75200000000001,0.1315194048962095,-0.1315194048962095
70.753,0.13255665201352018,-0.13255665201352018
70.754,0.12106509057616877,-0.12106509057616877
70.75500000000001,0.10374136788722188,-0.10374136788722188
70.756,0.08819928461499194,-0.08819928461499194
70.757,0.08059854650206877,-0.08059854650206877
70.75800000000001,0.08382157721283678,-0.08382157721283678
70.759,0.09670191891420077,-0.09670191891420077
70.76,0.11448967012307554,-0.11448967012307554
70.76100000000001,0.13038021141368994,-0.13038021141368994
70.762,0.13763597698541097,-0.13763597698541097
70.763,0.13167870246226598,-0.13167870246226598
70.76400000000001,0.11155823832516909,-0.11155823832516909
70.765,0.08039760609018154,-0.08039760609018154
70.766,0.04471088079885577,-0.04471088079885577
70.76700000000001,0.012803374019267233,-0.012803374019267233
70.768,0.007294713375510131,0.007294713375510131
70.769,0.009802294305602643,0.009802294305602643
70.77000000000001,0.0074410498867071295,-0.0074410498867071295
70.771,0.042532435339764474,-0.042532435339764474
70.772,0.09005711899424684,-0.09005711899424684
70.77300000000001,0.1424352584232843,-0.1424352584232843
70.774,0.19167028065432246,-0.19167028065432246
70.775,0.23102806737202286,-0.23102806737202286
70.77600000000001,0.2562311438764989,-0.2562311438764989
70.777,0.2659165276874633,-0.2659165276874633
70.778,0.2613283245166874,-0.2613283245166874
70.77900000000001,0.24543132163596804,-0.24543132163596804
70.78,0.2217791572325799,-0.2217791572325799
70.781,0.1935108445324184,-0.1935108445324184
70.78200000000001,0.16277496453848816,-0.16277496453848816
70.783,0.13071758590693383,-0.13071758590693383
70.784,0.09796958796803579,-0.09796958796803579
70.78500000000001,0.06539408862775109,-0.06539408862775109
70.786,0.03476028896679706,-0.03476028896679706
70.787,0.00902753288679492,-0.00902753288679492
70.78800000000001,0.007949890063559728,0.007949890063559728
70.789,0.012287617869080947,0.012287617869080947
70.79,0.0012861055965773804,0.0012861055965773804
70.79100000000001,0.025377355297372173,-0.025377355297372173
70.792,0.06489506109158072,-0.06489506109158072
70.793,0.1113395687903993,-0.1113395687903993
70.79400000000001,0.15656083053728131,-0.15656083053728131
70.795,0.19183040299497078,-0.19183040299497078
70.796,0.2098515254684734,-0.2098515254684734
70.79700000000001,0.20660849690416982,-0.20660849690416982
70.798,0.1825313108305866,-0.1825313108305866
70.799,0.14261052921034323,-0.14261052921034323
70.80000000000001,0.09537358843430732,-0.09537358843430732
70.801,0.05094972353391214,-0.05094972353391214
70.802,0.018713288702934205,-0.018713288702934205
70.80300000000001,0.005123859388942109,-0.005123859388942109
70.804,0.012333741925260489,-0.012333741925260489
70.805,0.037919728324500634,-0.037919728324500634
70.80600000000001,0.07577750823104301,-0.07577750823104301
70.807,0.11788864756763073,-0.11788864756763073
70.808,0.15643032100662324,-0.15643032100662324
70.80900000000001,0.18561931918983376,-0.18561931918983376
70.81,0.20278694720767687,-0.20278694720767687
70.811,0.2084358883530406,-0.2084358883530406
70.81200000000001,0.20535302636618358,-0.20535302636618358
70.813,0.1971417535835036,-0.1971417535835036
70.81400000000001,0.18670302898641555,-0.18670302898641555
70.81500000000001,0.17518617537307257,-0.17518617537307257
70.816,0.1617539149307201,-0.1617539149307201
70.81700000000001,0.14422096358184533,-0.14422096358184533
70.81800000000001,0.12032530376162232,-0.12032530376162232
70.819,0.0891733930176325,-0.0891733930176325
70.82000000000001,0.05233476424188477,-0.05233476424188477
70.82100000000001,0.014167786532904625,-0.014167786532904625
70.822,0.018798533784101235,0.018798533784101235
70.82300000000001,0.03930040604410956,0.03930040604410956
70.82400000000001,0.04120253822079545,0.04120253822079545
70.825,0.021254599486720815,0.021254599486720815
70.82600000000001,0.019774276837906557,-0.019774276837906557
70.82700000000001,0.07692422118059317,-0.07692422118059317
70.828,0.14190497383798584,-0.14190497383798584
70.82900000000001,0.20476841178535432,-0.20476841178535432
70.83000000000001,0.2559563745940908,-0.2559563745940908
70.831,0.28820025252958004,-0.28820025252958004
70.83200000000001,0.2978114186075894,-0.2978114186075894
70.83300000000001,0.2850870047416224,-0.2850870047416224
70.834,0.25380327635211564,-0.25380327635211564
70.83500000000001,0.21000502872347127,-0.21000502872347127
70.83600000000001,0.1604595667499259,-0.1604595667499259
70.837,0.11119097474434436,-0.11119097474434436
70.83800000000001,0.06644304036802107,-0.06644304036802107
70.83900000000001,0.028267900755773567,-0.028267900755773567
70.84,0.003247704552080899,0.003247704552080899
70.84100000000001,0.02927276504940224,0.02927276504940224
70.84200000000001,0.0512992562429444,0.0512992562429444
70.843,0.07027353338241005,0.07027353338241005
70.84400000000001,0.08603044126455339,0.08603044126455339
70.84500000000001,0.0971664710346909,0.0971664710346909
70.846,0.10136357241599336,0.10136357241599336
70.84700000000001,0.09605921415317842,0.09605921415317842
70.84800000000001,0.07927532574228313,0.07927532574228313
70.849,0.050383016017155,0.050383016017155
70.85000000000001,0.010595192248896934,0.010595192248896934
70.85100000000001,0.03695977115850191,-0.03695977115850191
70.852,0.08763554916401706,-0.08763554916401706
70.85300000000001,0.13607827590061117,-0.13607827590061117
70.854,0.1772867338137497,-0.1772867338137497
70.855,0.20768325561584977,-0.20768325561584977
70.85600000000001,0.22592995415021044,-0.22592995415021044
70.857,0.23326121851564663,-0.23326121851564663
70.858,0.23320220896067945,-0.23320220896067945
70.85900000000001,0.23068770412820183,-0.23068770412820183
70.86,0.23075397165805311,-0.23075397165805311
70.861,0.23710703784535636,-0.23710703784535636
70.86200000000001,0.2509341054187988,-0.2509341054187988
70.863,0.2702951720583031,-0.2702951720583031
70.864,0.2903073330391269,-0.2903073330391269
70.86500000000001,0.30414059293020523,-0.30414059293020523
70.866,0.30462982188305676,-0.30462982188305676
70.867,0.286131429811165,-0.286131429811165
70.86800000000001,0.2461670704835064,-0.2461670704835064
70.869,0.18642875034404638,-0.18642875034404638
70.87,0.11286565747858035,-0.11286565747858035
70.87100000000001,0.034795552898439164,-0.034795552898439164
70.872,0.03677701674225964,0.03677701674225964
70.873,0.0912615862239714,0.0912615862239714
70.87400000000001,0.12053341909841997,0.12053341909841997
70.875,0.12049225206872105,0.12049225206872105
70.876,0.0918150634281143,0.0918150634281143
70.87700000000001,0.039785247177846594,0.039785247177846594
70.878,0.026714411330774013,-0.026714411330774013
70.879,0.09679482481049628,-0.09679482481049628
70.88000000000001,0.15940265165902145,-0.15940265165902145
70.881,0.20507071984308278,-0.20507071984308278
70.882,0.22730018659279194,-0.22730018659279194
70.88300000000001,0.2233988640686062,-0.2233988640686062
70.884,0.1947067472282572,-0.1947067472282572
70.885,0.14622993487704572,-0.14622993487704572
70.88600000000001,0.08577033574524062,-0.08577033574524062
70.887,0.02268536972393198,-0.02268536972393198
70.888,0.03355179591634738,0.03355179591634738
70.88900000000001,0.07479075327208506,0.07479075327208506
70.89,0.09542194743115706,0.09542194743115706
70.891,0.09316300811109635,0.09316300811109635
70.89200000000001,0.06925199411820948,0.06925199411820948
70.893,0.02798535255392376,0.02798535255392376
70.894,0.024324252622039078,-0.024324252622039078
70.89500000000001,0.08075018134232748,-0.08075018134232748
70.896,0.13518516420726356,-0.13518516420726356
70.897,0.18344594587377405,-0.18344594587377405
70.89800000000001,0.22376023878410212,-0.22376023878410212
70.899,0.25651193515635484,-0.25651193515635484
70.9,0.28333818378116127,-0.28333818378116127
70.90100000000001,0.30587704412027306,-0.30587704412027306
70.902,0.32458813209088744,-0.32458813209088744
70.903,0.3380626979537913,-0.3380626979537913
70.90400000000001,0.34309552213898364,-0.34309552213898364
70.905,0.3355470790016696,-0.3355470790016696
70.906,0.31175596195382393,-0.31175596195382393
70.90700000000001,0.27005760513950616,-0.27005760513950616
70.908,0.21189848050372284,-0.21189848050372284
70.909,0.1421351568206719,-0.1421351568206719
70.91000000000001,0.0683494803037955,-0.0683494803037955
70.911,0.0006800057006182136,0.0006800057006182136
70.912,0.05693477538282932,0.05693477538282932
70.91300000000001,0.0949758288923166,0.0949758288923166
70.914,0.1130893531204169,0.1130893531204169
70.915,0.11342280261745796,0.11342280261745796
70.91600000000001,0.10108477395166138,0.10108477395166138
70.917,0.08249862897553806,0.08249862897553806
70.918,0.0635205612552896,0.0635205612552896
70.91900000000001,0.04788702317739557,0.04788702317739557
70.92,0.03643008001893122,0.03643008001893122
70.921,0.027239064370396582,0.027239064370396582
70.92200000000001,0.0166433240278836,0.0166433240278836
70.923,0.0006459093428721197,0.0006459093428721197
70.924,0.023670335460293845,-0.023670335460293845
70.92500000000001,0.05718713862739955,-0.05718713862739955
70.926,0.09847943224506461,-0.09847943224506461
70.927,0.1442150953836383,-0.1442150953836383
70.92800000000001,0.18999890865442226,-0.18999890865442226
70.929,0.23132616096819547,-0.23132616096819547
70.93,0.2643384347365957,-0.2643384347365957
70.93100000000001,0.28621182731963957,-0.28621182731963957
70.932,0.29519112507147394,-0.29519112507147394
70.933,0.29043321087439145,-0.29043321087439145
70.93400000000001,0.2718781404060592,-0.2718781404060592
70.935,0.240307748215139,-0.240307748215139
70.936,0.1976092607170875,-0.1976092607170875
70.93700000000001,0.14710146142173275,-0.14710146142173275
70.938,0.0936786817545131,-0.0936786817545131
70.93900000000001,0.04353614648522952,-0.04353614648522952
70.94000000000001,0.003366766099469287,-0.003366766099469287
70.941,0.02087797734709884,0.02087797734709884
70.94200000000001,0.02536920114729946,0.02536920114729946
70.94300000000001,0.009512886800635112,0.009512886800635112
70.944,0.023595442170394554,-0.023595442170394554
70.94500000000001,0.06759595627040726,-0.06759595627040726
70.94600000000001,0.11413172981421071,-0.11413172981421071
70.947,0.15465388516236056,-0.15465388516236056
70.94800000000001,0.18228269218161008,-0.18228269218161008
70.94900000000001,0.19321766970371768,-0.19321766970371768
70.95,0.18732860218441827,-0.18732860218441827
70.95100000000001,0.16781430239128636,-0.16781430239128636
70.95200000000001,0.1400978417867056,-0.1400978417867056
70.953,0.11033852952808987,-0.11033852952808987
70.95400000000001,0.08401280226573093,-0.08401280226573093
70.95500000000001,0.06493240168996939,-0.06493240168996939
70.956,0.05487089935177791,-0.05487089935177791
70.95700000000001,0.05374128513036458,-0.05374128513036458
70.95800000000001,0.06009751891380133,-0.06009751891380133
70.959,0.0716825073140287,-0.0716825073140287
70.96000000000001,0.0858221677415959,-0.0858221677415959
70.96100000000001,0.09962342779663813,-0.09962342779663813
70.962,0.11009206707208818,-0.11009206707208818
70.96300000000001,0.11436387905659706,-0.11436387905659706
70.96400000000001,0.110195804221768,-0.110195804221768
70.965,0.09670627773079288,-0.09670627773079288
70.96600000000001,0.0751548635293442,-0.0751548635293442
70.96700000000001,0.049407323499625844,-0.049407323499625844
70.968,0.025727780653237775,-0.025727780653237775
70.96900000000001,0.01170699794327934,-0.01170699794327934
70.97000000000001,0.01443528401194738,-0.01443528401194738
70.971,0.0383564445412099,-0.0383564445412099
70.97200000000001,0.08346357484032985,-0.08346357484032985
70.97300000000001,0.14450927039926742,-0.14450927039926742
70.974,0.21166298808261697,-0.21166298808261697
70.97500000000001,0.2726117444007733,-0.2726117444007733
70.97600000000001,0.3156050699853117,-0.3156050699853117
70.977,0.3325677017612274,-0.3325677017612274
70.97800000000001,0.3212953535313553,-0.3212953535313553
70.979,0.28597659565993594,-0.28597659565993594
70.98,0.2357961870887263,-0.2357961870887263
70.98100000000001,0.18201203369204966,-0.18201203369204966
70.982,0.1344406361813565,-0.1344406361813565
70.983,0.09853321816977911,-0.09853321816977911
70.98400000000001,0.07406801186196987,-0.07406801186196987
70.985,0.05595354301078326,-0.05595354301078326
70.986,0.036900522219224574,-0.036900522219224574
70.98700000000001,0.011028761270466703,-0.011028761270466703
70.988,0.02291787197792261,0.02291787197792261
70.989,0.06001133330645203,0.06001133330645203
70.99000000000001,0.08997069501578814,0.08997069501578814
70.991,0.10029398453427896,0.10029398453427896
70.992,0.08074937164249318,0.08074937164249318
70.99300000000001,0.027713707897674356,0.027713707897674356
70.994,0.05322477697587369,-0.05322477697587369
70.995,0.14749908878545148,-0.14749908878545148
70.99600000000001,0.23482943417961732,-0.23482943417961732
70.997,0.2946921998613372,-0.2946921998613372
70.998,0.31235569318093503,-0.31235569318093503
70.99900000000001,0.28355168323427415,-0.28355168323427415
71.0,0.21619356160858005,-0.21619356160858005
71.001,0.1284424217364859,-0.1284424217364859
71.00200000000001,0.043583288364166584,-0.043583288364166584
71.003,0.016774479760546912,0.016774479760546912
71.004,0.039070382623495936,0.039070382623495936
71.00500000000001,0.02172094920555745,0.02172094920555745
71.006,0.024672031274687978,-0.024672031274687978
71.007,0.08093631405897828,-0.08093631405897828
71.00800000000001,0.12564794090573572,-0.12564794090573572
71.009,0.14216109801524812,-0.14216109801524812
71.01,0.12411812495425234,-0.12411812495425234
71.01100000000001,0.07768558339791543,-0.07768558339791543
71.012,0.019799549557956486,-0.019799549557956486
71.013,0.027035820130447696,0.027035820130447696
71.01400000000001,0.04177436500764098,0.04177436500764098
71.015,0.01150317503464282,0.01150317503464282
71.016,0.06427093923288008,-0.06427093923288008
71.01700000000001,0.17299326020416605,-0.17299326020416605
71.018,0.29222182714088085,-0.29222182714088085
71.019,0.39556806229814756,-0.39556806229814756
71.02000000000001,0.4596236497991453,-0.4596236497991453
71.021,0.4698756262612688,-0.4698756262612688
71.022,0.42401762710285296,-0.42401762710285296
71.02300000000001,0.3319167131961247,-0.3319167131961247
71.024,0.21249840508008577,-0.21249840508008577
71.025,0.0886490789416633,-0.0886490789416633
71.02600000000001,0.01833299211189643,0.01833299211189643
71.027,0.09326564573061846,0.09326564573061846
71.028,0.12958962331737567,0.12958962331737567
71.02900000000001,0.12953949017808397,0.12953949017808397
71.03,0.10232281399911147,0.10232281399911147
71.031,0.0610886575400027,0.0610886575400027
71.03200000000001,0.01959227214671233,0.01959227214671233
71.033,0.01069057393152173,-0.01069057393152173
71.034,0.022557328300618296,-0.022557328300618296
71.03500000000001,0.014056780418453152,-0.014056780418453152
71.036,0.011460265173181217,0.011460265173181217
71.037,0.04606160963154737,0.04606160963154737
71.03800000000001,0.07860156774570104,0.07860156774570104
71.039,0.09665354890982436,0.09665354890982436
71.04,0.08889056777162052,0.08889056777162052
71.04100000000001,0.04765728654278112,0.04765728654278112
71.042,0.028721791636760363,-0.028721791636760363
71.043,0.1345055037186157,-0.1345055037186157
71.04400000000001,0.25656528579697613,-0.25656528579697613
71.045,0.37622697322933873,-0.37622697322933873
71.046,0.4728101700422528,-0.4728101700422528
71.04700000000001,0.5281992911898998,-0.5281992911898998
71.048,0.5313301974298723,-0.5313301974298723
71.049,0.48131530518968235,-0.48131530518968235
71.05000000000001,0.38816807559911193,-0.38816807559911193
71.051,0.2707018152222812,-0.2707018152222812
71.052,0.152003465921283,-0.152003465921283
71.05300000000001,0.053660454651437095,-0.053660454651437095
71.054,0.009621887162199805,0.009621887162199805
71.055,0.033415094420560454,0.033415094420560454
71.05600000000001,0.02393854466783374,0.02393854466783374
71.057,0.004705374906665227,-0.004705374906665227
71.058,0.03555018209355265,-0.03555018209355265
71.05900000000001,0.05442465772953009,-0.05442465772953009
71.06,0.0544244291507191,-0.0544244291507191
71.061,0.03775690981512281,-0.03775690981512281
71.06200000000001,0.014395288516912186,-0.014395288516912186
71.063,0.001951830756438122,0.001951830756438122
71.06400000000001,0.0008561757952988414,-0.0008561757952988414
71.06500000000001,0.028654214783089715,-0.028654214783089715
71.066,0.07843811319689631,-0.07843811319689631
71.06700000000001,0.13891298373027905,-0.13891298373027905
71.06800000000001,0.19393932667698977,-0.19393932667698977
71.069,0.2276984959728593,-0.2276984959728593
71.07000000000001,0.22981609474597187,-0.22981609474597187
71.07100000000001,0.198710764475316,-0.198710764475316
71.072,0.14206274331581192,-0.14206274331581192
71.07300000000001,0.07429794935789047,-0.07429794935789047
71.07400000000001,0.012005496261115245,-0.012005496261115245
71.075,0.031108661178469443,0.031108661178469443
71.07600000000001,0.04801732768771205,0.04801732768771205
71.07700000000001,0.03969321989575669,0.03969321989575669
71.078,0.013641234383595213,0.013641234383595213
71.07900000000001,0.01967614386637828,-0.01967614386637828
71.08000000000001,0.05111221270132771,-0.05111221270132771
71.081,0.07619979730246751,-0.07619979730246751
71.08200000000001,0.09638456086038427,-0.09638456086038427
71.08300000000001,0.11773141683239086,-0.11773141683239086
71.084,0.14766133162404238,-0.14766133162404238
71.08500000000001,0.19100888095342639,-0.19100888095342639
71.08600000000001,0.24693834587233043,-0.24693834587233043
71.087,0.30793366445194703,-0.30793366445194703
71.08800000000001,0.3613103502829125,-0.3613103502829125
71.08900000000001,0.3927718578593362,-0.3927718578593362
71.09,0.3907894238647516,-0.3907894238647516
71.09100000000001,0.3502923266328277,-0.3502923266328277
71.09200000000001,0.27441440845730636,-0.27441440845730636
71.093,0.17374810637799665,-0.17374810637799665
71.09400000000001,0.06344184624078508,-0.06344184624078508
71.09500000000001,0.04078831427004559,0.04078831427004559
71.096,0.12634352691615502,0.12634352691615502
71.09700000000001,0.1859387931759542,0.1859387931759542
71.09800000000001,0.21776184435139267,0.21776184435139267
71.099,0.223856316771061,0.223856316771061
71.10000000000001,0.207661686586877,0.207661686586877
71.10100000000001,0.17191218935367591,0.17191218935367591
71.102,0.11786455796723305,0.11786455796723305
71.10300000000001,0.04618591223219748,0.04618591223219748
71.104,0.04095377793280541,-0.04095377793280541
71.105,0.13765460879490543,-0.13765460879490543
71.10600000000001,0.23317680264301532,-0.23317680264301532
71.107,0.31285282176365026,-0.31285282176365026
71.108,0.36116103111022,-0.36116103111022
71.10900000000001,0.3661969956626655,-0.3661969956626655
71.11,0.32408622523654973,-0.32408622523654973
71.111,0.2416875871101244,-0.2416875871101244
71.11200000000001,0.13635195457975158,-0.13635195457975158
71.113,0.03241408232893184,-0.03241408232893184
71.114,0.04479647252147423,0.04479647252147423
71.11500000000001,0.07572811199100737,0.07572811199100737
71.116,0.052088909604510514,0.052088909604510514
71.117,0.020721593641011893,-0.020721593641011893
71.11800000000001,0.12506285566541375,-0.12506285566541375
71.119,0.23598346950876203,-0.23598346950876203
71.12,0.3281044612352765,-0.3281044612352765
71.12100000000001,0.3823060773354964,-0.3823060773354964
71.122,0.3901667252936928,-0.3901667252936928
71.123,0.35489301110155536,-0.35489301110155536
71.12400000000001,0.28868898993434156,-0.28868898993434156
71.125,0.20771811094729664,-0.20771811094729664
71.126,0.1265890614971027,-0.1265890614971027
71.12700000000001,0.0543726288932177,-0.0543726288932177
71.128,0.006494473689654834,0.006494473689654834
71.129,0.058205851849421286,0.058205851849421286
71.13000000000001,0.10348887458279288,0.10348887458279288
71.131,0.14127165223397875,0.14127165223397875
71.132,0.16412683554514218,0.16412683554514218
71.13300000000001,0.15889275455854213,0.15889275455854213
71.134,0.11068887152870555,0.11068887152870555
71.135,0.009198890942446969,0.009198890942446969
71.13600000000001,0.14492679355073146,-0.14492679355073146
71.137,0.336011800319272,-0.336011800319272
71.138,0.533555033925248,-0.533555033925248
71.13900000000001,0.6973465499744764,-0.6973465499744764
71.14,0.7865630423795588,-0.7865630423795588
71.141,0.7705109003836973,-0.7705109003836973
71.14200000000001,0.6379507362665369,-0.6379507362665369
71.143,0.4021336032713497,-0.4021336032713497
71.144,0.09977818674673444,-0.09977818674673444
71.14500000000001,0.21609708720953602,0.21609708720953602
71.146,0.4878096919450503,0.4878096919450503
71.147,0.6661327272063209,0.6661327272063209
71.14800000000001,0.7214616514028984,0.7214616514028984
71.149,0.6501240018310175,0.6501240018310175
71.15,0.47428136451475633,0.47428136451475633
71.15100000000001,0.235637283022184,0.235637283022184
71.152,0.015180641485445179,-0.015180641485445179
71.153,0.2306234163166644,-0.2306234163166644
71.15400000000001,0.3764589907412007,-0.3764589907412007
71.155,0.4377716296489166,-0.4377716296489166
71.156,0.41956505788943677,-0.41956505788943677
71.15700000000001,0.3423600242282009,-0.3423600242282009
71.158,0.23450178498355567,-0.23450178498355567
71.159,0.12363512237361318,-0.12363512237361318
71.16000000000001,0.029796402339319128,-0.029796402339319128
71.161,0.03812684104058395,0.03812684104058395
71.162,0.081956281342219,0.081956281342219
71.16300000000001,0.11041011121394528,0.11041011121394528
71.164,0.1334723789037109,0.1334723789037109
71.165,0.15692695505803433,0.15692695505803433
71.16600000000001,0.17886114474471015,0.17886114474471015
71.167,0.18925120471549484,0.18925120471549484
71.168,0.17275963503192737,0.17275963503192737
71.16900000000001,0.11389155870080092,0.11389155870080092
71.17,0.0029464080596866005,0.0029464080596866005
71.171,0.15905435272649793,-0.15905435272649793
71.17200000000001,0.35802728711068843,-0.35802728711068843
71.173,0.5679517833956931,-0.5679517833956931
71.174,0.7554057398633331,-0.7554057398633331
71.17500000000001,0.8865283204937647,-0.8865283204937647
71.176,0.9347377622615063,-0.9347377622615063
71.177,0.8872649417183148,-0.8872649417183148
71.17800000000001,0.7487918740324946,-0.7487918740324946
71.179,0.5411603769999824,-0.5411603769999824
71.18,0.2990782186910511,-0.2990782186910511
71.18100000000001,0.06275971735970454,-0.06275971735970454
71.182,0.13076365940462065,0.13076365940462065
71.183,0.25555351657857095,0.25555351657857095
71.18400000000001,0.3019490898165058,0.3019490898165058
71.185,0.27775265443173724,0.27775265443173724
71.186,0.20516167424366305,0.20516167424366305
71.18700000000001,0.11429489183458963,0.11429489183458963
71.188,0.035046129546001614,0.035046129546001614
71.18900000000001,0.01057547011490223,-0.01057547011490223
71.19000000000001,0.01362098864019412,-0.01362098864019412
71.191,0.020396929183615686,0.020396929183615686
71.19200000000001,0.07410898561638124,0.07410898561638124
71.19300000000001,0.12402506195665941,0.12402506195665941
71.194,0.14768634386481394,0.14768634386481394
71.19500000000001,0.1301869365597399,0.1301869365597399
71.19600000000001,0.06828042253917976,0.06828042253917976
71.197,0.028948163274998384,-0.028948163274998384
71.19800000000001,0.1428384659184877,-0.1428384659184877
71.19900000000001,0.25036082232119694,-0.25036082232119694
71.2,0.33016497583640547,-0.33016497583640547
71.20100000000001,0.3677493466064209,-0.3677493466064209
71.20200000000001,0.35843034353981806,-0.35843034353981806
71.203,0.3075488652496987,-0.3075488652496987
71.20400000000001,0.22820059527866154,-0.22820059527866154
71.20500000000001,0.13744265702187863,-0.13744265702187863
71.206,0.05221834307552109,-0.05221834307552109
71.20700000000001,0.013896430742209365,0.013896430742209365
71.20800000000001,0.05248605085750424,0.05248605085750424
71.209,0.060574964731593406,0.060574964731593406
71.21000000000001,0.03982230690374089,0.03982230690374089
71.21100000000001,0.004728668131244174,-0.004728668131244174
71.212,0.0658032997051412,-0.0658032997051412
71.21300000000001,0.13472222875862316,-0.13472222875862316
71.21400000000001,0.2020295024987735,-0.2020295024987735
71.215,0.25826058089455084,-0.25826058089455084
71.21600000000001,0.2951438396239566,-0.2951438396239566
71.21700000000001,0.30724088531795424,-0.30724088531795424
71.218,0.29363457043946506,-0.29363457043946506
71.21900000000001,0.2589718822565499,-0.2589718822565499
71.22000000000001,0.21314481796027218,-0.21314481796027218
71.221,0.16922365528047245,-0.16922365528047245
71.22200000000001,0.13986902782450006,-0.13986902782450006
71.22300000000001,0.13312839729806536,-0.13312839729806536
71.224,0.14899000484264413,-0.14899000484264413
71.22500000000001,0.17808752631890368,-0.17808752631890368
71.22600000000001,0.2034317779861068,-0.2034317779861068
71.227,0.2051033907452371,-0.2051033907452371
71.22800000000001,0.16676624587250333,-0.16676624587250333
71.229,0.08203967060875872,-0.08203967060875872
71.23,0.041464498013812356,0.041464498013812356
71.23100000000001,0.18211734493818388,0.18211734493818388
71.232,0.3087716178955331,0.3087716178955331
71.233,0.38882246498374506,0.38882246498374506
71.23400000000001,0.3975788929559674,0.3975788929559674
71.235,0.3260540396533569,0.3260540396533569
71.236,0.18456830069684949,0.18456830069684949
71.23700000000001,0.0007457009255060765,0.0007457009255060765
71.238,0.18777161384949037,-0.18777161384949037
71.239,0.3438224118269768,-0.3438224118269768
71.24000000000001,0.44122172878910937,-0.44122172878910937
71.241,0.4719038820582041,-0.4719038820582041
71.242,0.44734589470322417,-0.44734589470322417
71.24300000000001,0.3937166912449416,-0.3937166912449416
71.244,0.34226214516873643,-0.34226214516873643
71.245,0.31806331322009096,-0.31806331322009096
71.24600000000001,0.3309281724739954,-0.3309281724739954
71.247,0.3715515754752763,-0.3715515754752763
71.248,0.41437740789658895,-0.41437740789658895
71.24900000000001,0.4263662653412409,-0.4263662653412409
71.25,0.3788524842181866,-0.3788524842181866
71.251,0.2585547173802768,-0.2585547173802768
71.25200000000001,0.07398376661563033,-0.07398376661563033
71.253,0.14506293813469773,0.14506293813469773
71.254,0.3549819327984447,0.3549819327984447
71.25500000000001,0.510571910699726,0.510571910699726
71.256,0.5781268962958155,0.5781268962958155
71.257,0.5452335319294179,0.5452335319294179
71.25800000000001,0.42413443710071297,0.42413443710071297
71.259,0.2476031621426018,0.2476031621426018
71.26,0.058708127973726265,0.058708127973726265
71.26100000000001,0.10218794956966082,-0.10218794956966082
71.262,0.20899514649672368,-0.20899514649672368
71.263,0.2563746094198801,-0.2563746094198801
71.26400000000001,0.259215176199166,-0.259215176199166
71.265,0.2455407424746361,-0.2455407424746361
71.266,0.24543497255603652,-0.24543497255603652
71.26700000000001,0.27981418939333336,-0.27981418939333336
71.268,0.35281349277623864,-0.35281349277623864
71.269,0.45022622599851136,-0.45022622599851136
71.27000000000001,0.5443303456188664,-0.5443303456188664
71.271,0.60328041484254,-0.60328041484254
71.272,0.6017736277921635,-0.6017736277921635
71.27300000000001,0.5293925901759735,-0.5293925901759735
71.274,0.39395375348164985,-0.39395375348164985
71.275,0.21898889616706718,-0.21898889616706718
71.27600000000001,0.036506666100059815,-0.036506666100059815
71.277,0.12228656341794175,0.12228656341794175
71.278,0.23509846010444968,0.23509846010444968
71.27900000000001,0.2929082556250924,0.2929082556250924
71.28,0.2994885747168641,0.2994885747168641
71.281,0.26682582843937874,0.26682582843937874
71.28200000000001,0.20862951159463106,0.20862951159463106
71.283,0.13469423360345445,0.13469423360345445
71.284,0.0483797885597812,0.0483797885597812
71.28500000000001,0.05188772142391862,-0.05188772142391862
71.286,0.16789096470392162,-0.16789096470392162
71.287,0.2958592126342433,-0.2958592126342433
71.28800000000001,0.4223997418961376,-0.4223997418961376
71.289,0.5243296058743203,-0.5243296058743203
71.29,0.5731933560790088,-0.5731933560790088
71.29100000000001,0.5434405063891574,-0.5434405063891574
71.292,0.4216962877167545,-0.4216962877167545
71.293,0.21387089681927685,-0.21387089681927685
71.29400000000001,0.05269543112935948,0.05269543112935948
71.295,0.3333729989843077,0.3333729989843077
71.296,0.5759591242482811,0.5759591242482811
71.29700000000001,0.7333642457915852,0.7333642457915852
71.298,0.7755546228263632,0.7755546228263632
71.299,0.6971200371366144,0.6971200371366144
71.30000000000001,0.5181066179746392,0.5181066179746392
71.301,0.277817971257192,0.277817971257192
71.302,0.023474464569267495,0.023474464569267495
71.30300000000001,0.20278259519771036,-0.20278259519771036
71.304,0.37456907485945634,-0.37456907485945634
71.305,0.4864266212321535,-0.4864266212321535
71.30600000000001,0.552080172933759,-0.552080172933759
71.307,0.5965984171810983,-0.5965984171810983
71.308,0.6451972254460894,-0.6451972254460894
71.30900000000001,0.7124505536721911,-0.7124505536721911
71.31,0.7954835650124583,-0.7954835650124583
71.311,0.8733999018111231,-0.8733999018111231
71.31200000000001,0.9131786034152464,-0.9131786034152464
71.313,0.8802145074924035,-0.8802145074924035
71.31400000000001,0.7502147137154845,-0.7502147137154845
71.31500000000001,0.5187424436018597,-0.5187424436018597
71.316,0.205421742383741,-0.205421742383741
71.31700000000001,0.14857004744662916,0.14857004744662916
71.31800000000001,0.48910479611902025,0.48910479611902025
71.319,0.7614242069606771,0.7614242069606771
71.32000000000001,0.9227841506651375,0.9227841506651375
71.32100000000001,0.9520194474219816,0.9520194474219816
71.322,0.8535819524101522,0.8535819524101522
71.32300000000001,0.6552041615645319,0.6552041615645319
71.32400000000001,0.4000957926715967,0.4000957926715967
71.325,0.13599154214997689,0.13599154214997689
71.32600000000001,0.09593489308871528,-0.09593489308871528
71.32700000000001,0.2694367441283193,-0.2694367441283193
71.328,0.3769033195328543,-0.3769033195328543
71.32900000000001,0.4278484021138639,-0.4278484021138639
71.33000000000001,0.4430432437039028,-0.4430432437039028
71.331,0.44626230311286896,-0.44626230311286896
71.33200000000001,0.45611789281884585,-0.45611789281884585
71.33300000000001,0.4802785457438883,-0.4802785457438883
71.334,0.5135832974691485,-0.5135832974691485
71.33500000000001,0.5404146676259958,-0.5404146676259958
71.33600000000001,0.5404902983611024,-0.5404902983611024
71.337,0.49628958040411053,-0.49628958040411053
71.33800000000001,0.399885306641934,-0.399885306641934
71.33900000000001,0.2571117047165983,-0.2571117047165983
71.34,0.08772752246632731,-0.08772752246632731
71.34100000000001,0.07865806237047757,0.07865806237047757
71.34200000000001,0.20992391844064806,0.20992391844064806
71.343,0.2800874148075905,0.2800874148075905
71.34400000000001,0.27683787420849937,0.27683787420849937
71.34500000000001,0.20570930479402572,0.20570930479402572
71.346,0.08948369335207373,0.08948369335207373
71.34700000000001,0.03729373917927792,-0.03729373917927792
71.34800000000001,0.13739999406675119,-0.13739999406675119
71.349,0.18121150387753726,-0.18121150387753726
71.35000000000001,0.15527608642792823,-0.15527608642792823
71.35100000000001,0.06661753396675807,-0.06661753396675807
71.352,0.05867432787019822,0.05867432787019822
71.35300000000001,0.18240342667068288,0.18240342667068288
71.354,0.26496031754718685,0.26496031754718685
71.355,0.2767410298297601,0.2767410298297601
71.35600000000001,0.20694867804589645,0.20694867804589645
71.357,0.06710305384694037,0.06710305384694037
71.358,0.1119009433395951,-0.1119009433395951
71.35900000000001,0.2884171673759467,-0.2884171673759467
71.36,0.4218343320408021,-0.4218343320408021
71.361,0.4839911119200512,-0.4839911119200512
71.36200000000001,0.4667600122911064,-0.4667600122911064
71.363,0.38350926439370225,-0.38350926439370225
71.364,0.2640707025608978,-0.2640707025608978
71.36500000000001,0.14490407946484407,-0.14490407946484407
71.366,0.05768201770006365,-0.05768201770006365
71.367,0.020007766989913578,-0.020007766989913578
71.36800000000001,0.031238539493922524,-0.031238539493922524
71.369,0.07464760029013995,-0.07464760029013995
71.37,0.12499109291198307,-0.12499109291198307
71.37100000000001,0.1586844708904388,-0.1586844708904388
71.372,0.16288626842258713,-0.16288626842258713
71.373,0.14016924703321199,-0.14016924703321199
71.37400000000001,0.1070269367513198,-0.1070269367513198
71.375,0.08669536844622705,-0.08669536844622705
71.376,0.09889299701075871,-0.09889299701075871
71.37700000000001,0.15033506423421994,-0.15033506423421994
71.378,0.2297792881657157,-0.2297792881657157
71.379,0.3098845062846387,-0.3098845062846387
71.38000000000001,0.3557758002568131,-0.3557758002568131
71.381,0.33771587942077674,-0.33771587942077674
71.382,0.2435660068374501,-0.2435660068374501
71.38300000000001,0.08643320732585169,-0.08643320732585169
71.384,0.0957719721350021,0.0957719721350021
71.385,0.2495709670782622,0.2495709670782622
71.38600000000001,0.3216537240383892,0.3216537240383892
71.387,0.27641142407144015,0.27641142407144015
71.388,0.1095883810916296,0.1095883810916296
71.38900000000001,0.1467487940872686,-0.1467487940872686
71.39,0.4302039436521935,-0.4302039436521935
71.391,0.6638767473348584,-0.6638767473348584
71.39200000000001,0.7776849297310044,-0.7776849297310044
71.393,0.7289025579561701,-0.7289025579561701
71.394,0.5156277201948216,-0.5156277201948216
71.39500000000001,0.1788854614890938,-0.1788854614890938
71.396,0.2075294759082491,0.2075294759082491
71.397,0.5566232001722018,0.5566232001722018
71.39800000000001,0.7914443718429196,0.7914443718429196
71.399,0.8651371089352775,0.8651371089352775
71.4,0.7719673010115973,0.7719673010115973
71.40100000000001,0.5463194206509108,0.5463194206509108
71.402,0.2503964665140448,0.2503964665140448
71.403,0.04520671999600956,-0.04520671999600956
71.40400000000001,0.2818392002944683,-0.2818392002944683
71.405,0.4277935972279845,-0.4277935972279845
71.406,0.48368134130105744,-0.48368134130105744
71.40700000000001,0.4771557521403208,-0.4771557521403208
71.408,0.44942647786315826,-0.44942647786315826
71.409,0.4385523871315862,-0.4385523871315862
71.41000000000001,0.4653093490863033,-0.4653093490863033
71.411,0.5262909307621968,-0.5262909307621968
71.412,0.5962523935663459,-0.5962523935663459
71.41300000000001,0.6384818399377027,-0.6384818399377027
71.414,0.6192769295847839,-0.6192769295847839
71.415,0.5213176434943688,-0.5213176434943688
71.41600000000001,0.35125055454503284,-0.35125055454503284
71.417,0.13891018842448022,-0.13891018842448022
71.418,0.07146142721910609,0.07146142721910609
71.41900000000001,0.234896838989612,0.234896838989612
71.42,0.3195743478012234,0.3195743478012234
71.421,0.3162038493489787,0.3162038493489787
71.42200000000001,0.23988842051789816,0.23988842051789816
71.423,0.12405680334938829,0.12405680334938829
71.424,0.00876674393025767,0.00876674393025767
71.42500000000001,0.07247640563852498,-0.07247640563852498
71.426,0.10287138985452415,-0.10287138985452415
71.427,0.08612504895634432,-0.08612504895634432
71.42800000000001,0.04290221139406114,-0.04290221139406114
71.429,0.0015139063917781748,-0.0015139063917781748
71.43,0.013588565344836434,0.013588565344836434
71.43100000000001,0.008728520289531194,-0.008728520289531194
71.432,0.06227630808098228,-0.06227630808098228
71.433,0.12636555837927932,-0.12636555837927932
71.43400000000001,0.17433803022487027,-0.17433803022487027
71.435,0.18461749971937425,-0.18461749971937425
71.436,0.15016575646780916,-0.15016575646780916
71.43700000000001,0.08276852708153704,-0.08276852708153704
71.438,0.010385673316076205,-0.010385673316076205
71.43900000000001,0.031755859346258575,0.031755859346258575
71.44000000000001,0.013420039152143293,0.013420039152143293
71.441,0.07917599033922651,-0.07917599033922651
71.44200000000001,0.2366682990220328,-0.2366682990220328
71.44300000000001,0.42706669124110674,-0.42706669124110674
71.444,0.6035750939815996,-0.6035750939815996
71.44500000000001,0.7174040803465345,-0.7174040803465345
71.44600000000001,0.7316410565519174,-0.7316410565519174
71.447,0.6319146508959363,-0.6319146508959363
71.44800000000001,0.4306457078796706,-0.4306457078796706
71.44900000000001,0.16374114040015175,-0.16374114040015175
71.45,0.11904420276761463,0.11904420276761463
71.45100000000001,0.36696234132554273,0.36696234132554273
71.45200000000001,0.5404154515005037,0.5404154515005037
71.453,0.6189414772427437,0.6189414772427437
71.45400000000001,0.6031494195843703,0.6031494195843703
71.45500000000001,0.5107643612401027,0.5107643612401027
71.456,0.3687813224885601,0.3687813224885601
71.45700000000001,0.20474835150268422,0.20474835150268422
71.45800000000001,0.04011053677673604,0.04011053677673604
71.459,0.11254484379897134,-0.11254484379897134
71.46000000000001,0.24814366070349647,-0.24814366070349647
71.46100000000001,0.36505042155245615,-0.36505042155245615
71.462,0.46055995407595984,-0.46055995407595984
71.46300000000001,0.528225484403523,-0.528225484403523
71.46400000000001,0.5583656371822465,-0.5583656371822465
71.465,0.5416465713337122,-0.5416465713337122
71.46600000000001,0.47423940747136684,-0.47423940747136684
71.46700000000001,0.36225048135478954,-0.36225048135478954
71.468,0.22323104033844765,-0.22323104033844765
71.46900000000001,0.08357119640153698,-0.08357119640153698
71.47000000000001,0.027885268437857214,0.027885268437857214
71.471,0.08816370925205708,0.08816370925205708
71.47200000000001,0.08766284122402701,0.08766284122402701
71.47300000000001,0.03412253596965398,0.03412253596965398
71.474,0.048642493659209696,-0.048642493659209696
71.47500000000001,0.12725970078119941,-0.12725970078119941
71.47600000000001,0.1688039228408732,-0.1688039228408732
71.477,0.15126319558148404,-0.15126319558148404
71.47800000000001,0.07113540357382542,-0.07113540357382542
71.479,0.05438365297411196,0.05438365297411196
71.48,0.19151512963731165,0.19151512963731165
71.48100000000001,0.2992368499494338,0.2992368499494338
71.482,0.3411107491095269,0.3411107491095269
71.483,0.29605554067867756,0.29605554067867756
71.48400000000001,0.1648304997577703,0.1648304997577703
71.485,0.02968559866778875,-0.02968559866778875
71.486,0.24843868864928143,-0.24843868864928143
71.48700000000001,0.44651838633819996,-0.44651838633819996
71.488,0.5847552916847095,-0.5847552916847095
71.489,0.6392443325131931,-0.6392443325131931
71.49000000000001,0.6062218263078489,-0.6062218263078489
71.491,0.5012496514459557,-0.5012496514459557
71.492,0.35341423889737444,-0.35341423889737444
71.49300000000001,0.19666473139890983,-0.19666473139890983
71.494,0.06106576551290355,-0.06106576551290355
71.495,0.03352937839969883,0.03352937839969883
71.49600000000001,0.07991511089725489,0.07991511089725489
71.497,0.08201322905167352,0.08201322905167352
71.498,0.05060830283586215,0.05060830283586215
71.49900000000001,0.00171489245481804,-0.00171489245481804
71.5,0.06450168872628881,-0.06450168872628881
71.501,0.13099563122794322,-0.13099563122794322
71.50200000000001,0.19719824621280035,-0.19719824621280035
71.503,0.25932313389156314,-0.25932313389156314
71.504,0.3111763901038893,-0.3111763901038893
71.50500000000001,0.3429888404443664,-0.3429888404443664
71.506,0.34260473775398914,-0.34260473775398914
71.507,0.29894007573418624,-0.29894007573418624
71.50800000000001,0.20663432401954762,-0.20663432401954762
71.509,0.07019918846904116,-0.07019918846904116
71.51,0.09405065946147628,0.09405065946147628
71.51100000000001,0.25939752794643733,0.25939752794643733
71.512,0.39353639713154065,0.39353639713154065
71.513,0.4657788321187126,0.4657788321187126
71.51400000000001,0.4547864324989701,0.4547864324989701
71.515,0.3546956507710135,0.3546956507710135
71.516,0.17785634548601426,0.17785634548601426
71.51700000000001,0.046708326848830195,-0.046708326848830195
71.518,0.2788761775215053,-0.2788761775215053
71.519,0.47573786926497197,-0.47573786926497197
71.52000000000001,0.6006745934046965,-0.6006745934046965
71.521,0.6310931185539146,-0.6310931185539146
71.522,0.5631073865330911,-0.5631073865330911
71.52300000000001,0.412236244676511,-0.412236244676511
71.524,0.2101147879591717,-0.2101147879591717
71.525,0.0019470745470184792,0.0019470745470184792
71.52600000000001,0.18115573553670639,0.18115573553670639
71.527,0.291544311367685,0.291544311367685
71.528,0.3108672296739323,0.3108672296739323
71.52900000000001,0.23488070426288687,0.23488070426288687
71.53,0.07829140517986999,0.07829140517986999
71.531,0.12780120162866404,-0.12780120162866404
71.53200000000001,0.34159149387509025,-0.34159149387509025
71.533,0.5184846309756274,-0.5184846309756274
71.534,0.6199026822015306,-0.6199026822015306
71.53500000000001,0.6213495469716142,-0.6213495469716142
71.536,0.5180631879969222,-0.5180631879969222
71.537,0.32687576997662937,-0.32687576997662937
71.53800000000001,0.08355536034306577,-0.08355536034306577
71.539,0.1641545938790825,0.1641545938790825
71.54,0.3665347827009857,0.3665347827009857
71.54100000000001,0.482783248702773,0.482783248702773
71.542,0.49022199577459435,0.49022199577459435
71.543,0.38944861575819334,0.38944861575819334
71.54400000000001,0.20395559834346466,0.20395559834346466
71.545,0.025866896424731167,-0.025866896424731167
71.546,0.25289439944008696,-0.25289439944008696
71.54700000000001,0.43492124808119736,-0.43492124808119736
71.548,0.5446115321232421,-0.5446115321232421
71.549,0.57496567988564,-0.57496567988564
71.55000000000001,0.5387930217354915,-0.5387930217354915
71.551,0.46247074147979617,-0.46247074147979617
71.552,0.3760391083598673,-0.3760391083598673
71.55300000000001,0.30286366698303435,-0.30286366698303435
71.554,0.25227529152994355,-0.25227529152994355
71.555,0.2176706820447698,-0.2176706820447698
71.55600000000001,0.1807705938672397,-0.1807705938672397
71.557,0.12064053811780517,-0.12064053811780517
71.558,0.024361063037257602,-0.024361063037257602
71.55900000000001,0.10451334012860136,0.10451334012860136
71.56,0.24304243581691698,0.24304243581691698
71.561,0.3531770782537542,0.3531770782537542
71.56200000000001,0.39250237804522814,0.39250237804522814
71.563,0.3284403466642858,0.3284403466642858
71.56400000000001,0.15146286886829374,0.15146286886829374
71.56500000000001,0.11720832423116523,-0.11720832423116523
71.566,0.426539311090923,-0.426539311090923
71.56700000000001,0.7058818251583067,-0.7058818251583067
71.56800000000001,0.8821920181093355,-0.8821920181093355
71.569,0.8997011076296764,-0.8997011076296764
71.57000000000001,0.736429612974874,-0.736429612974874
71.57100000000001,0.4125660405458146,-0.4125660405458146
71.572,0.012105470865975132,0.012105470865975132
71.57300000000001,0.4514621769314209,0.4514621769314209
71.57400000000001,0.8136326931314455,0.8136326931314455
71.575,1.0,1.0
71.57600000000001,1.0,1.0
71.57700000000001,0.8680951014487097,0.8680951014487097
71.578,0.5513381166198035,0.5513381166198035
71.57900000000001,0.16355856265779178,0.16355856265779178
71.58000000000001,0.21282927515550465,-0.21282927515550465
71.581,0.5070396655575611,-0.5070396655575611
71.58200000000001,0.6760183594991565,-0.6760183594991565
71.58300000000001,0.7119606667968625,-0.7119606667968625
71.584,0.6398313339739397,-0.6398313339739397
71.58500000000001,0.5063857560214859,-0.5063857560214859
71.58600000000001,0.3644966429730828,-0.3644966429730828
71.587,0.25763800214753985,-0.25763800214753985
71.58800000000001,0.20893362830855655,-0.20893362830855655
71.58900000000001,0.21746909658911673,-0.21746909658911673
71.59,0.2621923466684768,-0.2621923466684768
71.59100000000001,0.3114497064607168,-0.3114497064607168
71.59200000000001,0.33470172415874877,-0.33470172415874877
71.593,0.312630536189922,-0.312630536189922
71.59400000000001,0.24269360210751278,-0.24269360210751278
71.59500000000001,0.13884170069240198,-0.13884170069240198
71.596,0.026022892968011746,-0.026022892968011746
71.59700000000001,0.06836563517006522,0.06836563517006522
71.59800000000001,0.12317817786387963,0.12317817786387963
71.599,0.12968928575730687,0.12968928575730687
71.60000000000001,0.0935568048900659,0.0935568048900659
71.60100000000001,0.03232265448236493,0.03232265448236493
71.602,0.030453868324374578,-0.030453868324374578
71.60300000000001,0.07245124967221117,-0.07245124967221117
71.604,0.07904464444218717,-0.07904464444218717
71.605,0.04723455790724762,-0.04723455790724762
71.60600000000001,0.013800114960662802,0.013800114960662802
71.607,0.08536449163890603,0.08536449163890603
71.608,0.1441493039456696,0.1441493039456696
71.60900000000001,0.1679675869712609,0.1679675869712609
71.61,0.14092871812916252,0.14092871812916252
71.611,0.05700006055214191,0.05700006055214191
71.61200000000001,0.07857692257652737,-0.07857692257652737
71.613,0.25004221607892885,-0.25004221607892885
71.614,0.43369496733121826,-0.43369496733121826
71.61500000000001,0.6017376002018155,-0.6017376002018155
71.616,0.7267598044570927,-0.7267598044570927
71.617,0.7862346279900257,-0.7862346279900257
71.61800000000001,0.7664148078722162,-0.7664148078722162
71.619,0.6650419404966814,-0.6650419404966814
71.62,0.4923506488460371,-0.4923506488460371
71.62100000000001,0.27001982553847914,-0.27001982553847914
71.622,0.028026869670724208,-0.028026869670724208
71.623,0.20022379626393905,0.20022379626393905
71.62400000000001,0.3836883107343825,0.3836883107343825
71.625,0.49924957899325695,0.49924957899325695
71.626,0.5358389090545657,0.5358389090545657
71.62700000000001,0.4961220205915622,0.4961220205915622
71.628,0.3952884571737225,0.3952884571737225
71.629,0.2571887298694018,0.2571887298694018
71.63000000000001,0.10874936251300982,0.10874936251300982
71.631,0.025943889412328947,-0.025943889412328947
71.632,0.13041883268211263,-0.13041883268211263
71.63300000000001,0.19829714442691293,-0.19829714442691293
71.634,0.2329843643898969,-0.2329843643898969
71.635,0.24485416976822705,-0.24485416976822705
71.63600000000001,0.24689256668441617,-0.24689256668441617
71.637,0.2501472801994522,-0.2501472801994522
71.638,0.26030233591685825,-0.26030233591685825
71.63900000000001,0.27629102277566264,-0.27629102277566264
71.64,0.2912107561466839,-0.2912107561466839
71.641,0.2951160756418644,-0.2951160756418644
71.64200000000001,0.2787453605886351,-0.2787453605886351
71.643,0.23702299128763826,-0.23702299128763826
71.644,0.17130972687491408,-0.17130972687491408
71.64500000000001,0.08978370158544402,-0.08978370158544402
71.646,0.005882693470803169,-0.005882693470803169
71.647,0.06473822425287779,0.06473822425287779
71.64800000000001,0.10791695738124618,0.10791695738124618
71.649,0.11441831587350149,0.11441831587350149
71.65,0.0822572190009101,0.0822572190009101
71.65100000000001,0.017368803460804605,0.017368803460804605
71.652,0.06752870057627847,-0.06752870057627847
71.653,0.15563606815901831,-0.15563606815901831
71.65400000000001,0.22976503140215376,-0.22976503140215376
71.655,0.2762253052173207,-0.2762253052173207
71.656,0.28803694438698757,-0.28803694438698757
71.65700000000001,0.26668646992755973,-0.26668646992755973
71.658,0.2219009955596094,-0.2219009955596094
71.659,0.1693191621552872,-0.1693191621552872
71.66000000000001,0.12643598955002056,-0.12643598955002056
71.661,0.10769285644741555,-0.10769285644741555
71.662,0.11994270896249049,-0.11994270896249049
71.66300000000001,0.1596107578742325,-0.1596107578742325
71.664,0.21260233437189702,-0.21260233437189702
71.665,0.25738206773615535,-0.25738206773615535
71.66600000000001,0.2707784870567106,-0.2707784870567106
71.667,0.23517845177472818,-0.23517845177472818
71.668,0.1451436336503067,-0.1451436336503067
71.66900000000001,0.011353653347035753,-0.011353653347035753
71.67,0.1397167070319092,0.1397167070319092
71.671,0.27090590452275887,0.27090590452275887
71.67200000000001,0.34339349416209575,0.34339349416209575
71.673,0.32747962456904833,0.32747962456904833
71.674,0.2121543215685675,0.2121543215685675
71.67500000000001,0.010520008691633942,0.010520008691633942
71.676,0.24094180889675765,-0.24094180889675765
71.677,0.4896377887659714,-0.4896377887659714
71.67800000000001,0.6791509188695013,-0.6791509188695013
71.679,0.7634509656937098,-0.7634509656937098
71.68,0.7191620267810223,-0.7191620267810223
71.68100000000001,0.5523655433970884,-0.5523655433970884
71.682,0.2978296658242494,-0.2978296658242494
71.683,0.010657478194484482,-0.010657478194484482
71.68400000000001,0.24747723641173058,0.24747723641173058
71.685,0.42374977463784447,0.42374977463784447
71.686,0.4870024658303038,0.4870024658303038
71.68700000000001,0.4344624966354729,0.4344624966354729
71.688,0.2906600408086655,0.2906600408086655
71.68900000000001,0.0991369337359358,0.0991369337359358
71.69000000000001,0.09038873539692949,-0.09038873539692949
71.691,0.2355135462625878,-0.2355135462625878
71.69200000000001,0.3113987227872427,-0.3113987227872427
71.69300000000001,0.31506300872172166,-0.31506300872172166
71.694,0.26296514403477356,-0.26296514403477356
71.69500000000001,0.18322061562642544,-0.18322061562642544
71.69600000000001,0.10535705586713207,-0.10535705586713207
71.697,0.05105664884340777,-0.05105664884340777
71.69800000000001,0.028733831877813865,-0.028733831877813865
71.69900000000001,0.03330643582012982,-0.03330643582012982
71.7,0.05067811746780382,-0.05067811746780382
71.70100000000001,0.06489426717950353,-0.06489426717950353
71.70200000000001,0.06517353133451897,-0.06517353133451897
71.703,0.050269663788444774,-0.050269663788444774
71.70400000000001,0.02874257521070067,-0.02874257521070067
71.70500000000001,0.015276205946555987,-0.015276205946555987
71.706,0.024604764463414308,-0.024604764463414308
71.70700000000001,0.06540094931889462,-0.06540094931889462
71.70800000000001,0.1363883444690277,-0.1363883444690277
71.709,0.22603922166247303,-0.22603922166247303
71.71000000000001,0.31586955778674564,-0.31586955778674564
71.71100000000001,0.3860528247121575,-0.3860528247121575
71.712,0.42130815455679793,-0.42130815455679793
71.71300000000001,0.41503152695322965,-0.41503152695322965
71.71400000000001,0.37038899431487127,-0.37038899431487127
71.715,0.29826615856725125,-0.29826615856725125
71.71600000000001,0.21310991966037096,-0.21310991966037096
71.71700000000001,0.12837914024672703,-0.12837914024672703
71.718,0.05330345496175348,-0.05330345496175348
71.71900000000001,0.008026964271625525,0.008026964271625525
71.72000000000001,0.05525983059700268,0.05525983059700268
71.721,0.08906455598150309,0.08906455598150309
71.72200000000001,0.10861685469239535,0.10861685469239535
71.72300000000001,0.11065066547746172,0.11065066547746172
71.724,0.09069114122542965,0.09069114122542965
71.72500000000001,0.046035556518911225,0.046035556518911225
71.72600000000001,0.020856068299806463,-0.020856068299806463
71.727,0.10027149783442746,-0.10027149783442746
71.72800000000001,0.17582107203341646,-0.17582107203341646
71.729,0.22806758792116366,-0.22806758792116366
71.73,0.24035811165937448,-0.24035811165937448
71.73100000000001,0.20497055551239685,-0.20497055551239685
71.732,0.12729215084560008,-0.12729215084560008
71.733,0.02619596427604398,-0.02619596427604398
71.73400000000001,0.07003020147501404,0.07003020147501404
71.735,0.1313133204688992,0.1313133204688992
71.736,0.13475754296294773,0.13475754296294773
71.73700000000001,0.07207738555787313,0.07207738555787313
71.738,0.047027515491626315,-0.047027515491626315
71.739,0.19685337358051325,-0.19685337358051325
71.74000000000001,0.3425926131302536,-0.3425926131302536
71.741,0.45007332042111414,-0.45007332042111414
71.742,0.4952808180650977,-0.4952808180650977
71.74300000000001,0.4706510257652272,-0.4706510257652272
71.744,0.386196750159845,-0.386196750159845
71.745,0.26526383183744995,-0.26526383183744995
71.74600000000001,0.13651404586097238,-0.13651404586097238
71.747,0.024966783485220967,-0.024966783485220967
71.748,0.05483195881333458,0.05483195881333458
71.74900000000001,0.10128855089824573,0.10128855089824573
71.75,0.12328524435511246,0.12328524435511246
71.751,0.13396184731560634,0.13396184731560634
71.75200000000001,0.14332768285679398,0.14332768285679398
71.753,0.15268368510622787,0.15268368510622787
71.754,0.15313933189707352,0.15313933189707352
71.75500000000001,0.12895647098050977,0.12895647098050977
71.756,0.06459985844873972,0.06459985844873972
71.757,0.047105133629753215,-0.047105133629753215
71.75800000000001,0.19886718447974372,-0.19886718447974372
71.759,0.36745304720570815,-0.36745304720570815
71.76,0.5178759987574084,-0.5178759987574084
71.76100000000001,0.6123108844508389,-0.6123108844508389
71.762,0.6210830016577141,-0.6210830016577141
71.763,0.5322283042751947,-0.5322283042751947
71.76400000000001,0.3564487995913439,-0.3564487995913439
71.765,0.12569401902035382,-0.12569401902035382
71.766,0.11438238386641975,0.11438238386641975
71.76700000000001,0.31589228252866985,0.31589228252866985
71.768,0.4406830879721517,0.4406830879721517
71.769,0.46927949515277856,0.46927949515277856
71.77000000000001,0.40430535081501184,0.40430535081501184
71.771,0.2677000025827405,0.2677000025827405
71.772,0.09299673193983815,0.09299673193983815
71.77300000000001,0.08462159111147582,-0.08462159111147582
71.774,0.23729145580214617,-0.23729145580214617
71.775,0.34985814111030866,-0.34985814111030866
71.77600000000001,0.42049224259165163,-0.42049224259165163
71.777,0.45703847638451167,-0.45703847638451167
71.778,0.47098650102112116,-0.47098650102112116
71.77900000000001,0.471563572549608,-0.471563572549608
71.78,0.4621218218955312,-0.4621218218955312
71.781,0.43990863974719696,-0.43990863974719696
71.78200000000001,0.3989095937461743,-0.3989095937461743
71.783,0.3342733248729457,-0.3342733248729457
71.784,0.24629400151013525,-0.24629400151013525
71.78500000000001,0.14220724127299122,-0.14220724127299122
71.786,0.035007010741710864,-0.035007010741710864
71.787,0.06027603851260199,0.06027603851260199
71.78800000000001,0.13136362223291131,0.13136362223291131
71.789,0.17268011820356644,0.17268011820356644
71.79,0.18687671205245593,0.18687671205245593
71.79100000000001,0.18328265659302234,0.18328265659302234
71.792,0.17383287775347123,0.17383287775347123
71.793,0.16801279208885322,0.16801279208885322
71.79400000000001,0.16876980003341613,0.16876980003341613
71.795,0.17100990442772734,0.17100990442772734
71.796,0.16334920530630836,0.16334920530630836
71.79700000000001,0.13257614113000038,0.13257614113000038
71.798,0.06925144922841175,0.06925144922841175
71.799,0.0275906718912311,-0.0275906718912311
71.80000000000001,0.14840364572204467,-0.14840364572204467
71.801,0.2746044137897903,-0.2746044137897903
71.802,0.38319738105611956,-0.38319738105611956
71.80300000000001,0.4530887932015336,-0.4530887932015336
71.804,0.4710559700413033,-0.4710559700413033
71.805,0.43546495378643824,-0.43546495378643824
71.80600000000001,0.3566048925626296,-0.3566048925626296
71.807,0.25363976645786135,-0.25363976645786135
71.808,0.14926353179060803,-0.14926353179060803
71.80900000000001,0.06381187309057834,-0.06381187309057834
71.81,0.01062569284773851,-0.01062569284773851
71.811,0.006096938661773299,0.006096938661773299
71.81200000000001,0.00935367313494373,-0.00935367313494373
71.813,0.047033350600342194,-0.047033350600342194
71.81400000000001,0.09511614725313033,-0.09511614725313033
71.81500000000001,0.1432481035350025,-0.1432481035350025
71.816,0.1845077244245248,-0.1845077244245248
71.81700000000001,0.2156778567562403,-0.2156778567562403
71.81800000000001,0.23621925671921518,-0.23621925671921518
71.819,0.24675862059606146,-0.24675862059606146
71.82000000000001,0.24792242280684307,-0.24792242280684307
71.82100000000001,0.23999912110625632,-0.23999912110625632
71.822,0.2233854544620807,-0.2233854544620807
71.82300000000001,0.19932345174237354,-0.19932345174237354
71.82400000000001,0.17027399375867702,-0.17027399375867702
71.825,0.13947485210892363,-0.13947485210892363
71.82600000000001,0.10970179817238523,-0.10970179817238523
71.82700000000001,0.08176689022545658,-0.08176689022545658
71.828,0.05359105775619899,-0.05359105775619899
71.82900000000001,0.02060123109042422,-0.02060123109042422
71.83000000000001,0.022287600939050467,0.022287600939050467
71.831,0.07756807779408836,0.07756807779408836
71.83200000000001,0.14203796221060183,0.14203796221060183
71.83300000000001,0.20511795269266875,0.20511795269266875
71.834,0.2497479108347671,0.2497479108347671
71.83500000000001,0.2562237618490568,0.2562237618490568
71.83600000000001,0.20824639631638853,0.20824639631638853
71.837,0.0994557625853345,0.0994557625853345
71.83800000000001,0.061783942138095016,-0.061783942138095016
71.83900000000001,0.2513426492495163,-0.2513426492495163
71.84,0.43303127940079733,-0.43303127940079733
71.84100000000001,0.5665937702550121,-0.5665937702550121
71.84200000000001,0.6180440550494206,-0.6180440550494206
71.843,0.5694346377036883,-0.5694346377036883
71.84400000000001,0.42504874986359564,-0.42504874986359564
71.84500000000001,0.21188788126604996,-0.21188788126604996
71.846,0.02605103200180503,0.02605103200180503
71.84700000000001,0.23834455894473594,0.23834455894473594
71.84800000000001,0.38067607966752326,0.38067607966752326
71.849,0.42578996826241955,0.42578996826241955
71.85000000000001,0.3697514823439878,0.3697514823439878
71.85100000000001,0.23179539547586003,0.23179539547586003
71.852,0.04797493262014396,0.04797493262014396
71.85300000000001,0.1393338080253257,-0.1393338080253257
71.854,0.29284450372071436,-0.29284450372071436
71.855,0.3893246977747714,-0.3893246977747714
71.85600000000001,0.4236617969173865,-0.4236617969173865
71.857,0.4072273330478403,-0.4072273330478403
71.858,0.36155654212869615,-0.36155654212869615
71.85900000000001,0.30976034304953437,-0.30976034304953437
71.86,0.26862993587374406,-0.26862993587374406
71.861,0.24394434030148981,-0.24394434030148981
71.86200000000001,0.2302473197316397,-0.2302473197316397
71.863,0.2147766987065336,-0.2147766987065336
71.864,0.18385192781307547,-0.18385192781307547
71.86500000000001,0.12930337788025092,-0.12930337788025092
71.866,0.052662837269314644,-0.052662837269314644
71.867,0.03426915334664349,0.03426915334664349
71.86800000000001,0.11255732192614376,0.11255732192614376
71.869,0.1617967570033425,0.1617967570033425
71.87,0.16636524728966684,0.16636524728966684
71.87100000000001,0.12024632390355872,0.12024632390355872
71.872,0.029003618720325086,0.029003618720325086
71.873,0.09150440367341672,-0.09150440367341672
71.87400000000001,0.21903881282728344,-0.21903881282728344
71.875,0.3301732347379821,-0.3301732347379821
71.876,0.4052230854582861,-0.4052230854582861
71.87700000000001,0.43170135695047374,-0.43170135695047374
71.878,0.4057570042140708,-0.4057570042140708
71.879,0.3317599367365772,-0.3317599367365772
71.88000000000001,0.2206780692720104,-0.2206780692720104
71.881,0.08800329168772103,-0.08800329168772103
71.882,0.04824738360074554,0.04824738360074554
71.88300000000001,0.16932836819005193,0.16932836819005193
71.884,0.2575665104511702,0.2575665104511702
71.885,0.2984554280899354,0.2984554280899354
71.88600000000001,0.28310762008437185,0.28310762008437185
71.887,0.2107020112389304,0.2107020112389304
71.888,0.09015537671251384,0.09015537671251384
71.88900000000001,0.05990505317984918,-0.05990505317984918
71.89,0.21353220485938773,-0.21353220485938773
71.891,0.3422253814121605,-0.3422253814121605
71.89200000000001,0.4212341374818339,-0.4212341374818339
71.893,0.43582610335719163,-0.43582610335719163
71.894,0.38563841036264757,-0.38563841036264757
71.89500000000001,0.28554410136813313,-0.28554410136813313
71.896,0.16237083634473615,-0.16237083634473615
71.897,0.04805918942787235,-0.04805918942787235
71.89800000000001,0.028961288585819034,0.028961288585819034
71.899,0.051688498328752885,0.051688498328752885
71.9,0.01932011460608085,0.01932011460608085
71.90100000000001,0.05269849020231632,-0.05269849020231632
71.902,0.13750940361106412,-0.13750940361106412
71.903,0.20517807929405152,-0.20517807929405152
71.90400000000001,0.23199581770332023,-0.23199581770332023
71.905,0.20784959359776511,-0.20784959359776511
71.906,0.13932727019611402,-0.13932727019611402
71.90700000000001,0.047561471806811695,-0.047561471806811695
71.908,0.038507583405624546,0.038507583405624546
71.909,0.0912995947754367,0.0912995947754367
71.91000000000001,0.09326413842376935,0.09326413842376935
71.911,0.04230035885304151,0.04230035885304151
71.912,0.047756300597176726,-0.047756300597176726
71.91300000000001,0.15165417649481394,-0.15165417649481394
71.914,0.24071287295740906,-0.24071287295740906
71.915,0.2916531632606135,-0.2916531632606135
71.91600000000001,0.293436794935549,-0.293436794935549
71.917,0.25000679184957797,-0.25000679184957797
71.918,0.1782134093046529,-0.1782134093046529
71.91900000000001,0.10179841704277681,-0.10179841704277681
71.92,0.04355859627954439,-0.04355859627954439
71.921,0.018313184634329294,-0.018313184634329294
71.92200000000001,0.028915685947372483,-0.028915685947372483
71.923,0.0664374604343354,-0.0664374604343354
71.924,0.11420909137291024,-0.11420909137291024
71.92500000000001,0.15413358074897954,-0.15413358074897954
71.926,0.17300586043870758,-0.17300586043870758
71.927,0.16669194812400512,-0.16669194812400512
71.92800000000001,0.14086438657220646,-0.14086438657220646
71.929,0.10823962750848726,-0.10823962750848726
71.93,0.08347247864360641,-0.08347247864360641
71.93100000000001,0.07761869279208755,-0.07761869279208755
71.932,0.0941381414270005,-0.0941381414270005
71.933,0.12778610690741377,-0.12778610690741377
71.93400000000001,0.16667417347058322,-0.16667417347058322
71.935,0.1966626645743249,-0.1966626645743249
71.936,0.20646368435713436,-0.20646368435713436
71.93700000000001,0.19164475281973603,-0.19164475281973603
71.938,0.1561683343933148,-0.1561683343933148
71.93900000000001,0.11100136008570993,-0.11100136008570993
71.94000000000001,0.07035130012509827,-0.07035130012509827
71.941,0.046873900554419645,-0.046873900554419645
71.94200000000001,0.047492498677003225,-0.047492498677003225
71.94300000000001,0.07119322272506623,-0.07119322272506623
71.944,0.10943831595298781,-0.10943831595298781
71.94500000000001,0.14894229521742308,-0.14894229521742308
71.94600000000001,0.1757984207253065,-0.1757984207253065
71.947,0.179574080902427,-0.179574080902427
71.94800000000001,0.1561111334721348,-0.1561111334721348
71.94900000000001,0.10829405747702392,-0.10829405747702392
71.95,0.04477168547159416,-0.04477168547159416
71.95100000000001,0.022727745984527203,0.022727745984527203
71.95200000000001,0.08248259196931795,0.08248259196931795
71.953,0.1252796957634119,0.1252796957634119
71.95400000000001,0.14570511721715773,0.14570511721715773
71.95500000000001,0.1421253817261494,0.1421253817261494
71.956,0.11574586803724918,0.11574586803724918
71.95700000000001,0.069395518051246,0.069395518051246
71.95800000000001,0.006649546390022687,0.006649546390022687
71.959,0.06838979298549586,-0.06838979298549586
71.96000000000001,0.15073612890964905,-0.15073612890964905
71.96100000000001,0.23399955158155783,-0.23399955158155783
71.962,0.31023911329306497,-0.31023911329306497
71.96300000000001,0.3705807027378847,-0.3705807027378847
71.96400000000001,0.4066530281721529,-0.4066530281721529
71.965,0.4124985978457014,-0.4124985978457014
71.96600000000001,0.3863345021465965,-0.3863345021465965
71.96700000000001,0.33149423286304913,-0.33149423286304913
71.968,0.2561069816998124,-0.2561069816998124
71.96900000000001,0.17148762431239406,-0.17148762431239406
71.97000000000001,0.08966343544253164,-0.08966343544253164
71.971,0.020778734146584932,-0.020778734146584932
71.97200000000001,0.028828355297688013,0.028828355297688013
71.97300000000001,0.05731813050077239,0.05731813050077239
71.974,0.0666912820355543,0.0666912820355543
71.97500000000001,0.06114196162210206,0.06114196162210206
71.97600000000001,0.0451233014845438,0.0451233014845438
71.977,0.02189564988554582,0.02189564988554582
71.97800000000001,0.0069030650576306085,-0.0069030650576306085
71.979,0.04056999983701293,-0.04056999983701293
71.98,0.07792615182427398,-0.07792615182427398
71.98100000000001,0.11591375349590094,-0.11591375349590094
71.982,0.14898521743943238,-0.14898521743943238
71.983,0.16979324262854567,-0.16979324262854567
71.98400000000001,0.1711831245991382,-0.1711831245991382
71.985,0.14892732667049546,-0.14892732667049546
71.986,0.10424186292224558,-0.10424186292224558
71.98700000000001,0.045049402580287556,-0.045049402580287556
71.988,0.014739714274704774,0.014739714274704774
71.989,0.05805044219967148,0.05805044219967148
71.99000000000001,0.06897723893754959,0.06897723893754959
71.991,0.03745654157001743,0.03745654157001743
71.992,0.03713273645312798,-0.03713273645312798
71.99300000000001,0.14464359071447153,-0.14464359071447153
71.994,0.2657047958893153,-0.2657047958893153
71.995,0.37589814501460184,-0.37589814501460184
71.99600000000001,0.4515369407091072,-0.4515369407091072
71.997,0.4755045763940209,-0.4755045763940209
71.998,0.4415546398796004,-0.4415546398796004
71.99900000000001,0.3558911981242503,-0.3558911981242503
72.0,0.23561349681243393,-0.23561349681243393
72.001,0.1044888748550108,-0.1044888748550108
72.00200000000001,0.01275527914758956,0.01275527914758956
72.003,0.09606880324090605,0.09606880324090605
72.004,0.13419320255219325,0.13419320255219325
72.00500000000001,0.1263106014392672,0.1263106014392672
72.006,0.0810292679737985,0.0810292679737985
72.007,0.013250277594697879,0.013250277594697879
72.00800000000001,0.0600218997429558,-0.0600218997429558
72.009,0.12370500985980037,-0.12370500985980037
72.01,0.16749803159680687,-0.16749803159680687
72.01100000000001,0.18705551384181585,-0.18705551384181585
72.012,0.18352870156447731,-0.18352870156447731
72.013,0.16198662438018208,-0.16198662438018208
72.01400000000001,0.12944705281620483,-0.12944705281620483
72.015,0.09317992607557457,-0.09317992607557457
72.016,0.0596594171149335,-0.0596594171149335
72.01700000000001,0.03417304095890494,-0.03417304095890494
72.018,0.020802420744232997,-0.020802420744232997
72.019,0.022384121387129752,-0.022384121387129752
72.02000000000001,0.04017086568430828,-0.04017086568430828
72.021,0.07318180870983126,-0.07318180870983126
72.022,0.11752756464056213,-0.11752756464056213
72.02300000000001,0.16617863028916569,-0.16617863028916569
72.024,0.20961448205813837,-0.20961448205813837
72.025,0.2375294302460017,-0.2375294302460017
72.02600000000001,0.2413606067633598,-0.2413606067633598
72.027,0.21699422632884402,-0.21699422632884402
72.028,0.16676676451204409,-0.16676676451204409
72.02900000000001,0.09993022939578455,-0.09993022939578455
72.03,0.031121064085641748,-0.031121064085641748
72.031,0.023029084405081335,0.023029084405081335
72.03200000000001,0.048358693839421596,0.048358693839421596
72.033,0.03746711619256504,0.03746711619256504
72.034,0.007530340290622717,-0.007530340290622717
72.03500000000001,0.0748174356027832,-0.0748174356027832
72.036,0.1455945904800332,-0.1455945904800332
72.037,0.19914770089384193,-0.19914770089384193
72.03800000000001,0.21892258777333795,-0.21892258777333795
72.039,0.19782032566749563,-0.19782032566749563
72.04,0.14101646175989402,-0.14101646175989402
72.04100000000001,0.0652370708265202,-0.0652370708265202
72.042,0.00556082184233464,0.00556082184233464
72.043,0.04704913143531897,0.04704913143531897
72.04400000000001,0.0420136808339544,0.0420136808339544
72.045,0.013777622099310105,-0.013777622099310105
72.046,0.10922243558317124,-0.10922243558317124
72.04700000000001,0.21999884019729166,-0.21999884019729166
72.048,0.31480263162872746,-0.31480263162872746
72.049,0.36409596498803287,-0.36409596498803287
72.05000000000001,0.348908684306134,-0.348908684306134
72.051,0.26708440141374745,-0.26708440141374745
72.052,0.13499136127729294,-0.13499136127729294
72.05300000000001,0.016031406996267927,0.016031406996267927
72.054,0.14769979227372199,0.14769979227372199
72.055,0.22514179510392918,0.22514179510392918
72.05600000000001,0.2266833158180075,0.2266833158180075
72.057,0.15022944867920107,0.15022944867920107
72.058,0.014314809822522756,0.014314809822522756
72.05900000000001,0.14660687467911937,-0.14660687467911937
72.06,0.2914066582250604,-0.2914066582250604
72.061,0.3835002766675757,-0.3835002766675757
72.06200000000001,0.40088202703170517,-0.40088202703170517
72.063,0.3421203093141544,-0.3421203093141544
72.06400000000001,0.22660515133452963,-0.22660515133452963
72.06500000000001,0.0889833346306419,-0.0889833346306419
72.066,0.03061738737321895,0.03061738737321895
72.06700000000001,0.09777699508695625,0.09777699508695625
72.06800000000001,0.09321023351411739,0.09321023351411739
72.069,0.017806096689962025,0.017806096689962025
72.07000000000001,0.10804287183813666,-0.10804287183813666
72.07100000000001,0.2504806785041963,-0.2504806785041963
72.072,0.3717300607048811,-0.3717300607048811
72.07300000000001,0.44032822047510733,-0.44032822047510733
72.07400000000001,0.4391561806697811,-0.4391561806697811
72.075,0.3691232176239452,-0.3691232176239452
72.07600000000001,0.24772723487897141,-0.24772723487897141
72.07700000000001,0.10324007970782278,-0.10324007970782278
72.078,0.03350427779181109,0.03350427779181109
72.07900000000001,0.13717212685794422,0.13717212685794422
72.08000000000001,0.19353265043226475,0.19353265043226475
72.081,0.20122050591393092,0.20122050591393092
72.08200000000001,0.1695767538509445,0.1695767538509445
72.08300000000001,0.11372404089776489,0.11372404089776489
72.084,0.04881370651839578,0.04881370651839578
72.08500000000001,0.014524488097827248,-0.014524488097827248
72.08600000000001,0.07209474627810752,-0.07209474627810752
72.087,0.1250301096637475,-0.1250301096637475
72.08800000000001,0.17642948944178072,-0.17642948944178072
72.08900000000001,0.22732222436769867,-0.22732222436769867
72.09,0.2737729644864343,-0.2737729644864343
72.09100000000001,0.3064920195102384,-0.3064920195102384
72.09200000000001,0.31335046780616727,-0.31335046780616727
72.093,0.2840537444276968,-0.2840537444276968
72.09400000000001,0.21530875107069658,-0.21530875107069658
72.09500000000001,0.11446510977934177,-0.11446510977934177
72.096,2.7235568426320356e-05,2.7235568426320356e-05
72.09700000000001,0.10201449799157247,0.10201449799157247
72.09800000000001,0.16425582524197946,0.16425582524197946
72.099,0.16643650232549567,0.16643650232549567
72.10000000000001,0.10209074915178573,0.10209074915178573
72.10100000000001,0.017931716085453853,-0.017931716085453853
72.102,0.1669069292661759,-0.1669069292661759
72.10300000000001,0.30858140443726145,-0.30858140443726145
72.104,0.40685964556862364,-0.40685964556862364
72.105,0.4361128363302216,-0.4361128363302216
72.10600000000001,0.38901449800511145,-0.38901449800511145
72.107,0.2793845840617919,-0.2793845840617919
72.108,0.1389141635054305,-0.1389141635054305
72.10900000000001,0.008452776270723605,-0.008452776270723605
72.11,0.07377380207478201,0.07377380207478201
72.111,0.08361260320576669,0.08361260320576669
72.11200000000001,0.018656433478280166,0.018656433478280166
72.113,0.10029794381196622,-0.10029794381196622
72.114,0.2346669043348174,-0.2346669043348174
72.11500000000001,0.3389964781577278,-0.3389964781577278
72.116,0.3743176967156865,-0.3743176967156865
72.117,0.32006607162109424,-0.32006607162109424
72.11800000000001,0.18101419731067037,-0.18101419731067037
72.119,0.012943906677037154,0.012943906677037154
72.12,0.21425849625861582,0.21425849625861582
72.12100000000001,0.37041752261034877,0.37041752261034877
72.122,0.43829113188470137,0.43829113188470137
72.123,0.39603683113807975,0.39603683113807975
72.12400000000001,0.24916382518877267,0.24916382518877267
72.125,0.029047722956800026,0.029047722956800026
72.126,0.21561926137081877,-0.21561926137081877
72.12700000000001,0.4319175661767991,-0.4319175661767991
72.128,0.5765271263155464,-0.5765271263155464
72.129,0.6263533024355316,-0.6263533024355316
72.13000000000001,0.583046796104536,-0.583046796104536
72.131,0.4703898174592388,-0.4703898174592388
72.132,0.3256614159632152,-0.3256614159632152
72.13300000000001,0.18784358779129628,-0.18784358779129628
72.134,0.08635978158010127,-0.08635978158010127
72.135,0.0337129245761858,-0.0337129245761858
72.13600000000001,0.024037182577913874,-0.024037182577913874
72.137,0.03764149242839665,-0.03764149242839665
72.138,0.04972453869843818,-0.04972453869843818
72.13900000000001,0.040179367571557156,-0.040179367571557156
72.14,0.0011685740550820833,-0.0011685740550820833
72.141,0.060007560023809914,0.060007560023809914
72.14200000000001,0.12359973135896696,0.12359973135896696
72.143,0.16463207089903165,0.16463207089903165
72.144,0.16213135211277985,0.16213135211277985
72.14500000000001,0.10718706560736768,0.10718706560736768
72.146,0.0070752053690748,0.0070752053690748
72.147,0.11600020360420982,-0.11600020360420982
72.14800000000001,0.23120262120688773,-0.23120262120688773
72.149,0.30838183275442055,-0.30838183275442055
72.15,0.3274040502862233,-0.3274040502862233
72.15100000000001,0.2844758923246561,-0.2844758923246561
72.152,0.19342643023838413,-0.19342643023838413
72.153,0.08154951485812578,-0.08154951485812578
72.15400000000001,0.01863993153121979,0.01863993153121979
72.155,0.07909147911210468,0.07909147911210468
72.156,0.0842886786733048,0.0842886786733048
72.15700000000001,0.03522889572271426,0.03522889572271426
72.158,0.05178721939179676,-0.05178721939179676
72.159,0.15096245435736388,-0.15096245435736388
72.16000000000001,0.23535935976559152,-0.23535935976559152
72.161,0.2850223222421361,-0.2850223222421361
72.162,0.2922838791255581,-0.2922838791255581
72.16300000000001,0.2627211324766715,-0.2627211324766715
72.164,0.21174470441902637,-0.21174470441902637
72.165,0.15826387281683818,-0.15826387281683818
72.16600000000001,0.11778474261513738,-0.11778474261513738
72.167,0.09736998373025885,-0.09736998373025885
72.168,0.09412056952915815,-0.09412056952915815
72.16900000000001,0.09752262986253535,-0.09752262986253535
72.17,0.09460949291956422,-0.09460949291956422
72.171,0.07590934689112683,-0.07590934689112683
72.17200000000001,0.039917239770828505,-0.039917239770828505
72.173,0.005587655664899938,0.005587655664899938
72.174,0.04588375365789932,0.04588375365789932
72.17500000000001,0.06447119861618611,0.06447119861618611
72.176,0.04919433185433442,0.04919433185433442
72.177,0.002893748131983065,-0.002893748131983065
72.17800000000001,0.08369863833748936,-0.08369863833748936
72.179,0.1759857699046956,-0.1759857699046956
72.18,0.2583999852062864,-0.2583999852062864
72.18100000000001,0.31189589084046854,-0.31189589084046854
72.182,0.3253886463341019,-0.3253886463341019
72.183,0.2987275091011037,-0.2987275091011037
72.18400000000001,0.24205151272533043,-0.24205151272533043
72.185,0.17186228211234456,-0.17186228211234456
72.186,0.10528725320965915,-0.10528725320965915
72.18700000000001,0.054604453619589766,-0.054604453619589766
72.188,0.023950500677250575,-0.023950500677250575
72.18900000000001,0.009297938965306951,-0.009297938965306951
72.19000000000001,0.0015725091188329987,-0.0015725091188329987
72.191,0.00837459476372171,0.00837459476372171
72.19200000000001,0.024903866626273752,0.024903866626273752
72.19300000000001,0.04475804229568947,0.04475804229568947
72.194,0.05744477677710291,0.05744477677710291
72.19500000000001,0.048827119660649565,0.048827119660649565
72.19600000000001,0.006720103040751546,0.006720103040751546
72.197,0.07349140639145824,-0.07349140639145824
72.19800000000001,0.18528580456793997,-0.18528580456793997
72.19900000000001,0.31091685683701853,-0.31091685683701853
72.2,0.4250785889782882,-0.4250785889782882
72.20100000000001,0.501331179643951,-0.501331179643951
72.20200000000001,0.5193542866159548,-0.5193542866159548
72.203,0.4707952673638709,-0.4707952673638709
72.20400000000001,0.3619174941904242,-0.3619174941904242
72.20500000000001,0.21226891975116224,-0.21226891975116224
72.206,0.04983139679641102,-0.04983139679641102
72.20700000000001,0.0958402720352185,0.0958402720352185
72.20800000000001,0.2004604781546433,0.2004604781546433
72.209,0.24995784550500155,0.24995784550500155
72.21000000000001,0.24237407998578409,0.24237407998578409
72.21100000000001,0.186591421199791,0.186591421199791
72.212,0.09871655287959324,0.09871655287959324
72.21300000000001,0.0024822704013024444,-0.0024822704013024444
72.21400000000001,0.09965609321038515,-0.09965609321038515
72.215,0.17949766521169774,-0.17949766521169774
72.21600000000001,0.23364116063767337,-0.23364116063767337
72.21700000000001,0.25824652736441434,-0.25824652736441434
72.218,0.2530497127552014,-0.2530497127552014
72.21900000000001,0.22062068647587474,-0.22062068647587474
72.22000000000001,0.16618260245328798,-0.16618260245328798
72.221,0.09781712545677657,-0.09781712545677657
72.22200000000001,0.026476064772580354,-0.026476064772580354
72.22300000000001,0.034857540555129685,0.034857540555129685
72.224,0.07320703121177563,0.07320703121177563
72.22500000000001,0.07860898832316021,0.07860898832316021
72.22600000000001,0.04726101918091219,0.04726101918091219
72.227,0.016359218143878307,-0.016359218143878307
72.22800000000001,0.09946382594145908,-0.09946382594145908
72.229,0.18349211625871942,-0.18349211625871942
72.23,0.24881571527238566,-0.24881571527238566
72.23100000000001,0.2803490965417069,-0.2803490965417069
72.232,0.2722975980015764,-0.2722975980015764
72.233,0.23036021301717668,-0.23036021301717668
72.23400000000001,0.17041056854085534,-0.17041056854085534
72.235,0.11380518325603495,-0.11380518325603495
72.236,0.08064004104747846,-0.08064004104747846
72.23700000000001,0.08307678168138899,-0.08307678168138899
72.238,0.12097685392842927,-0.12097685392842927
72.239,0.1814304563647624,-0.1814304563647624
72.24000000000001,0.24253095428540827,-0.24253095428540827
72.241,0.2803253082716447,-0.2803253082716447
72.242,0.27675116302978786,-0.27675116302978786
72.24300000000001,0.2259513935575983,-0.2259513935575983
72.244,0.13680820334593569,-0.13680820334593569
72.245,0.03073599015180284,-0.03073599015180284
72.24600000000001,0.06467176689094822,0.06467176689094822
72.247,0.1241521404889212,0.1241521404889212
72.248,0.13269411804799658,0.13269411804799658
72.24900000000001,0.09027793784159543,0.09027793784159543
72.25,0.011858304212190252,0.011858304212190252
72.251,0.07742835505890855,-0.07742835505890855
72.25200000000001,0.1502822643641618,-0.1502822643641618
72.253,0.1858749473063137,-0.1858749473063137
72.254,0.17629815667647064,-0.17629815667647064
72.25500000000001,0.1287610683149084,-0.1287610683149084
72.256,0.06288284055617877,-0.06288284055617877
72.257,0.004040029829919911,-0.004040029829919911
72.25800000000001,0.025000025253558045,0.025000025253558045
72.259,0.011415981655356067,0.011415981655356067
72.26,0.043702340821056174,-0.043702340821056174
72.26100000000001,0.12593977438638215,-0.12593977438638215
72.262,0.2123557107033841,-0.2123557107033841
72.263,0.2788057578651164,-0.2788057578651164
72.26400000000001,0.3073435945499259,-0.3073435945499259
72.265,0.2913454416102378,-0.2913454416102378
72.266,0.23685494474026003,-0.23685494474026003
72.26700000000001,0.15995352367466742,-0.15995352367466742
72.268,0.08126169509524905,-0.08126169509524905
72.269,0.019534929865556272,-0.019534929865556272
72.27000000000001,0.013530967386391257,0.013530967386391257
72.271,0.015734915595543075,0.015734915595543075
72.272,0.006458800441380919,-0.006458800441380919
72.27300000000001,0.041381962326952126,-0.041381962326952126
72.274,0.07679205530197486,-0.07679205530197486
72.275,0.10394808047584225,-0.10394808047584225
72.27600000000001,0.11977638013803316,-0.11977638013803316
72.277,0.12658758716835616,-0.12658758716835616
72.278,0.12975182968215915,-0.12975182968215915
72.27900000000001,0.1344644873390748,-0.1344644873390748
72.28,0.142989259674567,-0.142989259674567
72.281,0.15348371807618877,-0.15348371807618877
72.28200000000001,0.1608282530077626,-0.1608282530077626
72.283,0.15906633458448016,-0.15906633458448016
72.284,0.1444304986754268,-0.1444304986754268
72.28500000000001,0.11770323433897967,-0.11770323433897967
72.286,0.08491469355413184,-0.08491469355413184
72.287,0.05600226886588622,-0.05600226886588622
72.28800000000001,0.041812550549218175,-0.041812550549218175
72.289,0.05043737301365647,-0.05043737301365647
72.29,0.08412870868684408,-0.08412870868684408
72.29100000000001,0.13785441178918456,-0.13785441178918456
72.292,0.20001735429018652,-0.20001735429018652
72.293,0.25516327970164665,-0.25516327970164665
72.29400000000001,0.2878889979813235,-0.2878889979813235
72.295,0.28682854223171217,-0.28682854223171217
72.296,0.247626881078839,-0.247626881078839
72.29700000000001,0.17416485139000015,-0.17416485139000015
72.298,0.07782935558922355,-0.07782935558922355
72.299,0.024855938638560726,0.024855938638560726
72.30000000000001,0.11556744255559726,0.11556744255559726
72.301,0.17769644540558405,0.17769644540558405
72.302,0.1993539797961379,0.1993539797961379
72.30300000000001,0.17540943930431174,0.17540943930431174
72.304,0.10835777809786284,0.10835777809786284
72.305,0.007999910976898228,0.007999910976898228
72.30600000000001,0.10997241443834493,-0.10997241443834493
72.307,0.22633738809363924,-0.22633738809363924
72.308,0.32142821171996483,-0.32142821171996483
72.30900000000001,0.37859387048171445,-0.37859387048171445
72.31,0.3875132112741818,-0.3875132112741818
72.311,0.34668838518550094,-0.34668838518550094
72.31200000000001,0.2644168813084279,-0.2644168813084279
72.313,0.15772634394743068,-0.15772634394743068
72.31400000000001,0.04917332576976852,-0.04917332576976852
72.31500000000001,0.03802018741549773,0.03802018741549773
72.316,0.08545392968083454,0.08545392968083454
72.31700000000001,0.08426669667069842,0.08426669667069842
72.31800000000001,0.037711140568780666,0.037711140568780666
72.319,0.03933139188508605,-0.03933139188508605
72.32000000000001,0.12401069628986838,-0.12401069628986838
72.32100000000001,0.19152795695877423,-0.19152795695877423
72.322,0.22193770395213352,-0.22193770395213352
72.32300000000001,0.2058170167044242,-0.2058170167044242
72.32400000000001,0.14712240774710594,-0.14712240774710594
72.325,0.06232138450811009,-0.06232138450811009
72.32600000000001,0.02403436752484822,0.02403436752484822
72.32700000000001,0.08606629412546707,0.08606629412546707
72.328,0.10372505650999853,0.10372505650999853
72.32900000000001,0.06829624320743988,0.06829624320743988
72.33000000000001,0.015284073926990827,-0.015284073926990827
72.331,0.12987228926888172,-0.12987228926888172
72.33200000000001,0.25076870791680683,-0.25076870791680683
72.33300000000001,0.3521205819317472,-0.3521205819317472
72.334,0.41320405235812296,-0.41320405235812296
72.33500000000001,0.42289504603222106,-0.42289504603222106
72.33600000000001,0.381323871906025,-0.381323871906025
72.337,0.29863522989118874,-0.29863522989118874
72.33800000000001,0.19161946679211195,-0.19161946679211195
72.33900000000001,0.07946973267658564,-0.07946973267658564
72.34,0.02007180572039391,0.02007180572039391
72.34100000000001,0.09332806689055384,0.09332806689055384
72.34200000000001,0.13183442227278497,0.13183442227278497
72.343,0.1323559885382437,0.1323559885382437
72.34400000000001,0.09639377005559902,0.09639377005559902
72.34500000000001,0.02971461239053652,0.02971461239053652
72.346,0.0579280754718321,-0.0579280754718321
72.34700000000001,0.15315771601267525,-0.15315771601267525
72.34800000000001,0.23996718798059813,-0.23996718798059813
72.349,0.30181304141180565,-0.30181304141180565
72.35000000000001,0.3248519296819524,-0.3248519296819524
72.35100000000001,0.3017269945643871,-0.3017269945643871
72.352,0.2347545531972276,-0.2347545531972276
72.35300000000001,0.13716516020858582,-0.13716516020858582
72.354,0.031389341705705065,-0.031389341705705065
72.355,0.05578292113021721,0.05578292113021721
72.35600000000001,0.10024285880604333,0.10024285880604333
72.357,0.08790885581616736,0.08790885581616736
72.358,0.020034978404111836,0.020034978404111836
72.35900000000001,0.08554045300811963,-0.08554045300811963
72.36,0.19815004555340365,-0.19815004555340365
72.361,0.28245242135785764,-0.28245242135785764
72.36200000000001,0.3088582008458144,-0.3088582008458144
72.363,0.2631286154105228,-0.2631286154105228
72.364,0.15202274379426706,-0.15202274379426706
72.36500000000001,0.002879472887868939,-0.002879472887868939
72.366,0.14319139749447674,0.14319139749447674
72.367,0.24281009945274046,0.24281009945274046
72.36800000000001,0.2632181573190553,0.2632181573190553
72.369,0.19263104801971997,0.19263104801971997
72.37,0.04472899478854786,0.04472899478854786
72.37100000000001,0.14433976391208903,-0.14433976391208903
72.372,0.3257871518443177,-0.3257871518443177
72.373,0.4520410193196097,-0.4520410193196097
72.37400000000001,0.4905064910818042,-0.4905064910818042
72.375,0.43306437361911976,-0.43306437361911976
72.376,0.29840015344865944,-0.29840015344865944
72.37700000000001,0.1264410013591023,-0.1264410013591023
72.378,0.03340433490746286,0.03340433490746286
72.379,0.1366231423144435,0.1366231423144435
72.38000000000001,0.15625643724330684,0.15625643724330684
72.381,0.09009714842064431,0.09009714842064431
72.382,0.03956579671734384,-0.03956579671734384
72.38300000000001,0.19333244014887374,-0.19333244014887374
72.384,0.3267310718701101,-0.3267310718701101
72.385,0.40312831358136136,-0.40312831358136136
72.38600000000001,0.4036401143080598,-0.4036401143080598
72.387,0.3312864572075399,-0.3312864572075399
72.388,0.20853803924173142,-0.20853803924173142
72.38900000000001,0.06945950037112103,-0.06945950037112103
72.39,0.05079684905583837,0.05079684905583837
72.391,0.12580831871882725,0.12580831871882725
72.39200000000001,0.14417050031297363,0.14417050031297363
72.393,0.1107596538054696,0.1107596538054696
72.394,0.043159046682452074,0.043159046682452074
72.39500000000001,0.03509892640090828,-0.03509892640090828
72.396,0.10203842655289985,-0.10203842655289985
72.397,0.14313673186369658,-0.14313673186369658
72.39800000000001,0.15407951620449334,-0.15407951620449334
72.399,0.1400543866281767,-0.1400543866281767
72.4,0.11240783288566125,-0.11240783288566125
72.40100000000001,0.08418952157881177,-0.08418952157881177
72.402,0.06617938818781477,-0.06617938818781477
72.403,0.06450262509289462,-0.06450262509289462
72.40400000000001,0.08014846549345023,-0.08014846549345023
72.405,0.10996347377596982,-0.10996347377596982
72.406,0.1482726394728201,-0.1482726394728201
72.40700000000001,0.1883107010338564,-0.1883107010338564
72.408,0.22304162056329724,-0.22304162056329724
72.409,0.24547459065616528,-0.24547459065616528
72.41000000000001,0.24897478519719973,-0.24897478519719973
72.411,0.22811792948336562,-0.22811792948336562
72.412,0.1803149128353715,-0.1803149128353715
72.41300000000001,0.10788134791731752,-0.10788134791731752
72.414,0.019712295630414878,-0.019712295630414878
72.415,0.06848341005396041,0.06848341005396041
72.41600000000001,0.13617221127623758,0.13617221127623758
72.417,0.16229192006812942,0.16229192006812942
72.418,0.1310286691916065,0.1310286691916065
72.41900000000001,0.03747255694352658,0.03747255694352658
72.42,0.10875869934065707,-0.10875869934065707
72.421,0.2834909586747344,-0.2834909586747344
72.42200000000001,0.45216071545725134,-0.45216071545725134
72.423,0.5774802538981956,-0.5774802538981956
72.424,0.6286940796321973,-0.6286940796321973
72.42500000000001,0.5898305838901277,-0.5898305838901277
72.426,0.46446126009208,-0.46446126009208
72.427,0.2754027919771487,-0.2754027919771487
72.42800000000001,0.0592716796596533,-0.0592716796596533
72.429,0.14263727940262205,0.14263727940262205
72.43,0.2945396710968664,0.2945396710968664
72.43100000000001,0.3744782300216567,0.3744782300216567
72.432,0.3784270232319711,0.3784270232319711
72.433,0.31918101522131304,0.31918101522131304
72.43400000000001,0.2206700716270633,0.2206700716270633
72.435,0.10973947638319648,0.10973947638319648
72.436,0.008144043632520637,0.008144043632520637
72.43700000000001,0.07271283050317423,-0.07271283050317423
72.438,0.13281057317434541,-0.13281057317434541
72.43900000000001,0.18033655426865858,-0.18033655426865858
72.44000000000001,0.22577574464945138,-0.22577574464945138
72.441,0.2756301475066245,-0.2756301475066245
72.44200000000001,0.32817902792787745,-0.32817902792787745
72.44300000000001,0.3728892781777824,-0.3728892781777824
72.444,0.39372957132966546,-0.39372957132966546
72.44500000000001,0.37521286136368404,-0.37521286136368404
72.44600000000001,0.3089883739863498,-0.3089883739863498
72.447,0.19857135934850645,-0.19857135934850645
72.44800000000001,0.06041026397999971,-0.06041026397999971
72.44900000000001,0.0792721598788817,0.0792721598788817
72.45,0.19099613390214354,0.19099613390214354
72.45100000000001,0.24989885407026646,0.24989885407026646
72.45200000000001,0.24250829967683463,0.24250829967683463
72.453,0.17032628649358328,0.17032628649358328
72.45400000000001,0.049178406544365005,0.049178406544365005
72.45500000000001,0.095349168738465,-0.095349168738465
72.456,0.23485349485189155,-0.23485349485189155
72.45700000000001,0.3452425402751583,-0.3452425402751583
72.45800000000001,0.4119328982951945,-0.4119328982951945
72.459,0.43177101612251134,-0.43177101612251134
72.46000000000001,0.411490104475397,-0.411490104475397
72.46100000000001,0.36365094990963753,-0.36365094990963753
72.462,0.3017416486920015,-0.3017416486920015
72.46300000000001,0.23620299035951509,-0.23620299035951509
72.46400000000001,0.17261049656489258,-0.17261049656489258
72.465,0.1123101888813981,-0.1123101888813981
72.46600000000001,0.05483402871503085,-0.05483402871503085
72.46700000000001,0.0007717472851960228,-0.0007717472851960228
72.468,0.046323393316182404,0.046323393316182404
72.46900000000001,0.07994803370800496,0.07994803370800496
72.47000000000001,0.09268944313416894,0.09268944313416894
72.471,0.0795106011353699,0.0795106011353699
72.47200000000001,0.04090382681879268,0.04090382681879268
72.47300000000001,0.01552484202717408,-0.01552484202717408
72.474,0.0759727251068093,-0.0759727251068093
72.47500000000001,0.12389104391027772,-0.12389104391027772
72.47600000000001,0.14502746813290235,-0.14502746813290235
72.477,0.13242801468591536,-0.13242801468591536
72.47800000000001,0.08962031112557722,-0.08962031112557722
72.479,0.030677960772783397,-0.030677960772783397
72.48,0.023172259344522494,0.023172259344522494
72.48100000000001,0.0496023316139651,0.0496023316139651
72.482,0.03216291365852353,0.03216291365852353
72.483,0.033951542374534904,-0.033951542374534904
72.48400000000001,0.13923326587527973,-0.13923326587527973
72.485,0.2612979638516093,-0.2612979638516093
72.486,0.37022320155857,-0.37022320155857
72.48700000000001,0.4363979894318436,-0.4363979894318436
72.488,0.4387048551760683,-0.4387048551760683
72.489,0.37070830340799965,-0.37070830340799965
72.49000000000001,0.24306225272587378,-0.24306225272587378
72.491,0.08140964909418735,-0.08140964909418735
72.492,0.07968855692428423,0.07968855692428423
72.49300000000001,0.20516257959891937,0.20516257959891937
72.494,0.267933905088626,0.267933905088626
72.495,0.25528591428875,0.25528591428875
72.49600000000001,0.17152171310690556,0.17152171310690556
72.497,0.0363684566159439,0.0363684566159439
72.498,0.1202740033888281,-0.1202740033888281
72.49900000000001,0.26572646402279543,-0.26572646402279543
72.5,0.3720947757896812,-0.3720947757896812
72.501,0.42212779883304163,-0.42212779883304163
72.50200000000001,0.41206890757315695,-0.41206890757315695
72.503,0.3510691767459658,-0.3510691767459658
72.504,0.2576338703340346,-0.2576338703340346
72.50500000000001,0.15427177132772996,-0.15427177132772996
72.506,0.061847064341264746,-0.061847064341264746
72.507,0.00495191765476366,0.00495191765476366
72.50800000000001,0.04004716190611135,0.04004716190611135
72.509,0.04596220886458302,0.04596220886458302
72.51,0.03167263003712084,0.03167263003712084
72.51100000000001,0.009117333396422733,0.009117333396422733
72.512,0.010585381497678292,-0.010585381497678292
72.513,0.020216924598739472,-0.020216924598739472
72.51400000000001,0.018117851153557907,-0.018117851153557907
72.515,0.008142023076060267,-0.008142023076060267
72.516,0.0019264313853100123,0.0019264313853100123
72.51700000000001,0.002957517170902868,0.002957517170902868
72.518,0.012679212329230638,-0.012679212329230638
72.519,0.048758244010072005,-0.048758244010072005
72.52000000000001,0.10391085415404988,-0.10391085415404988
72.521,0.1716912295538523,-0.1716912295538523
72.522,0.24193478483518382,-0.24193478483518382
72.52300000000001,0.30303479486786866,-0.30303479486786866
72.524,0.3445538733814596,-0.3445538733814596
72.525,0.35952507654867205,-0.35952507654867205
72.52600000000001,0.34589370493448557,-0.34589370493448557
72.527,0.30677891806646107,-0.30677891806646107
72.528,0.24953678411090852,-0.24953678411090852
72.52900000000001,0.18390772253688137,-0.18390772253688137
72.53,0.11975510948986157,-0.11975510948986157
72.531,0.06499008100309656,-0.06499008100309656
72.53200000000001,0.024206351795367453,-0.024206351795367453
72.533,0.0016637476485201752,0.0016637476485201752
72.534,0.014657610951955391,0.014657610951955391
72.53500000000001,0.018339275393865595,0.018339275393865595
72.536,0.01610405649237001,0.01610405649237001
72.537,0.009797065528118098,0.009797065528118098
72.53800000000001,0.0008923805717711009,-0.0008923805717711009
72.539,0.018047376767611256,-0.018047376767611256
72.54,0.04426104805641984,-0.04426104805641984
72.54100000000001,0.08090642968868877,-0.08090642968868877
72.542,0.12653579214095423,-0.12653579214095423
72.543,0.17601404676081278,-0.17601404676081278
72.54400000000001,0.2208076502721409,-0.2208076502721409
72.545,0.2505212815168888,-0.2505212815168888
72.546,0.2553904259478501,-0.2553904259478501
72.54700000000001,0.22911097783478962,-0.22911097783478962
72.548,0.17121800415364885,-0.17121800415364885
72.549,0.08827444549034669,-0.08827444549034669
72.55000000000001,0.006604235150533322,0.006604235150533322
72.551,0.09594514429999879,0.09594514429999879
72.552,0.16142706858656397,0.16142706858656397
72.55300000000001,0.1879197522900069,0.1879197522900069
72.554,0.16708208830956117,0.16708208830956117
72.555,0.09960914412771871,0.09960914412771871
72.55600000000001,0.004481108901512987,-0.004481108901512987
72.557,0.1276637252620315,-0.1276637252620315
72.558,0.24845452022740488,-0.24845452022740488
72.55900000000001,0.3458915668440279,-0.3458915668440279
72.56,0.4039210422042875,-0.4039210422042875
72.561,0.4146803962686828,-0.4146803962686828
72.56200000000001,0.3799394724467866,-0.3799394724467866
72.563,0.31040198370081995,-0.31040198370081995
72.56400000000001,0.22307232538058075,-0.22307232538058075
72.56500000000001,0.1373316070074112,-0.1373316070074112
72.566,0.07063890832209418,-0.07063890832209418
72.56700000000001,0.0348224953639088,-0.0348224953639088
72.56800000000001,0.033752229613054796,-0.033752229613054796
72.569,0.06284297890663504,-0.06284297890663504
72.57000000000001,0.1104189805986362,-0.1104189805986362
72.57100000000001,0.16057026917391592,-0.16057026917391592
72.572,0.19683902629663075,-0.19683902629663075
72.57300000000001,0.20593786578893636,-0.20593786578893636
72.57400000000001,0.18073566953616804,-0.18073566953616804
72.575,0.12192575768473635,-0.12192575768473635
72.57600000000001,0.038067706500405696,-0.038067706500405696
72.57700000000001,0.055990056190316606,0.055990056190316606
72.578,0.14200006437783452,0.14200006437783452
72.57900000000001,0.2019727210287019,0.2019727210287019
72.58000000000001,0.22190974931675433,0.22190974931675433
72.581,0.19489136311439226,0.19489136311439226
72.58200000000001,0.12288314305983405,0.12288314305983405
72.58300000000001,0.016833908255569296,0.016833908255569296
72.584,0.10506304021524016,-0.10506304021524016
72.58500000000001,0.22071647914492765,-0.22071647914492765
72.58600000000001,0.308511375468119,-0.308511375468119
72.587,0.351857839840487,-0.351857839840487
72.58800000000001,0.3429419358705301,-0.3429419358705301
72.58900000000001,0.28478976876771955,-0.28478976876771955
72.59,0.19105694803541506,-0.19105694803541506
72.59100000000001,0.08343005871490394,-0.08343005871490394
72.59200000000001,0.012920474599722231,0.012920474599722231
72.593,0.07489719304345144,0.07489719304345144
72.59400000000001,0.08679195663882311,0.08679195663882311
72.59500000000001,0.044089316759068575,0.044089316759068575
72.596,0.04521721306206439,-0.04521721306206439
72.59700000000001,0.16220433654649302,-0.16220433654649302
72.59800000000001,0.2812008390870001,-0.2812008390870001
72.599,0.37562208405081743,-0.37562208405081743
72.60000000000001,0.4240715284652238,-0.4240715284652238
72.60100000000001,0.4152348415707916,-0.4152348415707916
72.602,0.3503834258161962,-0.3503834258161962
72.60300000000001,0.2429036313281442,-0.2429036313281442
72.604,0.11501676464672361,-0.11501676464672361
72.605,0.007448531410024106,0.007448531410024106
72.60600000000001,0.10091200041941306,0.10091200041941306
72.607,0.14910344571064615,0.14910344571064615
72.608,0.14617544238101532,0.14617544238101532
72.60900000000001,0.09726003486660706,0.09726003486660706
72.61,0.016527751882415842,0.016527751882415842
72.611,0.07659542544943332,-0.07659542544943332
72.61200000000001,0.16202059756753417,-0.16202059756753417
72.613,0.22328566094343105,-0.22328566094343105
72.614,0.25063257150398355,-0.25063257150398355
72.61500000000001,0.24235579467773383,-0.24235579467773383
72.616,0.20435767286988948,-0.20435767286988948
72.617,0.14823179863240632,-0.14823179863240632
72.61800000000001,0.08843285291634573,-0.08843285291634573
72.619,0.03916127474024511,-0.03916127474024511
72.62,0.011528500552702936,-0.011528500552702936
72.62100000000001,0.011436079301597735,-0.011436079301597735
72.622,0.038457247717100906,-0.038457247717100906
72.623,0.0858801247349964,-0.0858801247349964
72.62400000000001,0.14194931732199556,-0.14194931732199556
72.625,0.1921982049734151,-0.1921982049734151
72.626,0.22257525679895773,-0.22257525679895773
72.62700000000001,0.2228462112568117,-0.2228462112568117
72.628,0.18955707542412548,-0.18955707542412548
72.629,0.1277607353367446,-0.1277607353367446
72.63000000000001,0.05083028985939131,-0.05083028985939131
72.631,0.021954427765363604,0.021954427765363604
72.632,0.06979677962821285,0.06979677962821285
72.63300000000001,0.07586887270891074,0.07586887270891074
72.634,0.032511960826152375,0.032511960826152375
72.635,0.055398968710098084,-0.055398968710098084
72.63600000000001,0.17018976915035267,-0.17018976915035267
72.637,0.28474651075767965,-0.28474651075767965
72.638,0.3690008057918961,-0.3690008057918961
72.63900000000001,0.3980202067402211,-0.3980202067402211
72.64,0.3594968172226989,-0.3594968172226989
72.641,0.2583461606430244,-0.2583461606430244
72.64200000000001,0.1167553480323964,-0.1167553480323964
72.643,0.030763694862883773,0.030763694862883773
72.644,0.14627961647602827,0.14627961647602827
72.64500000000001,0.19897158114211555,0.19897158114211555
72.646,0.17426558190818953,0.17426558190818953
72.647,0.0787590263508493,0.0787590263508493
72.64800000000001,0.06079312543050375,-0.06079312543050375
72.649,0.20445477551301883,-0.20445477551301883
72.65,0.31025490875707284,-0.31025490875707284
72.65100000000001,0.3463464951201978,-0.3463464951201978
72.652,0.3005653534686118,-0.3005653534686118
72.653,0.18442050966185974,-0.18442050966185974
72.65400000000001,0.03014103400745405,-0.03014103400745405
72.655,0.11851380767460995,0.11851380767460995
72.656,0.21904036868796228,0.21904036868796228
72.65700000000001,0.2427597440487954,0.2427597440487954
72.658,0.1833404730943542,0.1833404730943542
72.659,0.058620633342133965,0.058620633342133965
72.66000000000001,0.0948973226461921,-0.0948973226461921
72.661,0.23324614033340008,-0.23324614033340008
72.662,0.318470799768386,-0.318470799768386
72.66300000000001,0.3302270772395671,-0.3302270772395671
72.664,0.2718988074527763,-0.2718988074527763
72.665,0.16931641765132388,-0.16931641765132388
72.66600000000001,0.062456234579847614,-0.062456234579847614
72.667,0.007310396908368988,0.007310396908368988
72.668,0.010456084550385825,0.010456084550385825
72.66900000000001,0.061094850152933367,-0.061094850152933367
72.67,0.19098124871918276,-0.19098124871918276
72.671,0.3429775388877242,-0.3429775388877242
72.67200000000001,0.4717209998015882,-0.4717209998015882
72.673,0.5363040590485391,-0.5363040590485391
72.674,0.5125884442741862,-0.5125884442741862
72.67500000000001,0.40053052012500645,-0.40053052012500645
72.676,0.22437167079187437,-0.22437167079187437
72.677,0.025739707658261723,-0.025739707658261723
72.67800000000001,0.1481623159842913,0.1481623159842913
72.679,0.2576882731479524,0.2576882731479524
72.68,0.2813241471668291,0.2813241471668291
72.68100000000001,0.22072226821489238,0.22072226821489238
72.682,0.09896996565040306,0.09896996565040306
72.683,0.047077554118378884,-0.047077554118378884
72.68400000000001,0.17785855699316122,-0.17785855699316122
72.685,0.2621540143356442,-0.2621540143356442
72.686,0.2849206432256556,-0.2849206432256556
72.68700000000001,0.24985459834232826,-0.24985459834232826
72.688,0.1763295476317489,-0.1763295476317489
72.68900000000001,0.09204893411296544,-0.09204893411296544
72.69000000000001,0.02393379674633267,-0.02393379674633267
72.691,0.009889703731317034,0.009889703731317034
72.69200000000001,0.004682275928127755,0.004682275928127755
72.69300000000001,0.030853781471856023,-0.030853781471856023
72.694,0.07871953224998895,-0.07871953224998895
72.69500000000001,0.11837798127654764,-0.11837798127654764
72.69600000000001,0.1338579929073147,-0.1338579929073147
72.697,0.11898203198295776,-0.11898203198295776
72.69800000000001,0.07920436947698495,-0.07920436947698495
72.69900000000001,0.029657424902377993,-0.029657424902377993
72.7,0.009838475709498917,0.009838475709498917
72.70100000000001,0.02118321503423526,0.02118321503423526
72.70200000000001,0.00613740751635472,-0.00613740751635472
72.703,0.07144835566259211,-0.07144835566259211
72.70400000000001,0.16255068162060915,-0.16255068162060915
72.70500000000001,0.2587048037273042,-0.2587048037273042
72.706,0.3360579497362738,-0.3360579497362738
72.70700000000001,0.37399816600256275,-0.37399816600256275
72.70800000000001,0.3607058581691772,-0.3607058581691772
72.709,0.2964258112057142,-0.2964258112057142
72.71000000000001,0.19361079632096911,-0.19361079632096911
72.71100000000001,0.07391780235797574,-0.07391780235797574
72.712,0.03714469531143849,0.03714469531143849
72.71300000000001,0.11651819125178386,0.11651819125178386
72.71400000000001,0.1492045134002693,0.1492045134002693
72.715,0.13172692249020956,0.13172692249020956
72.71600000000001,0.07254466442476248,0.07254466442476248
72.71700000000001,0.010671949104612222,-0.010671949104612222
72.718,0.09615289112658232,-0.09615289112658232
72.71900000000001,0.1641084825187138,-0.1641084825187138
72.72000000000001,0.20206592435997217,-0.20206592435997217
72.721,0.2079272907473536,-0.2079272907473536
72.72200000000001,0.1898405068877954,-0.1898405068877954
72.72300000000001,0.16289731036225785,-0.16289731036225785
72.724,0.14363699574430155,-0.14363699574430155
72.72500000000001,0.14405322127812747,-0.14405322127812747
72.72600000000001,0.16703443728908585,-0.16703443728908585
72.727,0.20480755345378554,-0.20480755345378554
72.72800000000001,0.24106843030254244,-0.24106843030254244
72.729,0.25631502982050225,-0.25631502982050225
72.73,0.23480548934097423,-0.23480548934097423
72.73100000000001,0.17090659730194846,-0.17090659730194846
72.732,0.07262827852084863,-0.07262827852084863
72.733,0.039099007621857806,0.039099007621857806
72.73400000000001,0.13554919848524105,0.13554919848524105
72.735,0.188427431421629,0.188427431421629
72.736,0.17877305054123527,0.17877305054123527
72.73700000000001,0.10370523925983055,0.10370523925983055
72.738,0.021326606015370286,-0.021326606015370286
72.739,0.16582864550669119,-0.16582864550669119
72.74000000000001,0.29240364980032785,-0.29240364980032785
72.741,0.36746227739911763,-0.36746227739911763
72.742,0.3712688606341148,-0.3712688606341148
72.74300000000001,0.30413798689902605,-0.30413798689902605
72.744,0.18668719331142225,-0.18668719331142225
72.745,0.053868539559484785,-0.053868539559484785
72.74600000000001,0.05551743154235278,0.05551743154235278
72.747,0.1106218585565033,0.1106218585565033
72.748,0.09794975903159076,0.09794975903159076
72.74900000000001,0.02533570489007375,0.02533570489007375
72.75,0.08084769978921158,-0.08084769978921158
72.751,0.18442381932793106,-0.18442381932793106
72.75200000000001,0.25132112275005614,-0.25132112275005614
72.753,0.26081482899251174,-0.26081482899251174
72.754,0.2124224773604283,-0.2124224773604283
72.75500000000001,0.12614702397730282,-0.12614702397730282
72.756,0.03590914393350608,-0.03590914393350608
72.757,0.021761869384205434,0.021761869384205434
72.75800000000001,0.020133972621843244,0.020133972621843244
72.759,0.04826804343943025,-0.04826804343943025
72.76,0.1682740564454943,-0.1682740564454943
72.76100000000001,0.3059351848064792,-0.3059351848064792
72.762,0.4184982824846851,-0.4184982824846851
72.763,0.46738070794691755,-0.46738070794691755
72.76400000000001,0.43008467367233516,-0.43008467367233516
72.765,0.30734686335013106,-0.30734686335013106
72.766,0.12335433758424574,-0.12335433758424574
72.76700000000001,0.08094290837563767,0.08094290837563767
72.768,0.25925225437739763,0.25925225437739763
72.769,0.3725283514799953,0.3725283514799953
72.77000000000001,0.3989494066084036,0.3989494066084036
72.771,0.33847813792557635,0.33847813792557635
72.772,0.21102220524515647,0.21102220524515647
72.77300000000001,0.049234405642391454,0.049234405642391454
72.774,0.11143969183580271,-0.11143969183580271
72.775,0.24223249968304839,-0.24223249968304839
72.77600000000001,0.32726790627089375,-0.32726790627089375
72.777,0.36505829259549605,-0.36505829259549605
72.778,0.36549800643535035,-0.36549800643535035
72.77900000000001,0.34400377846642216,-0.34400377846642216
72.78,0.3151859383668342,-0.3151859383668342
72.781,0.2882713465255822,-0.2882713465255822
72.78200000000001,0.26557619047168934,-0.26557619047168934
72.783,0.24404116256134856,-0.24404116256134856
72.784,0.21869225088395938,-0.21869225088395938
72.78500000000001,0.1862913995029284,-0.1862913995029284
72.786,0.1475738459874505,-0.1475738459874505
72.787,0.10722650649433763,-0.10722650649433763
72.78800000000001,0.07180451627041917,-0.07180451627041917
72.789,0.04667768962266483,-0.04667768962266483
72.79,0.03348894890286691,-0.03348894890286691
72.79100000000001,0.02934925512513431,-0.02934925512513431
72.792,0.028208430193198297,-0.028208430193198297
72.793,0.023860236227505216,-0.023860236227505216
72.79400000000001,0.013273079706829893,-0.013273079706829893
72.795,0.001289980931757917,0.001289980931757917
72.796,0.01247548800622611,0.01247548800622611
72.79700000000001,0.01055802394157035,0.01055802394157035
72.798,0.012205934227092374,-0.012205934227092374
72.799,0.05725438361006574,-0.05725438361006574
72.80000000000001,0.11726404508060229,-0.11726404508060229
72.801,0.17685037042901375,-0.17685037042901375
72.802,0.21660750135014162,-0.21660750135014162
72.80300000000001,0.21940316816485073,-0.21940316816485073
72.804,0.17687879011324703,-0.17687879011324703
72.805,0.09382348562529541,-0.09382348562529541
72.80600000000001,0.011363713977317946,0.011363713977317946
72.807,0.1106876779850714,0.1106876779850714
72.808,0.17411442885963124,0.17411442885963124
72.80900000000001,0.17847983607713358,0.17847983607713358
72.81,0.11498093193873227,0.11498093193873227
72.811,0.007193828483072706,-0.007193828483072706
72.81200000000001,0.16239836055125978,-0.16239836055125978
72.813,0.3149388642074348,-0.3149388642074348
72.81400000000001,0.42855057758660153,-0.42855057758660153
72.81500000000001,0.47617708173202744,-0.47617708173202744
72.816,0.4472046359605877,-0.4472046359605877
72.81700000000001,0.3501063297241177,-0.3501063297241177
72.81800000000001,0.20986209822645474,-0.20986209822645474
72.819,0.06107425921858001,-0.06107425921858001
72.82000000000001,0.0611004763485099,0.0611004763485099
72.82100000000001,0.12958966657849014,0.12958966657849014
72.822,0.1313267299050922,0.1313267299050922
72.82300000000001,0.06914638727779554,0.06914638727779554
72.82400000000001,0.04038543992554966,-0.04038543992554966
72.825,0.17211187966381136,-0.17211187966381136
72.82600000000001,0.29864105608634783,-0.29864105608634783
72.82700000000001,0.39612757718879477,-0.39612757718879477
72.828,0.4481992334412076,-0.4481992334412076
72.82900000000001,0.4475508281925782,-0.4475508281925782
72.83000000000001,0.39550187063752185,-0.39550187063752185
72.831,0.30029865651436827,-0.30029865651436827
72.83200000000001,0.17501772061679988,-0.17501772061679988
72.83300000000001,0.03565481576319107,-0.03565481576319107
72.834,0.1004486043337991,0.1004486043337991
72.83500000000001,0.21604995352481304,0.21604995352481304
72.83600000000001,0.29564695883718795,0.29564695883718795
72.837,0.327472991976977,0.327472991976977
72.83800000000001,0.305646250808135,0.305646250808135
72.83900000000001,0.23191786764973488,0.23191786764973488
72.84,0.11630768217059262,0.11630768217059262
72.84100000000001,0.023927196736682532,-0.023927196736682532
72.84200000000001,0.16709809637694628,-0.16709809637694628
72.843,0.29118562942443604,-0.29118562942443604
72.84400000000001,0.3782575695095992,-0.3782575695095992
72.84500000000001,0.41802086772206015,-0.41802086772206015
72.846,0.4095171007166657,-0.4095171007166657
72.84700000000001,0.36051247628107863,-0.36051247628107863
72.84800000000001,0.28484125390318715,-0.28484125390318715
72.849,0.19858306712139062,-0.19858306712139062
72.85000000000001,0.11626646521266026,-0.11626646521266026
72.85100000000001,0.04818449913335188,-0.04818449913335188
72.852,0.0005673198891742448,0.0005673198891742448
72.85300000000001,0.029376560692962572,0.029376560692962572
72.854,0.0403519272975279,0.0403519272975279
72.855,0.03643328091484843,0.03643328091484843
72.85600000000001,0.02019162935195218,0.02019162935195218
72.857,0.006296234009615653,-0.006296234009615653
72.858,0.040684539057625035,-0.040684539057625035
72.85900000000001,0.07935151101477078,-0.07935151101477078
72.86,0.1169373161345244,-0.1169373161345244
72.861,0.14697513650912886,-0.14697513650912886
72.86200000000001,0.16363259262103014,-0.16363259262103014
72.863,0.16398438399028026,-0.16398438399028026
72.864,0.1498412902996784,-0.1498412902996784
72.86500000000001,0.12816288698871614,-0.12816288698871614
72.866,0.10952331507649848,-0.10952331507649848
72.867,0.1048399640925397,-0.1048399640925397
72.86800000000001,0.12133512137723879,-0.12133512137723879
72.869,0.15916791898072036,-0.15916791898072036
72.87,0.21012583388455808,-0.21012583388455808
72.87100000000001,0.2591651197509075,-0.2591651197509075
72.872,0.288615904263845,-0.288615904263845
72.873,0.2838591039280882,-0.2838591039280882
72.87400000000001,0.23861889202208408,-0.23861889202208408
72.875,0.15797479183302465,-0.15797479183302465
72.876,0.05784604255844761,-0.05784604255844761
72.87700000000001,0.03914986321361691,0.03914986321361691
72.878,0.11029747062068607,0.11029747062068607
72.879,0.13974522172391501,0.13974522172391501
72.88000000000001,0.12349030140400985,0.12349030140400985
72.881,0.07061852490858334,0.07061852490858334
72.882,0.0002502142754385872,0.0002502142754385872
72.88300000000001,0.06489346594032153,-0.06489346594032153
72.884,0.10618876719868087,-0.10618876719868087
72.885,0.11545310147425358,-0.11545310147425358
72.88600000000001,0.09770857908897157,-0.09770857908897157
72.887,0.06932083028869962,-0.06932083028869962
72.888,0.05204676259384078,-0.05204676259384078
72.88900000000001,0.06495940801578204,-0.06495940801578204
72.89,0.11700578604730583,-0.11700578604730583
72.891,0.20280710753691777,-0.20280710753691777
72.89200000000001,0.303262246969761,-0.303262246969761
72.893,0.3909114450554688,-0.3909114450554688
72.894,0.4384006294882541,-0.4384006294882541
72.89500000000001,0.42731026904552394,-0.42731026904552394
72.896,0.35444719065680697,-0.35444719065680697
72.897,0.23350356264354544,-0.23350356264354544
72.89800000000001,0.09149320470659805,-0.09149320470659805
72.899,0.03892652365199378,0.03892652365199378
72.9,0.12881791448314805,0.12881791448314805
72.90100000000001,0.1610726580635804,0.1610726580635804
72.902,0.13478663796859425,0.13478663796859425
72.903,0.06466800599619993,0.06466800599619993
72.90400000000001,0.02414531408469922,-0.02414531408469922
72.905,0.10405713466151978,-0.10405713466151978
72.906,0.15318890110273475,-0.15318890110273475
72.90700000000001,0.16126061330388086,-0.16126061330388086
72.908,0.1315563284482396,-0.1315563284482396
72.909,0.07869078084152947,-0.07869078084152947
72.91000000000001,0.023220224909383247,-0.023220224909383247
72.911,0.014976880442489238,0.014976880442489238
72.912,0.022437733994460585,0.022437733994460585
72.91300000000001,0.004632547246526064,-0.004632547246526064
72.914,0.06023579060278661,-0.06023579060278661
72.915,0.1311777590314358,-0.1311777590314358
72.91600000000001,0.2012136947738371,-0.2012136947738371
72.917,0.25530231353992094,-0.25530231353992094
72.918,0.28278228901706437,-0.28278228901706437
72.91900000000001,0.27888707515234024,-0.27888707515234024
72.92,0.24468378327762386,-0.24468378327762386
72.921,0.18599256386814422,-0.18599256386814422
72.92200000000001,0.11196443119192512,-0.11196443119192512
72.923,0.03378461366945329,-0.03378461366945329
72.924,0.03641272504873605,0.03641272504873605
72.92500000000001,0.0866587105440455,0.0866587105440455
72.926,0.10662061545784352,0.10662061545784352
72.927,0.08954782230003944,0.08954782230003944
72.92800000000001,0.034401360654449764,0.034401360654449764
72.929,0.052526500422528155,-0.052526500422528155
72.93,0.15736061977932303,-0.15736061977932303
72.93100000000001,0.2603998655156836,-0.2603998655156836
72.932,0.3399385518096034,-0.3399385518096034
72.933,0.3774412107751891,-0.3774412107751891
72.93400000000001,0.3627013272661628,-0.3627013272661628
72.935,0.2973529920909257,-0.2973529920909257
72.936,0.19540293664999508,-0.19540293664999508
72.93700000000001,0.0802707927983326,-0.0802707927983326
72.938,0.02107621543055993,0.02107621543055993
72.93900000000001,0.08530397540066614,0.08530397540066614
72.94000000000001,0.09907646133744574,0.09907646133744574
72.941,0.06262160718133125,0.06262160718133125
72.94200000000001,0.010659117148282604,-0.010659117148282604
72.94300000000001,0.09844541947322627,-0.09844541947322627
72.944,0.17627164048741428,-0.17627164048741428
72.94500000000001,0.22465152066273708,-0.22465152066273708
72.94600000000001,0.23429208068299012,-0.23429208068299012
72.947,0.20781021639813713,-0.20781021639813713
72.94800000000001,0.1575812170256965,-0.1575812170256965
72.94900000000001,0.10067660887466867,-0.10067660887466867
72.95,0.05281737171649992,-0.05281737171649992
72.95100000000001,0.023531755337488747,-0.023531755337488747
72.95200000000001,0.014172932515962189,-0.014172932515962189
72.953,0.01931983391601444,-0.01931983391601444
72.95400000000001,0.030775244324111495,-0.030775244324111495
72.95500000000001,0.04237797294416512,-0.04237797294416512
72.956,0.053538622569063166,-0.053538622569063166
72.95700000000001,0.06991576057419557,-0.06991576057419557
72.95800000000001,0.10079169782811759,-0.10079169782811759
72.959,0.1540621642308616,-0.1540621642308616
72.96000000000001,0.23080863141470165,-0.23080863141470165
72.96100000000001,0.32176055502363354,-0.32176055502363354
72.962,0.4074167405835295,-0.4074167405835295
72.96300000000001,0.4623407798357747,-0.4623407798357747
72.96400000000001,0.462606585735873,-0.462606585735873
72.965,0.39409898983031366,-0.39409898983031366
72.96600000000001,0.2588471749184752,-0.2588471749184752
72.96700000000001,0.0770109005666787,-0.0770109005666787
72.968,0.11656131101998013,0.11656131101998013
72.96900000000001,0.28054482534963276,0.28054482534963276
72.97000000000001,0.37787100429098386,0.37787100429098386
72.971,0.3858228320329713,0.3858228320329713
72.97200000000001,0.302441561625163,0.302441561625163
72.97300000000001,0.14728238610954958,0.14728238610954958
72.974,0.043719550697377874,-0.043719550697377874
72.97500000000001,0.22772111356845692,-0.22772111356845692
72.97600000000001,0.36595493481283725,-0.36595493481283725
72.977,0.4330421678922617,-0.4330421678922617
72.97800000000001,0.4221006962037769,-0.4221006962037769
72.979,0.34452235360127803,-0.34452235360127803
72.98,0.22496749262611448,-0.22496749262611448
72.98100000000001,0.09351029143628042,-0.09351029143628042
72.982,0.02246879167811766,0.02246879167811766
72.983,0.10427124948177968,0.10427124948177968
72.98400000000001,0.14434351803262402,0.14434351803262402
