Czas,AbsSum,Sum
86.995,0.0017300034376963665,-0.0017300034376963665
86.99600000000001,0.0002732974751380302,-0.0002732974751380302
86.997,0.0018574600579202454,0.0018574600579202454
86.998,0.004690395895181088,0.004690395895181088
86.99900000000001,0.007969280686381749,0.007969280686381749
87.0,0.011138203446357882,0.011138203446357882
87.001,0.013421293290167788,0.013421293290167788
87.00200000000001,0.013995656120081617,0.013995656120081617
87.003,0.012223896598497933,0.012223896598497933
87.004,0.007885297564740027,0.007885297564740027
87.00500000000001,0.001332927672991512,0.001332927672991512
87.006,0.006485262587735163,-0.006485262587735163
87.007,0.014170055117327947,-0.014170055117327947
87.00800000000001,0.020160572705813957,-0.020160572705813957
87.009,0.023103897096189346,-0.023103897096189346
87.01,0.022207391411421272,-0.022207391411421272
87.01100000000001,0.017472845604937958,-0.017472845604937958
87.012,0.009739072238039395,-0.009739072238039395
87.013,0.000511340322642923,-0.000511340322642923
87.01400000000001,0.008383181889976141,0.008383181889976141
87.015,0.015223833176498152,0.015223833176498152
87.016,0.018793641033887976,0.018793641033887976
87.01700000000001,0.018639445389864097,0.018639445389864097
87.018,0.015129754236185415,0.015129754236185415
87.019,0.009304275726905219,0.009304275726905219
87.02000000000001,0.002568114562711565,0.002568114562711565
87.021,0.003675670339405457,-0.003675670339405457
87.022,0.00835088335670961,-0.00835088335670961
87.02300000000001,0.010907379394086068,-0.010907379394086068
87.024,0.01135606303917352,-0.01135606303917352
87.025,0.01015314105832401,-0.01015314105832401
87.02600000000001,0.007989548339571398,-0.007989548339571398
87.027,0.005561730833559742,-0.005561730833559742
87.028,0.003393715536736968,-0.003393715536736968
87.02900000000001,0.0017526050891132996,-0.0017526050891132996
87.03,0.0006621503345617836,-0.0006621503345617836
87.031,1.4091684589952846e-05,1.4091684589952846e-05
87.03200000000001,0.0004662626654870376,0.0004662626654870376
87.033,0.000852651615425562,0.000852651615425562
87.034,0.0012610871887616104,0.0012610871887616104
87.03500000000001,0.0017179141594310338,0.0017179141594310338
87.036,0.002223819695360644,0.002223819695360644
87.037,0.0027868329053087424,0.0027868329053087424
87.03800000000001,0.003428963788873829,0.003428963788873829
87.039,0.00416029723974746,0.00416029723974746
87.04,0.004934406247668883,0.004934406247668883
87.04100000000001,0.005612258659851484,0.005612258659851484
87.042,0.005961981119143805,0.005961981119143805
87.043,0.005708255686600079,0.005708255686600079
87.04400000000001,0.004623135585918882,0.004623135585918882
87.045,0.002628920035097526,0.002628920035097526
87.046,0.00012723195727879744,-0.00012723195727879744
87.04700000000001,0.003262465099744038,-0.003262465099744038
87.048,0.006226728650421736,-0.006226728650421736
87.049,0.008437864257096164,-0.008437864257096164
87.05000000000001,0.00944438713281202,-0.00944438713281202
87.051,0.009063335157771525,-0.009063335157771525
87.052,0.007445208749349989,-0.007445208749349989
87.05300000000001,0.005040296893909226,-0.005040296893909226
87.054,0.002473177824885655,-0.002473177824885655
87.055,0.00036345721615394877,-0.00036345721615394877
87.05600000000001,0.000850421135636998,0.000850421135636998
87.057,0.00102811511884123,0.00102811511884123
87.058,0.00034893544537624395,0.00034893544537624395
87.05900000000001,0.0007657842212430849,-0.0007657842212430849
87.06,0.0018001570550459124,-0.0018001570550459124
87.061,0.002309535085946759,-0.002309535085946759
87.06200000000001,0.0020495387114695053,-0.0020495387114695053
87.063,0.0010290622406722806,-0.0010290622406722806
87.06400000000001,0.0005230966355105744,0.0005230966355105744
87.06500000000001,0.002257302887133916,0.002257302887133916
87.066,0.0038254852561745395,0.0038254852561745395
87.06700000000001,0.004979875502146779,0.004979875502146779
87.06800000000001,0.005614567005178967,0.005614567005178967
87.069,0.005742111067571559,0.005742111067571559
87.07000000000001,0.0054249061593096785,0.0054249061593096785
87.07100000000001,0.004699473434910553,0.004699473434910553
87.072,0.0035335694810705045,0.0035335694810705045
87.07300000000001,0.001840727573954196,0.001840727573954196
87.07400000000001,0.0004496323926253939,-0.0004496323926253939
87.075,0.0032952630995737235,-0.0032952630995737235
87.07600000000001,0.006462254566217166,-0.006462254566217166
87.07700000000001,0.009507537926811456,-0.009507537926811456
87.078,0.011845929652790948,-0.011845929652790948
87.07900000000001,0.012893299410575125,-0.012893299410575125
87.08000000000001,0.012245812846299836,-0.012245812846299836
87.081,0.00983573775927775,-0.00983573775927775
87.08200000000001,0.006005247034687595,-0.006005247034687595
87.08300000000001,0.0014620942500502899,-0.0014620942500502899
87.084,0.002881734461940673,0.002881734461940673
87.08500000000001,0.006147617580999769,0.006147617580999769
87.08600000000001,0.007734978212757143,0.007734978212757143
87.087,0.007497058092493087,0.007497058092493087
87.08800000000001,0.005789728340794205,0.005789728340794205
87.08900000000001,0.0033728257842881196,0.0033728257842881196
87.09,0.0011888529966870385,0.0011888529966870385
87.09100000000001,8.249122048925109e-05,8.249122048925109e-05
87.09200000000001,0.0005438220390129601,0.0005438220390129601
87.093,0.0025522059992786,0.0025522059992786
87.09400000000001,0.0055683364028089495,0.0055683364028089495
87.09500000000001,0.008678344512299053,0.008678344512299053
87.096,0.010849448595943527,0.010849448595943527
87.09700000000001,0.011224795563449075,0.011224795563449075
87.09800000000001,0.009374819338075243,0.009374819338075243
87.099,0.005435792305601337,0.005435792305601337
87.10000000000001,9.839434469453568e-05,9.839434469453568e-05
87.10100000000001,0.005549881030254084,-0.005549881030254084
87.102,0.01028650607951597,-0.01028650607951597
87.10300000000001,0.013052499177825493,-0.013052499177825493
87.10400000000001,0.013213340884485272,-0.013213340884485272
87.105,0.010719280518159222,-0.010719280518159222
87.10600000000001,0.006127857260398215,-0.006127857260398215
87.10700000000001,0.0004843192342331771,-0.0004843192342331771
87.108,0.004912215836721035,0.004912215836721035
87.10900000000001,0.008804160074735784,0.008804160074735784
87.11000000000001,0.010266550063477682,0.010266550063477682
87.111,0.008928391971839795,0.008928391971839795
87.11200000000001,0.005072459338024883,0.005072459338024883
87.113,0.0004136644923420121,-0.0004136644923420121
87.114,0.006230955990920627,-0.006230955990920627
87.11500000000001,0.010969391904599753,-0.010969391904599753
87.116,0.013450339996108398,-0.013450339996108398
87.117,0.013030120504493214,-0.013030120504493214
87.11800000000001,0.009786006966268307,-0.009786006966268307
87.119,0.00452804485335264,-0.00452804485335264
87.12,0.001380284811353663,0.001380284811353663
87.12100000000001,0.006360313394515202,0.006360313394515202
87.122,0.009036618128562627,0.009036618128562627
87.123,0.008626895027009928,0.008626895027009928
87.12400000000001,0.005192043528312826,0.005192043528312826
87.125,0.0003353244307532073,-0.0003353244307532073
87.126,0.006369219280283044,-0.006369219280283044
87.12700000000001,0.011091042345204203,-0.011091042345204203
87.128,0.01296530076563741,-0.01296530076563741
87.129,0.011206261015900467,-0.011206261015900467
87.13000000000001,0.006055279846757902,-0.006055279846757902
87.131,0.0012250752536704951,0.0012250752536704951
87.132,0.008655872406648406,0.008655872406648406
87.13300000000001,0.014073264411755753,0.014073264411755753
87.134,0.015742601284342142,0.015742601284342142
87.135,0.012879336311009187,0.012879336311009187
87.13600000000001,0.0059205711510975645,0.0059205711510975645
87.137,0.003541165768790611,-0.003541165768790611
87.138,0.013153420234732378,-0.013153420234732378
87.13900000000001,0.020422876701566735,-0.020422876701566735
87.14,0.02338459472330909,-0.02338459472330909
87.141,0.02113133336187529,-0.02113133336187529
87.14200000000001,0.01405304930754703,-0.01405304930754703
87.143,0.0037218020169506676,-0.0037218020169506676
87.144,0.0075386871909288765,0.0075386871909288765
87.14500000000001,0.017268795469856314,0.017268795469856314
87.146,0.023494306519256734,0.023494306519256734
87.147,0.025179343383812437,0.025179343383812437
87.14800000000001,0.022395154815129013,0.022395154815129013
87.149,0.016179578256514275,0.016179578256514275
87.15,0.008155347021632713,0.008155347021632713
87.15100000000001,4.1897203761594324e-05,4.1897203761594324e-05
87.152,0.006784827384583856,-0.006784827384583856
87.153,0.01156058519846747,-0.01156058519846747
87.15400000000001,0.014172858428974495,-0.014172858428974495
87.155,0.014996661941890062,-0.014996661941890062
87.156,0.014614906548817919,-0.014614906548817919
87.15700000000001,0.013540429821835344,-0.013540429821835344
87.158,0.012041406348324615,-0.012041406348324615
87.159,0.010121162595094293,-0.010121162595094293
87.16000000000001,0.007638075625947766,-0.007638075625947766
87.161,0.004496196036139989,-0.004496196036139989
87.162,0.0008126355640710227,-0.0008126355640710227
87.16300000000001,0.0030183127622971087,0.0030183127622971087
87.164,0.006398530135439911,0.006398530135439911
87.165,0.008711976297789933,0.008711976297789933
87.16600000000001,0.009549177421261459,0.009549177421261459
87.167,0.008876770095753378,0.008876770095753378
87.168,0.007076534245326189,0.007076534245326189
87.16900000000001,0.004827470392269079,0.004827470392269079
87.17,0.0028662919569876428,0.0028662919569876428
87.171,0.0017124688502816467,0.0017124688502816467
87.17200000000001,0.0014635394839789158,0.0014635394839789158
87.173,0.0017459391932178063,0.0017459391932178063
87.174,0.0018520825020455383,0.0018520825020455383
87.17500000000001,0.0010249300948202494,0.0010249300948202494
87.176,0.0012078386860335348,-0.0012078386860335348
87.177,0.004774079701212977,-0.004774079701212977
87.17800000000001,0.008977731009819386,-0.008977731009819386
87.179,0.012647382872623887,-0.012647382872623887
87.18,0.014481485728491159,-0.014481485728491159
87.18100000000001,0.013486009152850448,-0.013486009152850448
87.182,0.0093599928246902,-0.0093599928246902
87.183,0.0026921533816583877,-0.0026921533816583877
87.18400000000001,0.005113056171351343,0.005113056171351343
87.185,0.012175850073553523,0.012175850073553523
87.186,0.01665576070157135,0.01665576070157135
87.18700000000001,0.01728731706511028,0.01728731706511028
87.188,0.013770722908869095,0.013770722908869095
87.18900000000001,0.006892197952819596,0.006892197952819596
87.19000000000001,0.0016695754693834908,-0.0016695754693834908
87.191,0.00979768543377272,-0.00979768543377272
87.19200000000001,0.015518046379707303,-0.015518046379707303
87.19300000000001,0.01753475288657103,-0.01753475288657103
87.194,0.01556258653139779,-0.01556258653139779
87.19500000000001,0.010363449093964073,-0.010363449093964073
87.19600000000001,0.003484917663006247,-0.003484917663006247
87.197,0.0032113559163853703,0.0032113559163853703
87.19800000000001,0.008084059919563485,0.008084059919563485
87.19900000000001,0.01014998705425011,0.01014998705425011
87.2,0.009302880317524407,0.009302880317524407
87.20100000000001,0.006263692161911302,0.006263692161911302
87.20200000000001,0.0022961067253928495,0.0022961067253928495
87.203,0.0012110282830576785,-0.0012110282830576785
87.20400000000001,0.003160720498062971,-0.003160720498062971
87.20500000000001,0.0030418968706140415,-0.0030418968706140415
87.206,0.0010257335713299226,-0.0010257335713299226
87.20700000000001,0.0021444053172330266,0.0021444053172330266
87.20800000000001,0.00541578741476479,0.00541578741476479
87.209,0.0077489232540495605,0.0077489232540495605
87.21000000000001,0.008400551525875447,0.008400551525875447
87.21100000000001,0.00709230079013375,0.00709230079013375
87.212,0.004034553308669443,0.004034553308669443
87.21300000000001,0.00017794448364272637,-0.00017794448364272637
87.21400000000001,0.004747921192218357,-0.004747921192218357
87.215,0.008871765807882247,-0.008871765807882247
87.21600000000001,0.011896997578928913,-0.011896997578928913
87.21700000000001,0.013412836783730486,-0.013412836783730486
87.218,0.013273709516612131,-0.013273709516612131
87.21900000000001,0.01157566357925656,-0.01157566357925656
87.22000000000001,0.008611761230282074,-0.008611761230282074
87.221,0.004825088655711559,-0.004825088655711559
87.22200000000001,0.0007634192466100067,-0.0007634192466100067
87.22300000000001,0.0029732855360425246,0.0029732855360425246
87.224,0.005805037013799362,0.005805037013799362
87.22500000000001,0.007268033772341793,0.007268033772341793
87.22600000000001,0.007122781611371711,0.007122781611371711
87.227,0.005444943098965764,0.005444943098965764
87.22800000000001,0.0026613725840443467,0.0026613725840443467
87.22900000000001,0.0004995832480201265,-0.0004995832480201265
87.23,0.0031523291719131098,-0.0031523291719131098
87.23100000000001,0.0044701541907194225,-0.0044701541907194225
87.23200000000001,0.003920674721280901,-0.003920674721280901
87.233,0.001451409814612916,-0.001451409814612916
87.23400000000001,0.002438800426706892,0.002438800426706892
87.23500000000001,0.006779320878880098,0.006779320878880098
87.236,0.01035180704276192,0.01035180704276192
87.23700000000001,0.012006744964078855,0.012006744964078855
87.238,0.010987156364157981,0.010987156364157981
87.239,0.007165437836832334,0.007165437836832334
87.24000000000001,0.0011194560696927284,0.0011194560696927284
87.241,0.005981801926138959,-0.005981801926138959
87.242,0.012657473915858135,-0.012657473915858135
87.24300000000001,0.01748410111847771,-0.01748410111847771
87.244,0.019452298988366815,-0.019452298988366815
87.245,0.018210987309009708,-0.018210987309009708
87.24600000000001,0.014132223379467887,-0.014132223379467887
87.247,0.008182600393780479,-0.008182600393780479
87.248,0.0016437734317641857,-0.0016437734317641857
87.24900000000001,0.004232503028704873,0.004232503028704873
87.25,0.008533387477590184,0.008533387477590184
87.251,0.010871707349462547,0.010871707349462547
87.25200000000001,0.011405026345537389,0.011405026345537389
87.253,0.010694782569564451,0.010694782569564451
87.254,0.009461779921571566,0.009461779921571566
87.25500000000001,0.008323098550308584,0.008323098550308584
87.256,0.007596134684148032,0.007596134684148032
87.257,0.0072287766664645365,0.0072287766664645365
87.25800000000001,0.006870172661000096,0.006870172661000096
87.259,0.006049096678669786,0.006049096678669786
87.26,0.004392044764851912,0.004392044764851912
87.26100000000001,0.0018019028384513385,0.0018019028384513385
87.262,0.0014665680918688813,-0.0014665680918688813
87.263,0.004861707168943446,-0.004861707168943446
87.26400000000001,0.007702490159584416,-0.007702490159584416
87.265,0.009401864470635608,-0.009401864470635608
87.266,0.009669347545574173,-0.009669347545574173
87.26700000000001,0.008622125970147667,-0.008622125970147667
87.268,0.006763329916457584,-0.006763329916457584
87.269,0.004829714293031269,-0.004829714293031269
87.27000000000001,0.0035545427156633475,-0.0035545427156633475
87.271,0.003420887843767916,-0.003420887843767916
87.272,0.004486140531201305,-0.004486140531201305
87.27300000000001,0.006338113777801863,-0.006338113777801863
87.274,0.008202832529064025,-0.008202832529064025
87.275,0.009176371114080576,-0.009176371114080576
87.27600000000001,0.008512872909999176,-0.008512872909999176
87.277,0.005880924417875325,-0.005880924417875325
87.278,0.0015073537566160256,-0.0015073537566160256
87.27900000000001,0.003840386959176733,0.003840386959176733
87.28,0.009034297227095705,0.009034297227095705
87.281,0.012880327330208344,0.012880327330208344
87.28200000000001,0.014443887966864117,0.014443887966864117
87.283,0.01331219762025973,0.01331219762025973
87.284,0.009716645664998953,0.009716645664998953
87.28500000000001,0.004478759903469112,0.004478759903469112
87.286,0.001205246966390018,-0.001205246966390018
87.287,0.006079461488092005,-0.006079461488092005
87.28800000000001,0.009152533329154045,-0.009152533329154045
87.289,0.009939578208651283,-0.009939578208651283
87.29,0.008555836013386378,-0.008555836013386378
87.29100000000001,0.005641018027624619,-0.005641018027624619
87.292,0.0021433428770021297,-0.0021433428770021297
87.293,0.0009676617754114,0.0009676617754114
87.29400000000001,0.0029723585066934797,0.0029723585066934797
87.295,0.0035776991854435604,0.0035776991854435604
87.296,0.0029530976996195507,0.0029530976996195507
87.29700000000001,0.0016241292599501946,0.0016241292599501946
87.298,0.00026613938686626177,0.00026613938686626177
87.299,0.000531727030684954,-0.000531727030684954
87.30000000000001,0.00045644670955723675,-0.00045644670955723675
87.301,0.00044181630127437555,0.00044181630127437555
87.302,0.0017865590549474223,0.0017865590549474223
87.30300000000001,0.0030162743795601283,0.0030162743795601283
87.304,0.0035788290482407187,0.0035788290482407187
87.305,0.0031137835860343328,0.0031137835860343328
87.30600000000001,0.001565669486878297,0.001565669486878297
87.307,0.0008027881248148325,-0.0008027881248148325
87.308,0.0034943321414557674,-0.0034943321414557674
87.30900000000001,0.005924014424657263,-0.005924014424657263
87.31,0.007578549458118517,-0.007578549458118517
87.311,0.008138796096314493,-0.008138796096314493
87.31200000000001,0.007533564572319248,-0.007533564572319248
87.313,0.005919303894003697,-0.005919303894003697
87.31400000000001,0.0036052497279340295,-0.0036052497279340295
87.31500000000001,0.0009584283120644465,-0.0009584283120644465
87.316,0.0016769042428935454,0.0016769042428935454
87.31700000000001,0.004023781991758292,0.004023781991758292
87.31800000000001,0.005879013831953663,0.005879013831953663
87.319,0.007097096481779562,0.007097096481779562
87.32000000000001,0.0075748892438180435,0.0075748892438180435
87.32100000000001,0.007255619904350242,0.007255619904350242
87.322,0.006155988671961554,0.006155988671961554
87.32300000000001,0.004402470290465693,0.004402470290465693
87.32400000000001,0.002251138804839695,0.002251138804839695
87.325,6.602073846384869e-05,6.602073846384869e-05
87.32600000000001,0.0017545349010911306,-0.0017545349010911306
87.32700000000001,0.0028905820488988824,-0.0028905820488988824
87.328,0.003216754582054675,-0.003216754582054675
87.32900000000001,0.002874718377295055,-0.002874718377295055
87.33000000000001,0.002261593396135469,-0.002261593396135469
87.331,0.0019196497251365136,-0.0019196497251365136
87.33200000000001,0.0023494206981243865,-0.0023494206981243865
87.33300000000001,0.0038031861373303143,-0.0038031861373303143
87.334,0.006134180544954876,-0.006134180544954876
87.33500000000001,0.008768973159334415,-0.008768973159334415
87.33600000000001,0.010835288689052452,-0.010835288689052452
87.337,0.0114245551541409,-0.0114245551541409
87.33800000000001,0.009915208041826409,-0.009915208041826409
87.33900000000001,0.006249147839198615,-0.006249147839198615
87.34,0.0010548115880936227,-0.0010548115880936227
87.34100000000001,0.004449834513982575,0.004449834513982575
87.34200000000001,0.008772062617122718,0.008772062617122718
87.343,0.010597698058840895,0.010597698058840895
87.34400000000001,0.009245453990155583,0.009245453990155583
87.34500000000001,0.004967683386368176,0.004967683386368176
87.346,0.0010224737731756475,-0.0010224737731756475
87.34700000000001,0.006838005105243852,-0.006838005105243852
87.34800000000001,0.010457876939687692,-0.010457876939687692
87.349,0.010367781183306274,-0.010367781183306274
87.35000000000001,0.006101379403493176,-0.006101379403493176
87.35100000000001,0.0015041043033247683,0.0015041043033247683
87.352,0.010446805712276184,0.010446805712276184
87.35300000000001,0.018082999886833567,0.018082999886833567
87.35400000000001,0.021897796511877052,0.021897796511877052
87.355,0.02029769268481507,0.02029769268481507
87.35600000000001,0.01317591506924216,0.01317591506924216
87.35700000000001,0.002057343762828132,0.002057343762828132
87.358,0.01024892933414411,-0.01024892933414411
87.35900000000001,0.020410290594079162,-0.020410290594079162
87.36000000000001,0.02553166477456957,-0.02553166477456957
87.361,0.024031311294172485,-0.024031311294172485
87.36200000000001,0.01615984673867081,-0.01615984673867081
87.363,0.00399090336979318,-0.00399090336979318
87.364,0.00913110905432974,0.00913110905432974
87.36500000000001,0.01953432918999803,0.01953432918999803
87.366,0.024278586493552617,0.024278586493552617
87.367,0.022014298205782726,0.022014298205782726
87.36800000000001,0.013381308511767963,0.013381308511767963
87.369,0.0008250119407183501,0.0008250119407183501
87.37,0.012116778761273688,-0.012116778761273688
87.37100000000001,0.02184233341734592,-0.02184233341734592
87.372,0.025721289968142064,-0.025721289968142064
87.373,0.022828618411709304,-0.022828618411709304
87.37400000000001,0.014164237918953953,-0.014164237918953953
87.375,0.002304575574608625,-0.002304575574608625
87.376,0.00939447211224276,0.00939447211224276
87.37700000000001,0.01779086721924269,0.01779086721924269
87.378,0.020841908224689464,0.020841908224689464
87.379,0.018121288071072772,0.018121288071072772
87.38000000000001,0.010830039644181201,0.010830039644181201
87.381,0.00132498480072785,0.00132498480072785
87.382,0.007663999390089839,-0.007663999390089839
87.38300000000001,0.013868743381660893,-0.013868743381660893
87.384,0.016108148530147512,-0.016108148530147512
87.385,0.014523439434305388,-0.014523439434305388
87.38600000000001,0.010377083387048711,-0.010377083387048711
87.387,0.005511838783481846,-0.005511838783481846
87.388,0.0016706840734467144,-0.0016706840734467144
87.38900000000001,8.806646786258969e-05,8.806646786258969e-05
87.39,0.00030870823342830857,-0.00030870823342830857
87.391,0.0020163345531802467,-0.0020163345531802467
87.39200000000001,0.00366272088005931,-0.00366272088005931
87.393,0.00390907373123176,-0.00390907373123176
87.394,0.001976699097584874,-0.001976699097584874
87.39500000000001,0.00204464123485494,0.00204464123485494
87.396,0.007209454104986682,0.007209454104986682
87.397,0.01203865920629112,0.01203865920629112
87.39800000000001,0.015032552474582624,0.015032552474582624
87.399,0.015192508800273652,0.015192508800273652
87.4,0.012369742167682333,0.012369742167682333
87.40100000000001,0.007322011291898195,0.007322011291898195
87.402,0.0014612357874709393,0.0014612357874709393
87.403,0.0036188930343790844,-0.0036188930343790844
87.40400000000001,0.006672090293657473,-0.006672090293657473
87.405,0.007204567071918748,-0.007204567071918748
87.406,0.005618966807214068,-0.005618966807214068
87.40700000000001,0.003049661723675449,-0.003049661723675449
87.408,0.0009465487087868468,-0.0009465487087868468
87.409,0.000548990368597207,-0.000548990368597207
87.41000000000001,0.0024280804506239214,-0.0024280804506239214
87.411,0.0062524873482460224,-0.0062524873482460224
87.412,0.01085904922126559,-0.01085904922126559
87.41300000000001,0.014608985749036409,-0.014608985749036409
87.414,0.0159170790538084,-0.0159170790538084
87.415,0.013784653568344941,-0.013784653568344941
87.41600000000001,0.00816531731958193,-0.00816531731958193
87.417,4.499259070410069e-05,-4.499259070410069e-05
87.418,0.00879279034268573,0.00879279034268573
87.41900000000001,0.01624783462643682,0.01624783462643682
87.42,0.02048693084464342,0.02048693084464342
87.421,0.020456892677192,0.020456892677192
87.42200000000001,0.01617704637815738,0.01617704637815738
87.423,0.008729215355762139,0.008729215355762139
87.424,4.6187426760437315e-05,-4.6187426760437315e-05
87.42500000000001,0.008054156077622837,-0.008054156077622837
87.426,0.013500766999487612,-0.013500766999487612
87.427,0.015343013630542001,-0.015343013630542001
87.42800000000001,0.013512321755966115,-0.013512321755966115
87.429,0.008861394959192737,-0.008861394959192737
87.43,0.002865127049589671,-0.002865127049589671
87.43100000000001,0.0028257671057219684,0.0028257671057219684
87.432,0.006843925295085771,0.006843925295085771
87.433,0.008447591898529363,0.008447591898529363
87.43400000000001,0.007657808313325574,0.007657808313325574
87.435,0.005166680573844293,0.005166680573844293
87.436,0.0020600830128671118,0.0020600830128671118
87.43700000000001,0.0005510971473722399,-0.0005510971473722399
87.438,0.0018763529867669088,-0.0018763529867669088
87.43900000000001,0.0016663349227926088,-0.0016663349227926088
87.44000000000001,0.00024993580556295235,-0.00024993580556295235
87.441,0.0016140420838309424,0.0016140420838309424
87.44200000000001,0.003016900253002997,0.003016900253002997
87.44300000000001,0.0032202145440142285,0.0032202145440142285
87.444,0.0019147903522388635,0.0019147903522388635
87.44500000000001,0.0006627536299817331,-0.0006627536299817331
87.44600000000001,0.0037929683148592752,-0.0037929683148592752
87.447,0.006498475979677222,-0.006498475979677222
87.44800000000001,0.0078632344421772,-0.0078632344421772
87.44900000000001,0.007348086862998027,-0.007348086862998027
87.45,0.005002532437023888,-0.005002532437023888
87.45100000000001,0.0015004538492412872,-0.0015004538492412872
87.45200000000001,0.0020220326640437527,0.0020220326640437527
87.453,0.004289234417170933,0.004289234417170933
87.45400000000001,0.004280638882066401,0.004280638882066401
87.45500000000001,0.001581884437916975,0.001581884437916975
87.456,0.0034184789749222688,-0.0034184789749222688
87.45700000000001,0.00955814534587656,-0.00955814534587656
87.45800000000001,0.015165260626386073,-0.015165260626386073
87.459,0.01849742444926004,-0.01849742444926004
87.46000000000001,0.018239161796020236,-0.018239161796020236
87.46100000000001,0.013916335184744166,-0.013916335184744166
87.462,0.006101107432138154,-0.006101107432138154
87.46300000000001,0.0036654190981736815,0.0036654190981736815
87.46400000000001,0.01322749221903313,0.01322749221903313
87.465,0.020359451499837363,0.020359451499837363
87.46600000000001,0.023354669025407185,0.023354669025407185
87.46700000000001,0.021493033087221614,0.021493033087221614
87.468,0.015250132577635371,0.015250132577635371
87.46900000000001,0.006181883238081614,0.006181883238081614
87.47000000000001,0.003488853147244238,-0.003488853147244238
87.471,0.011469329943048326,-0.011469329943048326
87.47200000000001,0.016007460020133705,-0.016007460020133705
87.47300000000001,0.01633974296012966,-0.01633974296012966
87.474,0.01284774181779785,-0.01284774181779785
87.47500000000001,0.00688144149885104,-0.00688144149885104
87.47600000000001,0.0003087073653475897,-0.0003087073653475897
87.477,0.005066559634360699,0.005066559634360699
87.47800000000001,0.008035599120229655,0.008035599120229655
87.47900000000001,0.008301074544376586,0.008301074544376586
87.48,0.006484244551149131,0.006484244551149131
87.48100000000001,0.0038292740131513816,0.0038292740131513816
87.48200000000001,0.0017097677536036212,0.0017097677536036212
87.483,0.0011075754934611022,0.0011075754934611022
87.48400000000001,0.002243208275305514,0.002243208275305514
87.48500000000001,0.004486862441412583,0.004486862441412583
87.486,0.006584708689913532,0.006584708689913532
87.48700000000001,0.007127343898343756,0.007127343898343756
87.488,0.005101877692999066,0.005101877692999066
87.489,0.0003352317537605592,0.0003352317537605592
87.49000000000001,0.006333377267759233,-0.006333377267759233
87.491,0.013226493058652746,-0.013226493058652746
87.492,0.01830979221695672,-0.01830979221695672
87.49300000000001,0.019835582586161034,-0.019835582586161034
87.494,0.01694192913053945,-0.01694192913053945
87.495,0.010006114226972304,-0.010006114226972304
87.49600000000001,0.000623234476534675,-0.000623234476534675
87.497,0.008802048133955265,0.008802048133955265
87.498,0.015737503108463193,0.015737503108463193
87.49900000000001,0.0182738260154472,0.0182738260154472
87.5,0.01571009540035924,0.01571009540035924
87.501,0.00878692799580984,0.00878692799580984
87.50200000000001,0.0005125756796462681,-0.0005125756796462681
87.503,0.009539195414559418,-0.009539195414559418
87.504,0.01575718856500263,-0.01575718856500263
87.50500000000001,0.01748805155026692,-0.01748805155026692
87.506,0.014389925989044651,-0.014389925989044651
87.507,0.0075272380929720115,-0.0075272380929720115
87.50800000000001,0.0009856990272717073,0.0009856990272717073
87.509,0.00864973832088916,0.00864973832088916
87.51,0.013342050811122424,0.013342050811122424
87.51100000000001,0.013934517428983302,0.013934517428983302
87.512,0.010580924907083893,0.010580924907083893
87.513,0.004594480434410712,0.004594480434410712
87.51400000000001,0.0020298582260326868,-0.0020298582260326868
87.515,0.00728139181051207,-0.00728139181051207
87.516,0.009765842604296963,-0.009765842604296963
87.51700000000001,0.009100268034449478,-0.009100268034449478
87.518,0.005952575567383133,-0.005952575567383133
87.519,0.0017295961027581218,-0.0017295961027581218
87.52000000000001,0.0019648432550356124,0.0019648432550356124
87.521,0.003906858459006671,0.003906858459006671
87.522,0.00366382340790529,0.00366382340790529
87.52300000000001,0.0017023699839042203,0.0017023699839042203
87.524,0.0008356596201972291,-0.0008356596201972291
87.525,0.0026010563911581736,-0.0026010563911581736
87.52600000000001,0.002575957750458613,-0.002575957750458613
87.527,0.0004870577139956297,-0.0004870577139956297
87.528,0.0030575962520628815,0.0030575962520628815
87.52900000000001,0.0067608362993852094,0.0067608362993852094
87.53,0.009093367452141647,0.009093367452141647
87.531,0.008856373266064735,0.008856373266064735
87.53200000000001,0.005650728512365938,0.005650728512365938
87.533,8.306283655415998e-05,8.306283655415998e-05
87.534,0.00637241296138747,-0.00637241296138747
87.53500000000001,0.011819492539148161,-0.011819492539148161
87.536,0.014549337846787563,-0.014549337846787563
87.537,0.013611022068347817,-0.013611022068347817
87.53800000000001,0.009150080319574542,-0.009150080319574542
87.539,0.002397024935162913,-0.002397024935162913
87.54,0.0046964588981675045,0.0046964588981675045
87.54100000000001,0.010058486237758832,0.010058486237758832
87.542,0.012140471252476614,0.012140471252476614
87.543,0.010393802485139875,0.010393802485139875
87.54400000000001,0.0054254005627779,0.0054254005627779
87.545,0.0012158625873375207,-0.0012158625873375207
87.546,0.007548153623381997,-0.007548153623381997
87.54700000000001,0.011790925696768872,-0.011790925696768872
87.548,0.01291525614093844,-0.01291525614093844
87.549,0.010932066417785356,-0.010932066417785356
87.55000000000001,0.006829915431829595,-0.006829915431829595
87.551,0.0021921451215618473,-0.0021921451215618473
87.552,0.0013704824200659622,0.0013704824200659622
87.55300000000001,0.0027764162328520275,0.0027764162328520275
87.554,0.0018313393358872594,0.0018313393358872594
87.555,0.0007298875602274763,-0.0007298875602274763
87.55600000000001,0.003526002226512885,-0.003526002226512885
87.557,0.005035454533584962,-0.005035454533584962
87.558,0.004150350028143916,-0.004150350028143916
87.55900000000001,0.0005889058130188553,-0.0005889058130188553
87.56,0.00497271818781249,0.00497271818781249
87.561,0.011092159012433362,0.011092159012433362
87.56200000000001,0.016010103251186347,0.016010103251186347
87.563,0.01820608467606561,0.01820608467606561
87.56400000000001,0.016877102686989692,0.016877102686989692
87.56500000000001,0.012184607406038928,0.012184607406038928
87.566,0.005195407415475042,0.005195407415475042
87.56700000000001,0.002455355863928046,-0.002455355863928046
87.56800000000001,0.009060949685957253,-0.009060949685957253
87.569,0.01333365487352624,-0.01333365487352624
87.57000000000001,0.014732873775768518,-0.014732873775768518
87.57100000000001,0.013535829861784318,-0.013535829861784318
87.572,0.01064661699386872,-0.01064661699386872
87.57300000000001,0.007227221889471974,-0.007227221889471974
87.57400000000001,0.004289171945740184,-0.004289171945740184
87.575,0.0023889341885726403,-0.0023889341885726403
87.57600000000001,0.0015245177256302147,-0.0015245177256302147
87.57700000000001,0.0012528247987788849,-0.0012528247987788849
87.578,0.0009658648392835615,-0.0009658648392835615
87.57900000000001,0.00020816326851508815,-0.00020816326851508815
87.58000000000001,0.0010930936554601606,0.0010930936554601606
87.581,0.0025765607491455116,0.0025765607491455116
87.58200000000001,0.0035946514840547172,0.0035946514840547172
87.58300000000001,0.0035036769987363665,0.0035036769987363665
87.584,0.0019822948511135333,0.0019822948511135333
87.58500000000001,0.0007503083354757883,-0.0007503083354757883
87.58600000000001,0.003912013594782081,-0.003912013594782081
87.587,0.006357285066998798,-0.006357285066998798
87.58800000000001,0.006943494176259895,-0.006943494176259895
87.58900000000001,0.00494466039779034,-0.00494466039779034
87.59,0.0003690367590878613,-0.0003690367590878613
87.59100000000001,0.0059377640961810986,0.0059377640961810986
87.59200000000001,0.012455401977721856,0.012455401977721856
87.593,0.017381878989637466,0.017381878989637466
87.59400000000001,0.019144454970343724,0.019144454970343724
87.59500000000001,0.016873827394293217,0.016873827394293217
87.596,0.010694453261787027,0.010694453261787027
87.59700000000001,0.0017385254237418473,0.0017385254237418473
87.59800000000001,0.008124847099958777,-0.008124847099958777
87.599,0.01676742855224923,-0.01676742855224923
87.60000000000001,0.022347698885314553,-0.022347698885314553
87.60100000000001,0.023768619435517977,-0.023768619435517977
87.602,0.020921955695691052,-0.020921955695691052
87.60300000000001,0.014661186450808732,-0.014661186450808732
87.60400000000001,0.0065265356707642904,-0.0065265356707642904
87.605,0.0016846363222576541,0.0016846363222576541
87.60600000000001,0.008371722517999811,0.008371722517999811
87.60700000000001,0.012483319465444287,0.012483319465444287
87.608,0.013684247747634616,0.013684247747634616
87.60900000000001,0.012315869014235105,0.012315869014235105
87.61000000000001,0.009190653019613075,0.009190653019613075
87.611,0.00530427325278545,0.00530427325278545
87.61200000000001,0.0015598041807709645,0.0015598041807709645
87.613,0.0014210162762025005,-0.0014210162762025005
87.614,0.0033646956683749344,-0.0033646956683749344
87.61500000000001,0.004301055298744983,-0.004301055298744983
87.616,0.0044500423974039175,-0.0044500423974039175
87.617,0.004096368730494772,-0.004096368730494772
87.61800000000001,0.0034982051392374574,-0.0034982051392374574
87.619,0.002850969002070615,-0.002850969002070615
87.62,0.00229860058500062,-0.00229860058500062
87.62100000000001,0.0019645036653399344,-0.0019645036653399344
87.622,0.0019698590042985776,-0.0019698590042985776
87.623,0.0024186271468421327,-0.0024186271468421327
87.62400000000001,0.0033499125440197403,-0.0033499125440197403
87.625,0.004679399075062702,-0.004679399075062702
87.626,0.0061627065993160235,-0.0061627065993160235
87.62700000000001,0.007409523090405683,-0.007409523090405683
87.628,0.007959376932468253,-0.007959376932468253
87.629,0.0074049217111849044,-0.0074049217111849044
87.63000000000001,0.005526648142716571,-0.005526648142716571
87.631,0.002393129506697276,-0.002393129506697276
87.632,0.0016121426299480048,0.0016121426299480048
87.63300000000001,0.005854300862456594,0.005854300862456594
87.634,0.009588484102775923,0.009588484102775923
87.635,0.012139967292084346,0.012139967292084346
87.63600000000001,0.013069940389025737,0.013069940389025737
87.637,0.012277539831234162,0.012277539831234162
87.638,0.010008981567365504,0.010008981567365504
87.63900000000001,0.006774393169373751,0.006774393169373751
87.64,0.003201857699943025,0.003201857699943025
87.641,0.00012361872063702809,-0.00012361872063702809
87.64200000000001,0.0027869280695672215,-0.0027869280695672215
87.643,0.004601144808236869,-0.004601144808236869
87.644,0.005588554347189172,-0.005588554347189172
87.64500000000001,0.005902528280375072,-0.005902528280375072
87.646,0.005726904608134108,-0.005726904608134108
87.647,0.005193682788989311,-0.005193682788989311
87.64800000000001,0.004348881161883783,-0.004348881161883783
87.649,0.003175099028201982,-0.003175099028201982
87.65,0.0016559972755069948,-0.0016559972755069948
87.65100000000001,0.00014872267033731135,0.00014872267033731135
87.652,0.0020532699200521616,0.0020532699200521616
87.653,0.0037463660194295596,0.0037463660194295596
87.65400000000001,0.004848766814089409,0.004848766814089409
87.655,0.0050121798655742775,0.0050121798655742775
87.656,0.004027932782526178,0.004027932782526178
87.65700000000001,0.0019089985007568083,0.0019089985007568083
87.658,0.0010829843421455321,-0.0010829843421455321
87.659,0.00447644841790924,-0.00447644841790924
87.66000000000001,0.007684413188317533,-0.007684413188317533
87.661,0.010128172604357454,-0.010128172604357454
87.662,0.011356387950046511,-0.011356387950046511
87.66300000000001,0.01112981169179144,-0.01112981169179144
87.664,0.009454665875707511,-0.009454665875707511
87.665,0.006564063134028479,-0.006564063134028479
87.66600000000001,0.002860808435143687,-0.002860808435143687
87.667,0.0011579884507719848,0.0011579884507719848
87.668,0.004975190693974528,0.004975190693974528
87.66900000000001,0.008114891816814091,0.008114891816814091
87.67,0.010188165842024517,0.010188165842024517
87.671,0.010927712053938892,0.010927712053938892
87.67200000000001,0.010217186107374149,0.010217186107374149
87.673,0.008116749846683563,0.008116749846683563
87.674,0.004879118542199252,0.004879118542199252
87.67500000000001,0.0009443937366858299,0.0009443937366858299
87.676,0.003098793555118967,-0.003098793555118967
87.677,0.006591983087945063,-0.006591983087945063
87.67800000000001,0.008919409133231818,-0.008919409133231818
87.679,0.009634361123684756,-0.009634361123684756
87.68,0.00856907888412694,-0.00856907888412694
87.68100000000001,0.0058959588065577145,-0.0058959588065577145
87.682,0.002116431481817956,-0.002116431481817956
87.683,0.0020285857053107845,0.0020285857053107845
87.68400000000001,0.005711157941264529,0.005711157941264529
87.685,0.008197266121129603,0.008197266121129603
87.686,0.009011666205493502,0.009011666205493502
87.68700000000001,0.008044527558072499,0.008044527558072499
87.688,0.005572234200495851,0.005572234200495851
87.68900000000001,0.002187212709667027,0.002187212709667027
87.69000000000001,0.0013445964384401993,-0.0013445964384401993
87.691,0.004261934174958575,-0.004261934174958575
87.69200000000001,0.005977984857770737,-0.005977984857770737
87.69300000000001,0.006202358903674859,-0.006202358903674859
87.694,0.00499060508033358,-0.00499060508033358
87.69500000000001,0.0027160826917414973,-0.0027160826917414973
87.69600000000001,2.2547413005559978e-05,2.2547413005559978e-05
87.697,0.002532490623283059,0.002532490623283059
87.69800000000001,0.004166761568603982,0.004166761568603982
87.69900000000001,0.004446543696920138,0.004446543696920138
87.7,0.0031479282169214634,0.0031479282169214634
87.70100000000001,0.00034437814412252896,0.00034437814412252896
87.70200000000001,0.003596306464374196,-0.003596306464374196
87.703,0.00805748397229753,-0.00805748397229753
87.70400000000001,0.012256723199729596,-0.012256723199729596
87.70500000000001,0.015359999629135729,-0.015359999629135729
87.706,0.016617451236180476,-0.016617451236180476
87.70700000000001,0.015505534080601466,-0.015505534080601466
87.70800000000001,0.01185366104879209,-0.01185366104879209
87.709,0.005928412376172144,-0.005928412376172144
87.71000000000001,0.001551274935899785,0.001551274935899785
87.71100000000001,0.009486319183493644,0.009486319183493644
87.712,0.016559190082020232,0.016559190082020232
87.71300000000001,0.021465645583950973,0.021465645583950973
87.71400000000001,0.02317577201390989,0.02317577201390989
87.715,0.02116909534472283,0.02116909534472283
87.71600000000001,0.015586413813978838,0.015586413813978838
87.71700000000001,0.007253849281067722,0.007253849281067722
87.718,0.0024391781296990685,-0.0024391781296990685
87.71900000000001,0.011792518262979763,-0.011792518262979763
87.72000000000001,0.01912990899914263,-0.01912990899914263
87.721,0.02314398787608119,-0.02314398787608119
87.72200000000001,0.023173461507091802,-0.023173461507091802
87.72300000000001,0.01934681118634575,-0.01934681118634575
87.724,0.012556269572286215,-0.012556269572286215
87.72500000000001,0.004264935060073654,-0.004264935060073654
87.72600000000001,0.0038108690156779925,0.0038108690156779925
87.727,0.01007233895634836,0.01007233895634836
87.72800000000001,0.013377905876309791,0.013377905876309791
87.72900000000001,0.013275408133446865,0.013275408133446865
87.73,0.010075928105508405,0.010075928105508405
87.73100000000001,0.004755885392790545,0.004755885392790545
87.73200000000001,0.001286133716197825,-0.001286133716197825
87.733,0.006558500303396398,-0.006558500303396398
87.73400000000001,0.00981416020050485,-0.00981416020050485
87.73500000000001,0.010319726613489224,-0.010319726613489224
87.736,0.00799744702678819,-0.00799744702678819
87.73700000000001,0.003412973374995137,-0.003412973374995137
87.738,0.0023813295358615033,0.0023813295358615033
87.739,0.008104603423995334,0.008104603423995334
87.74000000000001,0.01254251914540432,0.01254251914540432
87.741,0.014808875387448583,0.014808875387448583
87.742,0.01451515858935891,0.01451515858935891
87.74300000000001,0.011814791104799195,0.011814791104799195
87.744,0.007321134359240895,0.007321134359240895
87.745,0.00192927750377037,0.00192927750377037
87.74600000000001,0.0034066404660236522,-0.0034066404660236522
87.747,0.007881668182559679,-0.007881668182559679
87.748,0.01098366750667695,-0.01098366750667695
87.74900000000001,0.012543776549113251,-0.012543776549113251
87.75,0.01269314262278222,-0.01269314262278222
87.751,0.011751516777789897,-0.011751516777789897
87.75200000000001,0.010090160111124616,-0.010090160111124616
87.753,0.008014514892027763,-0.008014514892027763
87.754,0.005700975783302236,-0.005700975783302236
87.75500000000001,0.0032009519927366165,-0.0032009519927366165
87.756,0.0005013930875652343,-0.0005013930875652343
87.757,0.002388024720857428,0.002388024720857428
87.75800000000001,0.005358684763260052,0.005358684763260052
87.759,0.008169821580703096,0.008169821580703096
87.76,0.010473611640299758,0.010473611640299758
87.76100000000001,0.011892050894652714,0.011892050894652714
87.762,0.012119991115405116,0.012119991115405116
87.763,0.011019011398642755,0.011019011398642755
87.76400000000001,0.008669852958663935,0.008669852958663935
87.765,0.005365674919745086,0.005365674919745086
87.766,0.0015489786980816772,0.0015489786980816772
87.76700000000001,0.0022859026575339568,-0.0022859026575339568
87.768,0.005692334361939014,-0.005692334361939014
87.769,0.008342282704504635,-0.008342282704504635
87.77000000000001,0.010051081499962084,-0.010051081499962084
87.771,0.010757747512640303,-0.010757747512640303
87.772,0.010480065613593098,-0.010480065613593098
87.77300000000001,0.009272389870711625,-0.009272389870711625
87.774,0.0072102934673004505,-0.0072102934673004505
87.775,0.004411167851994093,-0.004411167851994093
87.77600000000001,0.0010796908311272663,-0.0010796908311272663
87.777,0.002449628232376515,0.002449628232376515
87.778,0.005706053329026176,0.005706053329026176
87.77900000000001,0.008136025531782425,0.008136025531782425
87.78,0.009217625171914831,0.009217625171914831
87.781,0.008609946411410179,0.008609946411410179
87.78200000000001,0.006289599229037346,0.006289599229037346
87.783,0.0026204436117930863,0.0026204436117930863
87.784,0.0016831527305828456,-0.0016831527305828456
87.78500000000001,0.005707377914015249,-0.005707377914015249
87.786,0.008572433532277723,-0.008572433532277723
87.787,0.009682701777904826,-0.009682701777904826
87.78800000000001,0.008913423359031948,-0.008913423359031948
87.789,0.006665932134253591,-0.006665932134253591
87.79,0.0037609704621536988,-0.0037609704621536988
87.79100000000001,0.0011914944305183002,-0.0011914944305183002
87.792,0.00019432046917011402,0.00019432046917011402
87.793,2.0033373496492577e-05,-2.0033373496492577e-05
87.79400000000001,0.001659810239317011,-0.001659810239317011
87.795,0.003987854286806092,-0.003987854286806092
87.796,0.005923714848455546,-0.005923714848455546
87.79700000000001,0.006391282891186729,-0.006391282891186729
87.798,0.004686843987065683,-0.004686843987065683
87.799,0.0007471206996867506,-0.0007471206996867506
87.80000000000001,0.004775511823964984,0.004775511823964984
87.801,0.010663497029434485,0.010663497029434485
87.802,0.015469871043329695,0.015469871043329695
87.80300000000001,0.017936812954018642,0.017936812954018642
87.804,0.017364856827172967,0.017364856827172967
87.805,0.013814579881319351,0.013814579881319351
87.80600000000001,0.008076339474817444,0.008076339474817444
87.807,0.0014197188470611475,0.0014197188470611475
87.808,0.004792852175520549,-0.004792852175520549
87.80900000000001,0.009499314659358061,-0.009499314659358061
87.81,0.012208470239648146,-0.012208470239648146
87.811,0.013062162052347033,-0.013062162052347033
87.81200000000001,0.012677172344697741,-0.012677172344697741
87.813,0.01183252542384342,-0.01183252542384342
87.81400000000001,0.011122227905118976,-0.011122227905118976
87.81500000000001,0.010704959755890983,-0.010704959755890983
87.816,0.0102462252338077,-0.0102462252338077
87.81700000000001,0.009077217833608051,-0.009077217833608051
87.81800000000001,0.0065132330544173085,-0.0065132330544173085
87.819,0.002212139262410842,-0.002212139262410842
87.82000000000001,0.0035667290611074765,0.0035667290611074765
87.82100000000001,0.00991235517261863,0.00991235517261863
87.822,0.015457851112339866,0.015457851112339866
87.82300000000001,0.01877120138604126,0.01877120138604126
87.82400000000001,0.018815918424508794,0.018815918424508794
87.825,0.015324152741052198,0.015324152741052198
87.82600000000001,0.008946887389860048,0.008946887389860048
87.82700000000001,0.0011165607742829517,0.0011165607742829517
87.828,0.006346428431260601,-0.006346428431260601
87.82900000000001,0.011763194921660688,-0.011763194921660688
87.83000000000001,0.014091521344712433,-0.014091521344712433
87.831,0.013223208285813245,-0.013223208285813245
87.83200000000001,0.009982973536056514,-0.009982973536056514
87.83300000000001,0.005826724088887123,-0.005826724088887123
87.834,0.0023380019187764643,-0.0023380019187764643
87.83500000000001,0.0006903237349381005,-0.0006903237349381005
87.83600000000001,0.0012559407869805618,-0.0012559407869805618
87.837,0.0034931618335932993,-0.0034931618335932993
87.83800000000001,0.0061506981236634575,-0.0061506981236634575
87.83900000000001,0.007720092809487904,-0.007720092809487904
87.84,0.006982732263693647,-0.006982732263693647
87.84100000000001,0.0034651572524145215,-0.0034651572524145215
87.84200000000001,0.0023532379238778546,0.0023532379238778546
87.843,0.009152710028057941,0.009152710028057941
87.84400000000001,0.015170507335855205,0.015170507335855205
87.84500000000001,0.01875179693676932,0.01875179693676932
87.846,0.01887164924162147,0.01887164924162147
87.84700000000001,0.015456054563742232,0.015456054563742232
87.84800000000001,0.009398255730255869,0.009398255730255869
87.849,0.0022691342337452843,0.0022691342337452843
87.85000000000001,0.004178099494706148,-0.004178099494706148
87.85100000000001,0.00854246708696339,-0.00854246708696339
87.852,0.0101736024091947,-0.0101736024091947
87.85300000000001,0.009308771428047062,-0.009308771428047062
87.85400000000001,0.0069145924250976565,-0.0069145924250976565
87.855,0.004299782318477515,-0.004299782318477515
87.85600000000001,0.002640098076617939,-0.002640098076617939
87.85700000000001,0.0025810548862857004,-0.0025810548862857004
87.858,0.0040508840690757835,-0.0040508840690757835
87.85900000000001,0.0063384716878785215,-0.0063384716878785215
87.86000000000001,0.008396777744009527,-0.008396777744009527
87.861,0.009254656439705978,-0.009254656439705978
87.86200000000001,0.008385700939075886,-0.008385700939075886
87.863,0.005902627698468645,-0.005902627698468645
87.864,0.002511493775892717,-0.002511493775892717
87.86500000000001,0.0007525106776619004,0.0007525106776619004
87.866,0.0029081532321779666,0.0029081532321779666
87.867,0.0033897253251469845,0.0033897253251469845
87.86800000000001,0.0022564720088843315,0.0022564720088843315
87.869,0.00017533206050480824,0.00017533206050480824
87.87,0.0018158879056883583,-0.0018158879056883583
87.87100000000001,0.0026798006410096316,-0.0026798006410096316
87.872,0.0017532892844769556,-0.0017532892844769556
87.873,0.0010075719222103928,0.0010075719222103928
87.87400000000001,0.004996339231782041,0.004996339231782041
87.875,0.009147831594379026,0.009147831594379026
87.876,0.012283988324128197,0.012283988324128197
87.87700000000001,0.013493133214292094,0.013493133214292094
87.878,0.012412873003527537,0.012412873003527537
87.879,0.009323449222619112,0.009323449222619112
87.88000000000001,0.005026652853875969,0.005026652853875969
87.881,0.0005606386632974167,0.0005606386632974167
87.882,0.0031435796375625202,-0.0031435796375625202
87.88300000000001,0.005541692962077784,-0.005541692962077784
87.884,0.006596921917026768,-0.006596921917026768
87.885,0.006707959854893296,-0.006707959854893296
87.88600000000001,0.006481326818599303,-0.006481326818599303
87.887,0.006441728305783369,-0.006441728305783369
87.888,0.006795027589205178,-0.006795027589205178
87.88900000000001,0.00733690047024396,-0.00733690047024396
87.89,0.007544228981065256,-0.007544228981065256
87.891,0.0068162463866925874,-0.0068162463866925874
87.89200000000001,0.004773832791109516,-0.004773832791109516
87.893,0.0014996080592007144,-0.0014996080592007144
87.894,0.0023816107763314854,0.0023816107763314854
87.89500000000001,0.005828104236147208,0.005828104236147208
87.896,0.007685258116036424,0.007685258116036424
87.897,0.00707466281072525,0.00707466281072525
87.89800000000001,0.0037381669517839358,0.0037381669517839358
87.899,0.0017862238587130921,-0.0017862238587130921
87.9,0.00823033132662723,-0.00823033132662723
87.90100000000001,0.013901188892307592,-0.013901188892307592
87.902,0.017144999916153626,-0.017144999916153626
87.903,0.016834047236845368,-0.016834047236845368
87.90400000000001,0.012727891721306341,-0.012727891721306341
87.905,0.00559373252431432,-0.00559373252431432
87.906,0.002959143395491811,0.002959143395491811
87.90700000000001,0.010890910966123329,0.010890910966123329
87.908,0.016275086723653024,0.016275086723653024
87.909,0.017820989608143455,0.017820989608143455
87.91000000000001,0.01522648149019399,0.01522648149019399
87.911,0.009261512371362971,0.009261512371362971
87.912,0.0015600907455339244,0.0015600907455339244
87.91300000000001,0.005819439437962171,-0.005819439437962171
87.914,0.010942417448820527,-0.010942417448820527
87.915,0.012503620246746892,-0.012503620246746892
87.91600000000001,0.010155814242996072,-0.010155814242996072
87.917,0.004578498836601558,-0.004578498836601558
87.918,0.0027228841592910943,0.0027228841592910943
87.91900000000001,0.009824655851548583,0.009824655851548583
87.92,0.014884845936683419,0.014884845936683419
87.921,0.016601942645159656,0.016601942645159656
87.92200000000001,0.014516660060319124,0.014516660060319124
87.923,0.009088075214515054,0.009088075214515054
87.924,0.0015377664915165316,0.0015377664915165316
87.92500000000001,0.006484374657535166,-0.006484374657535166
87.926,0.01331675381622008,-0.01331675381622008
87.927,0.017674587993031926,-0.017674587993031926
87.92800000000001,0.018914758265781612,-0.018914758265781612
87.929,0.017120111398565948,-0.017120111398565948
87.93,0.012997153437680457,-0.012997153437680457
87.93100000000001,0.007630095409472489,-0.007630095409472489
87.932,0.0021687295057192905,-0.0021687295057192905
87.933,0.002460627612619172,0.002460627612619172
87.93400000000001,0.0057448494182910925,0.0057448494182910925
87.935,0.007631187906176781,0.007631187906176781
87.936,0.008432204773421896,0.008432204773421896
87.93700000000001,0.008630222716229725,0.008630222716229725
87.938,0.008651049523250649,0.008651049523250649
87.93900000000001,0.008683393741056627,0.008683393741056627
87.94000000000001,0.008603931751385852,0.008603931751385852
87.941,0.008033161718205173,0.008033161718205173
87.94200000000001,0.00650416576011035,0.00650416576011035
87.94300000000001,0.0036880659410170524,0.0036880659410170524
87.944,0.00040176950613290046,-0.00040176950613290046
87.94500000000001,0.005302414795907395,-0.005302414795907395
87.94600000000001,0.010139831627638658,-0.010139831627638658
87.947,0.013817701574297828,-0.013817701574297828
87.94800000000001,0.015312429286016227,-0.015312429286016227
87.94900000000001,0.013991670940092677,-0.013991670940092677
87.95,0.009858464255900508,-0.009858464255900508
87.95100000000001,0.003637245812954131,-0.003637245812954131
87.95200000000001,0.0033406883632837382,0.0033406883632837382
87.953,0.009437361115747311,0.009437361115747311
87.95400000000001,0.013122163304182175,0.013122163304182175
87.95500000000001,0.013389062914981646,0.013389062914981646
87.956,0.010058062620601313,0.010058062620601313
87.95700000000001,0.0038686120616595755,0.0038686120616595755
87.95800000000001,0.003672220311758326,-0.003672220311758326
87.959,0.010655659459032286,-0.010655659459032286
87.96000000000001,0.015258228749962495,-0.015258228749962495
87.96100000000001,0.016219949550867377,-0.016219949550867377
87.962,0.013183270442194583,-0.013183270442194583
87.96300000000001,0.006798844418926794,-0.006798844418926794
87.96400000000001,0.0014321834304237043,0.0014321834304237043
87.965,0.00953742124491445,0.00953742124491445
87.96600000000001,0.0155717915432806,0.0155717915432806
87.96700000000001,0.01810208936414051,0.01810208936414051
87.968,0.016550672330573914,0.016550672330573914
87.96900000000001,0.011312743235644006,0.011312743235644006
87.97000000000001,0.003625174532370942,0.003625174532370942
87.971,0.004768197848746837,-0.004768197848746837
87.97200000000001,0.012058328334219512,-0.012058328334219512
87.97300000000001,0.016800725191119727,-0.016800725191119727
87.974,0.01822516918361524,-0.01822516918361524
87.97500000000001,0.016356560066784924,-0.016356560066784924
87.97600000000001,0.011932609767156687,-0.011932609767156687
87.977,0.00615774495352563,-0.00615774495352563
87.97800000000001,0.00037078577647703463,-0.00037078577647703463
87.97900000000001,0.004282074371478765,0.004282074371478765
87.98,0.007088874232049556,0.007088874232049556
87.98100000000001,0.007878721894313663,0.007878721894313663
87.98200000000001,0.00698405806667033,0.00698405806667033
87.983,0.005085382047523767,0.005085382047523767
87.98400000000001,0.0029905698252758544,0.0029905698252758544
87.98500000000001,0.0014097847528382818,0.0014097847528382818
87.986,0.0007801370334716263,0.0007801370334716263
87.98700000000001,0.0011760348900495044,0.0011760348900495044
87.988,0.002317753014109238,0.002317753014109238
87.989,0.0036680525978288396,0.0036680525978288396
87.99000000000001,0.004589018415918751,0.004589018415918751
87.991,0.004520851258052878,0.004520851258052878
87.992,0.0031416742324792833,0.0031416742324792833
87.99300000000001,0.00047198901925685736,0.00047198901925685736
87.994,0.003101668431548927,-0.003101668431548927
87.995,0.006893324420108144,-0.006893324420108144
87.99600000000001,0.010064691145154585,-0.010064691145154585
87.997,0.011823720525325902,-0.011823720525325902
87.998,0.011630026552508737,-0.011630026552508737
87.99900000000001,0.009355617342104518,-0.009355617342104518
88.0,0.005354509185214741,-0.005354509185214741
88.001,0.0004131739459133596,-0.0004131739459133596
88.00200000000001,0.004417263391310369,0.004417263391310369
88.003,0.008073203020818846,0.008073203020818846
88.004,0.009753525103906778,0.009753525103906778
88.00500000000001,0.009142489848318502,0.009142489848318502
88.006,0.006513167806605067,0.006513167806605067
88.007,0.0026724822756587258,0.0026724822756587258
88.00800000000001,0.001247789628325487,-0.001247789628325487
88.009,0.0041035559854668766,-0.0041035559854668766
88.01,0.005069119252551397,-0.005069119252551397
88.01100000000001,0.0038891243033091476,-0.0038891243033091476
88.012,0.0009722177247619822,-0.0009722177247619822
88.013,0.0027099197186154595,0.0027099197186154595
88.01400000000001,0.005897264835481205,0.005897264835481205
88.015,0.007414785179272024,0.007414785179272024
88.016,0.00653548174425381,0.00653548174425381
88.01700000000001,0.003222487895844533,0.003222487895844533
88.018,0.0018278699165900135,-0.0018278699165900135
88.019,0.007362013485483493,-0.007362013485483493
88.02000000000001,0.011917583272387452,-0.011917583272387452
88.021,0.014243819440112764,-0.014243819440112764
88.022,0.013668775595308163,-0.013668775595308163
88.02300000000001,0.010301983742076113,-0.010301983742076113
88.024,0.005009597169918226,-0.005009597169918226
88.025,0.0008323837896955933,0.0008323837896955933
88.02600000000001,0.005733641348877063,0.005733641348877063
88.027,0.008515273260230976,0.008515273260230976
88.028,0.008638270698972696,0.008638270698972696
88.02900000000001,0.006337702140486297,0.006337702140486297
88.03,0.002525714297817827,0.002525714297817827
88.031,0.0015026354313874659,-0.0015026354313874659
88.03200000000001,0.004467307605517244,-0.004467307605517244
88.033,0.00548209124675082,-0.00548209124675082
88.034,0.004300571768774681,-0.004300571768774681
88.03500000000001,0.0013596510858981557,-0.0013596510858981557
88.036,0.0023845648121032046,0.0023845648121032046
88.037,0.005769736608834233,0.005769736608834233
88.03800000000001,0.007786927648750262,0.007786927648750262
88.039,0.007874806646815977,0.007874806646815977
88.04,0.006061826239737764,0.006061826239737764
88.04100000000001,0.0029212563989273427,0.0029212563989273427
88.042,0.0006360046993435321,-0.0006360046993435321
88.043,0.003656744766720828,-0.003656744766720828
88.04400000000001,0.00543161279528502,-0.00543161279528502
88.045,0.005683844196742343,-0.005683844196742343
88.046,0.004608766988374992,-0.004608766988374992
88.04700000000001,0.0027632233467513134,-0.0027632233467513134
88.048,0.0008520743108926954,-0.0008520743108926954
88.049,0.0005112939128575388,0.0005112939128575388
88.05000000000001,0.0009907100246537009,0.0009907100246537009
88.051,0.0006028868075162501,0.0006028868075162501
88.052,0.00033284949168786536,-0.00033284949168786536
88.05300000000001,0.0013435440109675523,-0.0013435440109675523
88.054,0.0019918060478928646,-0.0019918060478928646
88.055,0.002036981666572328,-0.002036981666572328
88.05600000000001,0.0015139447815057734,-0.0015139447815057734
88.057,0.0007066349667574024,-0.0007066349667574024
88.058,3.102606797609906e-05,-3.102606797609906e-05
88.05900000000001,0.00012716243808277408,0.00012716243808277408
88.06,0.00043899522371809317,-0.00043899522371809317
88.061,0.001674796118509324,-0.001674796118509324
88.06200000000001,0.0032742831814638047,-0.0032742831814638047
88.063,0.004778517285354591,-0.004778517285354591
88.06400000000001,0.005726657886172466,-0.005726657886172466
88.06500000000001,0.005807881520115818,-0.005807881520115818
88.066,0.004963271496379118,-0.004963271496379118
88.06700000000001,0.003404775334643318,-0.003404775334643318
88.06800000000001,0.0015464961715606677,-0.0015464961715606677
88.069,0.00012772977467180442,0.00012772977467180442
88.07000000000001,0.0012166884206395473,0.0012166884206395473
88.07100000000001,0.001525320534000464,0.001525320534000464
88.072,0.001121418828813719,0.001121418828813719
88.07300000000001,0.0003096897258893919,0.0003096897258893919
88.07400000000001,0.0004665843793543139,-0.0004665843793543139
88.075,0.000764547722120472,-0.000764547722120472
88.07600000000001,0.00027908021929258324,-0.00027908021929258324
88.07700000000001,0.0010612415460627095,0.0010612415460627095
88.078,0.0030650401675523294,0.0030650401675523294
88.07900000000001,0.005321045004742405,0.005321045004742405
88.08000000000001,0.007298204203961144,0.007298204203961144
88.081,0.008474362877327477,0.008474362877327477
88.08200000000001,0.008460342713684836,0.008460342713684836
88.08300000000001,0.007090973982574485,0.007090973982574485
88.084,0.004465772785199655,0.004465772785199655
88.08500000000001,0.0009352929386312316,0.0009352929386312316
88.08600000000001,0.0029593063850611896,-0.0029593063850611896
88.087,0.006578751963607334,-0.006578751963607334
88.08800000000001,0.009293064966527256,-0.009293064966527256
88.08900000000001,0.010587798530841611,-0.010587798530841611
88.09,0.010155473538252972,-0.010155473538252972
88.09100000000001,0.007960754915465851,-0.007960754915465851
88.09200000000001,0.004269321272382817,-0.004269321272382817
88.093,0.00036808317470871717,0.00036808317470871717
88.09400000000001,0.00518157650205675,0.00518157650205675
88.09500000000001,0.009296607486155843,0.009296607486155843
88.096,0.011885542930482582,0.011885542930482582
88.09700000000001,0.012333362997536554,0.012333362997536554
88.09800000000001,0.010384725793336111,0.010384725793336111
88.099,0.006235930541023055,0.006235930541023055
88.10000000000001,0.000540831004483601,0.000540831004483601
88.10100000000001,0.005684600894979448,-0.005684600894979448
88.102,0.011250986646116838,-0.011250986646116838
88.10300000000001,0.015043855558187767,-0.015043855558187767
88.10400000000001,0.0162773683079495,-0.0162773683079495
88.105,0.014690770248126124,-0.014690770248126124
88.10600000000001,0.010632737388667218,-0.010632737388667218
88.10700000000001,0.005002825101820971,-0.005002825101820971
88.108,0.0009455765907331609,0.0009455765907331609
88.10900000000001,0.005899021030144743,0.005899021030144743
88.11000000000001,0.008803787628071299,0.008803787628071299
88.111,0.009129399561645922,0.009129399561645922
88.11200000000001,0.007004146161580592,0.007004146161580592
88.113,0.0031820142569073517,0.0031820142569073517
88.114,0.0011554580398503878,-0.0011554580398503878
88.11500000000001,0.0047136854041875354,-0.0047136854041875354
88.116,0.006433719785482026,-0.006433719785482026
88.117,0.005781273514897349,-0.005781273514897349
88.11800000000001,0.0028964983278485196,-0.0028964983278485196
88.119,0.001438137663446296,0.001438137663446296
88.12,0.006004895825125786,0.006004895825125786
88.12100000000001,0.009477322447581777,0.009477322447581777
88.122,0.010777535643200567,0.010777535643200567
88.123,0.009366879599153093,0.009366879599153093
88.12400000000001,0.005391379693316755,0.005391379693316755
88.125,0.00035575059450162724,-0.00035575059450162724
88.126,0.006641267196459173,-0.006641267196459173
88.12700000000001,0.012108942504526092,-0.012108942504526092
88.128,0.015618087030084524,-0.015618087030084524
88.129,0.01651223631884651,-0.01651223631884651
88.13000000000001,0.014749715918109346,-0.014749715918109346
88.131,0.010869246950777301,-0.010869246950777301
88.132,0.0058108904335160425,-0.0058108904335160425
88.13300000000001,0.0006514390400770729,-0.0006514390400770729
88.134,0.0036671321397337654,0.0036671321397337654
88.135,0.006542047040947221,0.006542047040947221
88.13600000000001,0.007798547186348817,0.007798547186348817
88.137,0.007652569286405807,0.007652569286405807
88.138,0.0065743327537767255,0.0065743327537767255
88.13900000000001,0.005105872786846709,0.005105872786846709
88.14,0.0036928544423831837,0.0036928544423831837
88.141,0.002578983008692292,0.002578983008692292
88.14200000000001,0.0017855641733657405,0.0017855641733657405
88.143,0.001168829990103213,0.001168829990103213
88.144,0.0005236597125411959,0.0005236597125411959
88.14500000000001,0.0003084454290076098,-0.0003084454290076098
88.146,0.0013646670402815042,-0.0013646670402815042
88.147,0.002540300710083227,-0.002540300710083227
88.14800000000001,0.003621576202515023,-0.003621576202515023
88.149,0.0043528614615380885,-0.0043528614615380885
88.15,0.004510488110777431,-0.004510488110777431
88.15100000000001,0.00395823655936929,-0.00395823655936929
88.152,0.0026713119444494522,-0.0026713119444494522
88.153,0.0007305633257119664,-0.0007305633257119664
88.15400000000001,0.0016998880923592974,0.0016998880923592974
88.155,0.004395210172578899,0.004395210172578899
88.156,0.007081982291118286,0.007081982291118286
88.15700000000001,0.009440751060699798,0.009440751060699798
88.158,0.011111152125306598,0.011111152125306598
88.159,0.011716674446775028,0.011716674446775028
88.16000000000001,0.01092127509749669,0.01092127509749669
88.161,0.008516180106516039,0.008516180106516039
88.162,0.0045174454250012375,0.0045174454250012375
88.16300000000001,0.0007591770059784227,-0.0007591770059784227
88.164,0.006682674906689099,-0.006682674906689099
88.165,0.012375769773078648,-0.012375769773078648
88.16600000000001,0.016869666927416697,-0.016869666927416697
88.167,0.019316119086465102,-0.019316119086465102
88.168,0.01920342797806714,-0.01920342797806714
88.16900000000001,0.0165126357756601,-0.0165126357756601
88.17,0.011760017547553334,-0.011760017547553334
88.171,0.00590106441441852,-0.00590106441441852
88.17200000000001,0.00011150674026450983,-0.00011150674026450983
88.173,0.004500030182841151,0.004500030182841151
88.174,0.007168572415716446,0.007168572415716446
88.17500000000001,0.007658418069568152,0.007658418069568152
88.176,0.006302062715615589,0.006302062715615589
88.177,0.003879620836572173,0.003879620836572173
88.17800000000001,0.001374255919109969,0.001374255919109969
88.179,0.0003227103935308782,-0.0003227103935308782
88.18,0.0006679574518007578,-0.0006679574518007578
88.18100000000001,0.00039272162031751037,0.00039272162031751037
88.182,0.0024377093716348025,0.0024377093716348025
88.183,0.0047274226082052425,0.0047274226082052425
88.18400000000001,0.006451619971995831,0.006451619971995831
88.185,0.006984498274706004,0.006984498274706004
88.186,0.006066637895105184,0.006066637895105184
88.18700000000001,0.0038601171149798114,0.0038601171149798114
88.188,0.0008672234371857094,0.0008672234371857094
88.18900000000001,0.0022511460730163034,-0.0022511460730163034
88.19000000000001,0.004889671358583168,-0.004889671358583168
88.191,0.006670542557602223,-0.006670542557602223
88.19200000000001,0.007517479791794686,-0.007517479791794686
88.19300000000001,0.007614199837228787,-0.007614199837228787
88.194,0.0072725743282795845,-0.0072725743282795845
88.19500000000001,0.006767984079285625,-0.006767984079285625
88.19600000000001,0.006209529106522994,-0.006209529106522994
88.197,0.005497405964460751,-0.005497405964460751
88.19800000000001,0.004384777994053299,-0.004384777994053299
88.19900000000001,0.0026198350715672717,-0.0026198350715672717
88.2,0.00011090696136423048,-0.00011090696136423048
88.20100000000001,0.0029542250857820126,0.0029542250857820126
88.20200000000001,0.006089548928528381,0.006089548928528381
88.203,0.008611950715003338,0.008611950715003338
88.20400000000001,0.009837433757803936,0.009837433757803936
88.20500000000001,0.009310374879265705,0.009310374879265705
88.206,0.006987114183773712,0.006987114183773712
88.20700000000001,0.0033056823379406927,0.0033056823379406927
88.20800000000001,0.0008917223674691362,-0.0008917223674691362
88.209,0.004569174807294825,-0.004569174807294825
88.21000000000001,0.006781438318445802,-0.006781438318445802
88.21100000000001,0.006947052552617522,-0.006947052552617522
88.212,0.005025753958509464,-0.005025753958509464
88.21300000000001,0.0015440841488170952,-0.0015440841488170952
88.21400000000001,0.0025406918831586563,0.0025406918831586563
88.215,0.006098957978228841,0.006098957978228841
88.21600000000001,0.008133552999102305,0.008133552999102305
88.21700000000001,0.00804283971383682,0.00804283971383682
88.218,0.005768873959092962,0.005768873959092962
88.21900000000001,0.0017941052940035663,0.0017941052940035663
88.22000000000001,0.0030042020824881713,-0.0030042020824881713
88.221,0.0075924360925541095,-0.0075924360925541095
88.22200000000001,0.011040018562043329,-0.011040018562043329
88.22300000000001,0.012728393011084818,-0.012728393011084818
88.224,0.01245998268493836,-0.01245998268493836
88.22500000000001,0.010451401602901098,-0.010451401602901098
88.22600000000001,0.007229510280234911,-0.007229510280234911
88.227,0.00347288531373256,-0.00347288531373256
88.22800000000001,0.00015118541584463363,0.00015118541584463363
88.22900000000001,0.00311286878017588,0.00311286878017588
88.23,0.005087384294527734,0.005087384294527734
88.23100000000001,0.005964253048678117,0.005964253048678117
88.23200000000001,0.005814808804049251,0.005814808804049251
88.233,0.00484082322871436,0.00484082322871436
88.23400000000001,0.0033232037279423226,0.0033232037279423226
88.23500000000001,0.0015797067717752487,0.0015797067717752487
88.236,6.964200428612607e-05,-6.964200428612607e-05
88.23700000000001,0.0013361351874550426,-0.0013361351874550426
88.238,0.002000095857548158,-0.002000095857548158
88.239,0.001950739386575766,-0.001950739386575766
88.24000000000001,0.0012179087986357814,-0.0012179087986357814
88.241,1.9098257136657492e-05,1.9098257136657492e-05
88.242,0.0014577353521609763,0.0014577353521609763
88.24300000000001,0.0027356437232830414,0.0027356437232830414
88.244,0.0035197003342399883,0.0035197003342399883
88.245,0.0035969245522330857,0.0035969245522330857
88.24600000000001,0.002938521594948016,0.002938521594948016
88.247,0.001713581946198107,0.001713581946198107
88.248,0.00024357077637777766,0.00024357077637777766
88.24900000000001,0.0010919102785788622,-0.0010919102785788622
88.25,0.001970358491695605,-0.001970358491695605
88.251,0.0022262035337931438,-0.0022262035337931438
88.25200000000001,0.0019023711768048621,-0.0019023711768048621
88.253,0.001235717699810664,-0.001235717699810664
88.254,0.0005800300884825981,-0.0005800300884825981
88.25500000000001,0.0002909758070508523,-0.0002909758070508523
88.256,0.0006099987455697122,-0.0006099987455697122
88.257,0.0015843178745488992,-0.0015843178745488992
88.25800000000001,0.0030479349090585368,-0.0030479349090585368
88.259,0.0046683086840377955,-0.0046683086840377955
88.26,0.006042230047896565,-0.006042230047896565
88.26100000000001,0.006809640866733622,-0.006809640866733622
88.262,0.006750384450729385,-0.006750384450729385
88.263,0.0058367508803711995,-0.0058367508803711995
88.26400000000001,0.00423066574921075,-0.00423066574921075
88.265,0.0022323294992663677,-0.0022323294992663677
88.266,0.00020071351662221784,-0.00020071351662221784
88.26700000000001,0.0015286139191866405,0.0015286139191866405
88.268,0.0027069388045532065,0.0027069388045532065
88.269,0.003206088940759012,0.003206088940759012
88.27000000000001,0.003023015749572731,0.003023015749572731
88.271,0.00226416745226293,0.00226416745226293
88.272,0.0011206305180775907,0.0011206305180775907
88.27300000000001,0.00015867217305696579,-0.00015867217305696579
88.274,0.0012948139261620313,-0.0012948139261620313
88.275,0.0020116898831264106,-0.0020116898831264106
88.27600000000001,0.0020779327710853087,-0.0020779327710853087
88.277,0.0013567417284720497,-0.0013567417284720497
88.278,0.00014588310206195613,0.00014588310206195613
88.27900000000001,0.0022509776447744863,0.0022509776447744863
88.28,0.0046121250478319935,0.0046121250478319935
88.281,0.00676716128613487,0.00676716128613487
88.28200000000001,0.008232484685333783,0.008232484685333783
88.283,0.00861990965746972,0.00861990965746972
88.284,0.007743726693503644,0.007743726693503644
88.28500000000001,0.005683357910090667,0.005683357910090667
88.286,0.002777231152560497,0.002777231152560497
88.287,0.0004560230542535001,-0.0004560230542535001
88.28800000000001,0.0034488431202175465,-0.0034488431202175465
88.289,0.0057292998339213445,-0.0057292998339213445
88.29,0.007033530342340505,-0.007033530342340505
88.29100000000001,0.0073503952392309545,-0.0073503952392309545
88.292,0.006885849984382691,-0.006885849984382691
88.293,0.005963013094348599,-0.005963013094348599
88.29400000000001,0.004897154548016436,-0.004897154548016436
88.295,0.0038936244393082435,-0.0038936244393082435
88.296,0.0030070324078606365,-0.0030070324078606365
88.29700000000001,0.002174790276663263,-0.002174790276663263
88.298,0.0013068102863169012,-0.0013068102863169012
88.299,0.0003881196310630842,-0.0003881196310630842
88.30000000000001,0.00045688953790487617,0.00045688953790487617
88.301,0.0009763319310705493,0.0009763319310705493
88.302,0.0008853534347200191,0.0008853534347200191
88.30300000000001,1.2339092223127575e-05,1.2339092223127575e-05
88.304,0.0015628843949523725,-0.0015628843949523725
88.305,0.0034455165777888355,-0.0034455165777888355
88.30600000000001,0.004983308653243498,-0.004983308653243498
88.307,0.00544885262094584,-0.00544885262094584
88.308,0.004299573672047231,-0.004299573672047231
88.30900000000001,0.0014286385658156223,-0.0014286385658156223
88.31,0.002691696148406052,0.002691696148406052
88.311,0.007048304427134952,0.007048304427134952
88.31200000000001,0.010325102977528691,0.010325102977528691
88.313,0.01128855309929846,0.01128855309929846
88.31400000000001,0.009208307138162085,0.009208307138162085
88.31500000000001,0.004173176333201327,0.004173176333201327
88.316,0.0028184397514875088,-0.0028184397514875088
88.31700000000001,0.010051247719170934,-0.010051247719170934
88.31800000000001,0.01553687350214986,-0.01553687350214986
88.319,0.017589685722984198,-0.017589685722984198
88.32000000000001,0.01536113092930346,-0.01536113092930346
88.32100000000001,0.009158526676570826,-0.009158526676570826
88.322,0.00043157011097962506,-0.00043157011097962506
88.32300000000001,0.00859051703440281,0.00859051703440281
88.32400000000001,0.015517108688607482,0.015517108688607482
88.325,0.01848915749952376,0.01848915749952376
88.32600000000001,0.016734983462434773,0.016734983462434773
88.32700000000001,0.010812548639222841,0.010812548639222841
88.328,0.00245574502770846,0.00245574502770846
88.32900000000001,0.00593477283454408,-0.00593477283454408
88.33000000000001,0.012002988479520225,-0.012002988479520225
88.331,0.014132564022197527,-0.014132564022197527
88.33200000000001,0.011910940246135366,-0.011910940246135366
88.33300000000001,0.006220766684374583,-0.006220766684374583
88.334,0.00106468509770707,0.00106468509770707
88.33500000000001,0.007680069227426563,0.007680069227426563
88.33600000000001,0.01166693609240068,0.01166693609240068
88.337,0.01195169691577533,0.01195169691577533
88.33800000000001,0.00862531413144877,0.00862531413144877
88.33900000000001,0.0028481345711243197,0.0028481345711243197
88.34,0.0035736600706097865,-0.0035736600706097865
88.34100000000001,0.008789198140322724,-0.008789198140322724
88.34200000000001,0.011479431813738485,-0.011479431813738485
88.343,0.011223923373613961,-0.011223923373613961
88.34400000000001,0.008550745037851347,-0.008550745037851347
88.34500000000001,0.004672932448178199,-0.004672932448178199
88.346,0.001019689360471881,-0.001019689360471881
88.34700000000001,0.0012659747397379397,0.0012659747397379397
88.34800000000001,0.0016895118089541336,0.0016895118089541336
88.349,0.000511266081477688,0.000511266081477688
88.35000000000001,0.0014231878126612306,-0.0014231878126612306
88.35100000000001,0.0030507663096482605,-0.0030507663096482605
88.352,0.0035122118804512487,-0.0035122118804512487
88.35300000000001,0.002470451285629567,-0.002470451285629567
88.35400000000001,0.0002139944903503895,-0.0002139944903503895
88.355,0.0024830845689038515,0.0024830845689038515
88.35600000000001,0.004681932487450284,0.004681932487450284
88.35700000000001,0.005652423023975419,0.005652423023975419
88.358,0.005154948673092573,0.005154948673092573
88.35900000000001,0.0035236889522646366,0.0035236889522646366
88.36000000000001,0.0015214554013872797,0.0015214554013872797
88.361,2.3510932344914066e-05,2.3510932344914066e-05
88.36200000000001,0.00034692865551667527,-0.00034692865551667527
88.363,0.0005104547205964402,0.0005104547205964402
88.364,0.0021039756439935296,0.0021039756439935296
88.36500000000001,0.0035160652371233267,0.0035160652371233267
88.366,0.0037499871360154335,0.0037499871360154335
88.367,0.0021331213850293877,0.0021331213850293877
88.36800000000001,0.0013723797464047231,-0.0013723797464047231
88.369,0.006072052222055069,-0.006072052222055069
88.37,0.010702274907656486,-0.010702274907656486
88.37100000000001,0.013810102240230729,-0.013810102240230729
88.372,0.01422774655055901,-0.01422774655055901
88.373,0.011482829300526442,-0.011482829300526442
88.37400000000001,0.006003023222510398,-0.006003023222510398
88.375,0.0009601672377544398,0.0009601672377544398
88.376,0.0076715133133858394,0.0076715133133858394
88.37700000000001,0.012412094768535775,0.012412094768535775
88.378,0.013982788019186594,0.013982788019186594
88.379,0.012053871651366264,0.012053871651366264
88.38000000000001,0.007253656001472514,0.007253656001472514
88.381,0.0009727987914178863,0.0009727987914178863
88.382,0.0050499987320858,-0.0050499987320858
88.38300000000001,0.009229921845993553,-0.009229921845993553
88.384,0.010573081041441864,-0.010573081041441864
88.385,0.008923177871090577,-0.008923177871090577
88.38600000000001,0.004956627548024427,-0.004956627548024427
88.387,5.613576429843366e-05,5.613576429843366e-05
88.388,0.004637810182547223,0.004637810182547223
88.38900000000001,0.00751832662157734,0.00751832662157734
88.39,0.007958096385546004,0.007958096385546004
88.391,0.005900931620300866,0.005900931620300866
88.39200000000001,0.001934342568205546,0.001934342568205546
88.393,0.0029090053004833917,-0.0029090053004833917
88.394,0.007436879247826733,-0.007436879247826733
88.39500000000001,0.010587028216849361,-0.010587028216849361
88.396,0.011651612978293506,-0.011651612978293506
88.397,0.010397277252317528,-0.010397277252317528
88.39800000000001,0.00707450787582079,-0.00707450787582079
88.399,0.0023350150651693918,-0.0023350150651693918
88.4,0.002912067773574473,0.002912067773574473
88.40100000000001,0.007674016792495134,0.007674016792495134
88.402,0.011052834627519563,0.011052834627519563
88.403,0.012407539123362829,0.012407539123362829
88.40400000000001,0.011480754745165873,0.011480754745165873
88.405,0.00846766760030871,0.00846766760030871
88.406,0.004005028906158611,0.004005028906158611
88.40700000000001,0.0009346501321936671,-0.0009346501321936671
88.408,0.005240184955686001,-0.005240184955686001
88.409,0.007919734981327285,-0.007919734981327285
88.41000000000001,0.008362431102182804,-0.008362431102182804
88.411,0.006530609378262477,-0.006530609378262477
88.412,0.0030151411176641326,-0.0030151411176641326
88.41300000000001,0.0010834493758911479,0.0010834493758911479
88.414,0.004436158973802055,0.004436158973802055
88.415,0.005863066976103422,0.005863066976103422
88.41600000000001,0.004701250947582009,0.004701250947582009
88.417,0.00104711411649963,0.00104711411649963
88.418,0.004214952210880053,-0.004214952210880053
88.41900000000001,0.009625168847919172,-0.009625168847919172
88.42,0.01355414483833856,-0.01355414483833856
88.421,0.014687392471075023,-0.014687392471075023
88.42200000000001,0.012440593310799561,-0.012440593310799561
88.423,0.007170781714489844,-0.007170781714489844
88.424,0.0001071680284200969,-0.0001071680284200969
88.42500000000001,0.006987789192332154,0.006987789192332154
88.426,0.012329021672817964,0.012329021672817964
88.427,0.014634553368740835,0.014634553368740835
88.42800000000001,0.013500636522090152,0.013500636522090152
88.429,0.009505997148080338,0.009505997148080338
88.43,0.004010782946924315,0.004010782946924315
88.43100000000001,0.0012855219768058393,-0.0012855219768058393
88.432,0.0048843429921289795,-0.0048843429921289795
88.433,0.005951591700104312,-0.005951591700104312
88.43400000000001,0.004555545972668117,-0.004555545972668117
88.435,0.0016051712929941822,-0.0016051712929941822
88.436,0.0014856500144562726,0.0014856500144562726
88.43700000000001,0.003292469825966242,0.003292469825966242
88.438,0.0028671519987801793,0.0028671519987801793
88.43900000000001,5.679870217573576e-05,5.679870217573576e-05
88.44000000000001,0.004446702039008448,-0.004446702039008448
88.441,0.009336241499821953,-0.009336241499821953
88.44200000000001,0.013115208165879364,-0.013115208165879364
88.44300000000001,0.014574083153427706,-0.014574083153427706
88.444,0.01316097717843758,-0.01316097717843758
88.44500000000001,0.009130545736733674,-0.009130545736733674
88.44600000000001,0.0034341989491600716,-0.0034341989491600716
88.447,0.00259809915268546,0.00259809915268546
88.44800000000001,0.007668157218533917,0.007668157218533917
88.44900000000001,0.010872809662521729,0.010872809662521729
88.45,0.011906805514688775,0.011906805514688775
88.45100000000001,0.011055129821171366,0.011055129821171366
88.45200000000001,0.009000587996620815,0.009000587996620815
88.453,0.00653380973391885,0.00653380973391885
88.45400000000001,0.004278466942131242,0.004278466942131242
88.45500000000001,0.002527465004724194,0.002527465004724194
88.456,0.0012351263718599528,0.0012351263718599528
88.45700000000001,0.00014688496004615126,0.00014688496004615126
88.45800000000001,0.0010036004114891204,-0.0010036004114891204
88.459,0.002320744378825925,-0.002320744378825925
88.46000000000001,0.003671081455703439,-0.003671081455703439
88.46100000000001,0.004733899623773491,-0.004733899623773491
88.462,0.005151999789362564,-0.005151999789362564
88.46300000000001,0.004713457713301456,-0.004713457713301456
88.46400000000001,0.003482125040049876,-0.003482125040049876
88.465,0.0018158293153387006,-0.0018158293153387006
88.46600000000001,0.0002579067554730882,-0.0002579067554730882
88.46700000000001,0.0006591760703140629,0.0006591760703140629
88.468,0.0006213059489358931,0.0006213059489358931
88.46900000000001,0.00033294166483432275,-0.00033294166483432275
88.47000000000001,0.0018088213523308077,-0.0018088213523308077
88.471,0.003190073329016201,-0.003190073329016201
88.47200000000001,0.0038644220088318118,-0.0038644220088318118
88.47300000000001,0.003455506791610217,-0.003455506791610217
88.474,0.0019721811449933207,-0.0019721811449933207
88.47500000000001,0.0001836676388209217,0.0001836676388209217
88.47600000000001,0.0023558416728221678,0.0023558416728221678
88.477,0.003867567930814833,0.003867567930814833
88.47800000000001,0.004261504392800036,0.004261504392800036
88.47900000000001,0.003454376082663555,0.003454376082663555
88.48,0.0017476765129751997,0.0017476765129751997
88.48100000000001,0.00030758039186836025,-0.00030758039186836025
88.48200000000001,0.002136079578482587,-0.002136079578482587
88.483,0.003361057796734628,-0.003361057796734628
88.48400000000001,0.003932764505302834,-0.003932764505302834
88.48500000000001,0.004108324047714279,-0.004108324047714279
88.486,0.004290002881113872,-0.004290002881113872
88.48700000000001,0.004789522320298602,-0.004789522320298602
88.488,0.005621441128205112,-0.005621441128205112
88.489,0.006423107213542239,-0.006423107213542239
88.49000000000001,0.006552178764905638,-0.006552178764905638
88.491,0.00534150625110424,-0.00534150625110424
88.492,0.0024222463872897344,-0.0024222463872897344
88.49300000000001,0.0020128279168436947,0.0020128279168436947
88.494,0.007125046138155382,0.007125046138155382
88.495,0.01158698820107915,0.01158698820107915
88.49600000000001,0.013956824349936255,0.013956824349936255
88.497,0.013159936221861856,0.013159936221861856
88.498,0.008915617582147066,0.008915617582147066
88.49900000000001,0.0019497194838764052,0.0019497194838764052
88.5,0.006104668153609207,-0.006104668153609207
88.501,0.013115388859214759,-0.013115388859214759
88.50200000000001,0.017058152877646265,-0.017058152877646265
88.503,0.016636857941914437,-0.016636857941914437
88.504,0.011716414317478243,-0.011716414317478243
88.50500000000001,0.003419491735012756,-0.003419491735012756
88.506,0.006156806428134781,0.006156806428134781
88.507,0.0145257321177735,0.0145257321177735
88.50800000000001,0.01951930283441993,0.01951930283441993
88.509,0.019900736548707117,0.019900736548707117
88.51,0.0156917996747644,0.0156917996747644
88.51100000000001,0.008118724534780667,0.008118724534780667
88.512,0.0007959664349984126,-0.0007959664349984126
88.513,0.008855705074989447,-0.008855705074989447
88.51400000000001,0.014322297651977265,-0.014322297651977265
88.515,0.0163601669455008,-0.0163601669455008
88.516,0.015165346739149007,-0.015165346739149007
88.51700000000001,0.011762891406522069,-0.011762891406522069
88.518,0.007567225770030663,-0.007567225770030663
88.519,0.0038727260181146876,-0.0038727260181146876
88.52000000000001,0.0014528532824755643,-0.0014528532824755643
88.521,0.0003944451687983035,-0.0003944451687983035
88.522,0.00020066574188724122,-0.00020066574188724122
88.52300000000001,9.701917359476217e-05,-9.701917359476217e-05
88.524,0.0005940657815242162,0.0005940657815242162
88.525,0.002159538785937983,0.002159538785937983
88.52600000000001,0.004390494580202348,0.004390494580202348
88.527,0.006692636055469566,0.006692636055469566
88.528,0.008353087245228765,0.008353087245228765
88.52900000000001,0.00884495580434582,0.00884495580434582
88.53,0.008041226285932788,0.008041226285932788
88.531,0.006251599937086413,0.006251599937086413
88.53200000000001,0.004071890099009459,0.004071890099009459
88.533,0.0021145194898182043,0.0021145194898182043
88.534,0.0007386217508738387,0.0007386217508738387
88.53500000000001,0.0001010727733535942,-0.0001010727733535942
88.536,0.000816624927580728,-0.000816624927580728
88.537,0.001970332831883256,-0.001970332831883256
88.53800000000001,0.003967190198499418,-0.003967190198499418
88.539,0.00678875291155828,-0.00678875291155828
88.54,0.009891997618715481,-0.009891997618715481
88.54100000000001,0.012335895550123053,-0.012335895550123053
88.542,0.01310762837467152,-0.01310762837467152
88.543,0.01153466465688294,-0.01153466465688294
88.54400000000001,0.007622951615889017,-0.007622951615889017
88.545,0.0021759633161440627,-0.0021759633161440627
88.546,0.0033776223862775597,0.0033776223862775597
88.54700000000001,0.007413044659579585,0.007413044659579585
88.548,0.008659360062873324,0.008659360062873324
88.549,0.00667715798409324,0.00667715798409324
88.55000000000001,0.0020829354757992066,0.0020829354757992066
88.551,0.003580930616397449,-0.003580930616397449
88.552,0.008309391612664318,-0.008309391612664318
88.55300000000001,0.010288446407372557,-0.010288446407372557
88.554,0.008520728221334673,-0.008520728221334673
88.555,0.0032035696835663896,-0.0032035696835663896
88.55600000000001,0.004281990743481738,0.004281990743481738
88.557,0.01178152394993971,0.01178152394993971
88.558,0.017047836546354878,0.017047836546354878
88.55900000000001,0.01846532756291369,0.01846532756291369
88.56,0.015571636232103246,0.015571636232103246
88.561,0.009196879615483633,0.009196879615483633
88.56200000000001,0.0011720124798089713,0.0011720124798089713
88.563,0.006292176165060761,-0.006292176165060761
88.56400000000001,0.011338483824559686,-0.011338483824559686
88.56500000000001,0.013053002672485808,-0.013053002672485808
88.566,0.011706861845842458,-0.011706861845842458
88.56700000000001,0.008570842514325078,-0.008570842514325078
88.56800000000001,0.005377510324531043,-0.005377510324531043
88.569,0.003632654392761457,-0.003632654392761457
88.57000000000001,0.0040320185156172495,-0.0040320185156172495
88.57100000000001,0.006200294605191364,-0.006200294605191364
88.572,0.008850569714416166,-0.008850569714416166
88.57300000000001,0.010306553932777403,-0.010306553932777403
88.57400000000001,0.009193679655742219,-0.009193679655742219
88.575,0.005038793201219228,-0.005038793201219228
88.57600000000001,0.0014529933771020402,0.0014529933771020402
88.57700000000001,0.008560786880429444,0.008560786880429444
88.578,0.014105954569299813,0.014105954569299813
88.57900000000001,0.016214274365071207,0.016214274365071207
88.58000000000001,0.01400994634206184,0.01400994634206184
88.581,0.00798604403606219,0.00798604403606219
88.58200000000001,9.3855360283878e-05,-9.3855360283878e-05
88.58300000000001,0.00774290819550264,-0.00774290819550264
88.584,0.012565739557830129,-0.012565739557830129
88.58500000000001,0.013060056830508987,-0.013060056830508987
88.58600000000001,0.009124170347116932,-0.009124170347116932
88.587,0.002089532600618539,-0.002089532600618539
88.58800000000001,0.005736717674930743,0.005736717674930743
88.58900000000001,0.01186127893980155,0.01186127893980155
88.59,0.014450225856003444,0.014450225856003444
88.59100000000001,0.012933971196066547,0.012933971196066547
88.59200000000001,0.008160168678242154,0.008160168678242154
88.593,0.002044006403273457,0.002044006403273457
88.59400000000001,0.0031551924280123576,-0.0031551924280123576
88.59500000000001,0.005668459497300986,-0.005668459497300986
88.596,0.0048604970669123325,-0.0048604970669123325
88.59700000000001,0.0014486052234494173,-0.0014486052234494173
88.59800000000001,0.0027825842269231255,0.0027825842269231255
88.599,0.005667469337914469,0.005667469337914469
88.60000000000001,0.005497236803616083,0.005497236803616083
88.60100000000001,0.0017021208261045876,0.0017021208261045876
88.602,0.0048753156317260845,-0.0048753156317260845
88.60300000000001,0.012223794783213142,-0.012223794783213142
88.60400000000001,0.01784579232876545,-0.01784579232876545
88.605,0.019641048909693086,-0.019641048909693086
88.60600000000001,0.016677322857036544,-0.016677322857036544
88.60700000000001,0.009570260809539384,-0.009570260809539384
88.608,0.00032966738599313693,-0.00032966738599313693
88.60900000000001,0.008283072921684906,0.008283072921684906
88.61000000000001,0.01366858368718434,0.01366858368718434
88.611,0.014259125133144816,0.014259125133144816
88.61200000000001,0.010042820944662603,0.010042820944662603
88.613,0.0025606710559141757,0.0025606710559141757
88.614,0.0056219284705424834,-0.0056219284705424834
88.61500000000001,0.011784808744312541,-0.011784808744312541
88.616,0.013962066592444498,-0.013962066592444498
88.617,0.01157769869327773,-0.01157769869327773
88.61800000000001,0.005593462513639211,-0.005593462513639211
88.619,0.0018728978765319545,0.0018728978765319545
88.62,0.008315763340178993,0.008315763340178993
88.62100000000001,0.011720331465503634,0.011720331465503634
88.622,0.011242458594927878,0.011242458594927878
88.623,0.0074559740437376365,0.0074559740437376365
88.62400000000001,0.002090729106718262,0.002090729106718262
88.625,0.0026338966407788832,-0.0026338966407788832
88.626,0.0048339725781091645,-0.0048339725781091645
88.62700000000001,0.0036467397780703633,-0.0036467397780703633
88.628,0.0004656900755632606,0.0004656900755632606
88.629,0.005896995786669901,0.005896995786669901
88.63000000000001,0.010489406192283175,0.010489406192283175
88.631,0.012320251029992652,0.012320251029992652
88.632,0.01039810880651697,0.01039810880651697
88.63300000000001,0.0050208715028846026,0.0050208715028846026
88.634,0.00232766495709209,-0.00232766495709209
88.635,0.009499729780928359,-0.009499729780928359
88.63600000000001,0.014432673421954896,-0.014432673421954896
88.637,0.015856062464016225,-0.015856062464016225
88.638,0.013706952643380428,-0.013706952643380428
88.63900000000001,0.009111494563147707,-0.009111494563147707
88.64,0.003947621065259378,-0.003947621065259378
88.641,0.00015213610422036667,-0.00015213610422036667
88.64200000000001,0.0009766795995259376,0.0009766795995259376
88.643,0.0007670880075422141,-0.0007670880075422141
88.644,0.004443627028145272,-0.004443627028145272
88.64500000000001,0.008326474622825935,-0.008326474622825935
88.646,0.010539704801474462,-0.010539704801474462
88.647,0.009743247204176977,-0.009743247204176977
88.64800000000001,0.005624032578134181,-0.005624032578134181
88.649,0.0009759748737750805,0.0009759748737750805
88.65,0.008332855686701862,0.008332855686701862
88.65100000000001,0.014412165170957216,0.014412165170957216
88.652,0.017535265507201536,0.017535265507201536
88.653,0.016910666156050386,0.016910666156050386
88.65400000000001,0.012855084214552993,0.012855084214552993
88.655,0.006642477725029716,0.006642477725029716
88.656,4.961491054659196e-05,4.961491054659196e-05
88.65700000000001,0.005232652184521509,-0.005232652184521509
88.658,0.008116377491753837,-0.008116377491753837
88.659,0.008392558393257239,-0.008392558393257239
88.66000000000001,0.006690791305455054,-0.006690791305455054
88.661,0.0041616705676255274,-0.0041616705676255274
88.662,0.0020145917856061453,-0.0020145917856061453
88.66300000000001,0.0010840985966503274,-0.0010840985966503274
88.664,0.0015741534780579194,-0.0015741534780579194
88.665,0.003054398961639479,-0.003054398961639479
88.66600000000001,0.0046862614139848375,-0.0046862614139848375
88.667,0.005576050651513256,-0.005576050651513256
88.668,0.005115446661893444,-0.005115446661893444
88.66900000000001,0.0031872642379770486,-0.0031872642379770486
88.67,0.00017554420993345652,-0.00017554420993345652
88.671,0.003202501809943869,0.003202501809943869
88.67200000000001,0.006160532201987021,0.006160532201987021
88.673,0.00809391440114598,0.00809391440114598
88.674,0.008726318351375892,0.008726318351375892
88.67500000000001,0.008113588889014468,0.008113588889014468
88.676,0.006529534110175451,0.006529534110175451
88.677,0.004305081895176628,0.004305081895176628
88.67800000000001,0.001703986815062224,0.001703986815062224
88.679,0.0011083702481627248,-0.0011083702481627248
88.68,0.003998366336916828,-0.003998366336916828
88.68100000000001,0.006748109199816723,-0.006748109199816723
88.682,0.00896844790767859,-0.00896844790767859
88.683,0.010111887023787921,-0.010111887023787921
88.68400000000001,0.009612720424760099,-0.009612720424760099
88.685,0.00711976860712103,-0.00711976860712103
88.686,0.0027333821856851603,-0.0027333821856851603
88.68700000000001,0.002862384132653251,0.002862384132653251
88.688,0.008456889036130932,0.008456889036130932
88.68900000000001,0.01257949284890441,0.01257949284890441
88.69000000000001,0.013914491101831118,0.013914491101831118
88.691,0.011736284754342945,0.011736284754342945
88.69200000000001,0.006212028749063571,0.006212028749063571
88.69300000000001,0.0015499451488890162,-0.0015499451488890162
88.694,0.009748245010840696,-0.009748245010840696
88.69500000000001,0.016374065308657357,-0.016374065308657357
88.69600000000001,0.019788392786354612,-0.019788392786354612
88.697,0.019205056305698194,-0.019205056305698194
88.69800000000001,0.014918225127492447,-0.014918225127492447
88.69900000000001,0.008195211868535543,-0.008195211868535543
88.7,0.0008679500002902278,-0.0008679500002902278
88.70100000000001,0.005240343495132628,0.005240343495132628
88.70200000000001,0.008860312493203562,0.008860312493203562
88.703,0.00961162882586467,0.00961162882586467
88.70400000000001,0.00802208843926445,0.00802208843926445
88.70500000000001,0.0052378428363514815,0.0052378428363514815
88.706,0.00254192500478048,0.00254192500478048
88.70700000000001,0.0008646914302206926,0.0008646914302206926
88.70800000000001,0.000468298704328346,0.000468298704328346
88.709,0.0009183224507169506,0.0009183224507169506
88.71000000000001,0.0013446266618507951,0.0013446266618507951
88.71100000000001,0.0008819850848363343,0.0008819850848363343
88.712,0.0008892483720069725,-0.0008892483720069725
88.71300000000001,0.003683974332207252,-0.003683974332207252
88.71400000000001,0.006548131521187099,-0.006548131521187099
88.715,0.008189510701232413,-0.008189510701232413
88.71600000000001,0.007487250918700858,-0.007487250918700858
88.71700000000001,0.003988325303734256,-0.003988325303734256
88.718,0.0018053105080268856,0.0018053105080268856
88.71900000000001,0.008485408684589212,0.008485408684589212
88.72000000000001,0.014128203671017938,0.014128203671017938
88.721,0.01690623888394076,0.01690623888394076
88.72200000000001,0.015712963807210104,0.015712963807210104
88.72300000000001,0.010577932442892957,0.010577932442892957
88.724,0.0027169642473721233,0.0027169642473721233
88.72500000000001,0.005813715254275915,-0.005813715254275915
88.72600000000001,0.012751498132450972,-0.012751498132450972
88.727,0.016338542896678142,-0.016338542896678142
88.72800000000001,0.01586910177626287,-0.01586910177626287
88.72900000000001,0.011887006718068091,-0.011887006718068091
88.73,0.005968107824110424,-0.005968107824110424
88.73100000000001,0.00016635835068696785,-0.00016635835068696785
88.73200000000001,0.0036820234920849474,0.0036820234920849474
88.733,0.004555463677116917,0.004555463677116917
88.73400000000001,0.002543173887653806,0.002543173887653806
88.73500000000001,0.0012515905470439905,-0.0012515905470439905
88.736,0.005152976737007262,-0.005152976737007262
88.73700000000001,0.007530462887919654,-0.007530462887919654
88.738,0.00736818228987501,-0.00736818228987501
88.739,0.004586251822851147,-0.004586251822851147
88.74000000000001,1.1909100457222172e-05,-1.1909100457222172e-05
88.741,0.004970213165665797,0.004970213165665797
88.742,0.008942790147088046,0.008942790147088046
88.74300000000001,0.01095102489770561,0.01095102489770561
88.744,0.010784070993300617,0.010784070993300617
88.745,0.008948061620030343,0.008948061620030343
88.74600000000001,0.006360020775654699,0.006360020775654699
88.747,0.0039017759563855824,0.0039017759563855824
88.748,0.0020262079343454737,0.0020262079343454737
88.74900000000001,0.0005840369234608859,0.0005840369234608859
88.75,0.0010529246420662149,-0.0010529246420662149
88.751,0.003620633948706917,-0.003620633948706917
88.75200000000001,0.007500066704033568,-0.007500066704033568
88.753,0.012366494660560286,-0.012366494660560286
88.754,0.01712047604918165,-0.01712047604918165
88.75500000000001,0.02016513380936547,-0.02016513380936547
88.756,0.01995635900188195,-0.01995635900188195
88.757,0.015634440690735038,-0.015634440690735038
88.75800000000001,0.007494546550665656,-0.007494546550665656
88.759,0.002906885036628519,0.002906885036628519
88.76,0.013092265964936518,0.013092265964936518
88.76100000000001,0.02037145437513522,0.02037145437513522
88.762,0.022698276446990757,0.022698276446990757
88.763,0.01938380718801421,0.01938380718801421
88.76400000000001,0.011406346753992522,0.011406346753992522
88.765,0.0011846536152938859,0.0011846536152938859
88.766,0.008138137279636441,-0.008138137279636441
88.76700000000001,0.013679922771730165,-0.013679922771730165
88.768,0.013751974234333665,-0.013751974234333665
88.769,0.008422396225977768,-0.008422396225977768
88.77000000000001,0.0004883851777200487,0.0004883851777200487
88.771,0.009990178284518942,0.009990178284518942
88.772,0.01689679365753357,0.01689679365753357
88.77300000000001,0.018867987479500962,0.018867987479500962
88.774,0.015169619430631285,0.015169619430631285
88.775,0.006895451557437594,0.006895451557437594
88.77600000000001,0.0034232707422312005,-0.0034232707422312005
88.777,0.012684918103894527,-0.012684918103894527
88.778,0.018262262636154408,-0.018262262636154408
88.77900000000001,0.018865595129818103,-0.018865595129818103
88.78,0.014929035530454661,-0.014929035530454661
88.781,0.008391699956004738,-0.008391699956004738
88.78200000000001,0.0019567910519166084,-0.0019567910519166084
88.783,0.0019061088477134573,0.0019061088477134573
88.784,0.0018610073553443568,0.0018610073553443568
88.78500000000001,0.0018117497176169273,-0.0018117497176169273
88.786,0.007322209518438402,-0.007322209518438402
88.787,0.012031295596755223,-0.012031295596755223
88.78800000000001,0.013433304676297922,-0.013433304676297922
88.789,0.010113246856009353,-0.010113246856009353
88.79,0.002337518230980858,-0.002337518230980858
88.79100000000001,0.007938555814168498,0.007938555814168498
88.792,0.017661574321678176,0.017661574321678176
88.793,0.023676889407077288,0.023676889407077288
88.79400000000001,0.02379659153045318,0.02379659153045318
88.795,0.01757578832784949,0.01757578832784949
88.796,0.006530126242861219,0.006530126242861219
88.79700000000001,0.006285871169245096,-0.006285871169245096
88.798,0.01720650830022586,-0.01720650830022586
88.799,0.02308749974361372,-0.02308749974361372
88.80000000000001,0.022275979698915413,-0.022275979698915413
88.801,0.015106936084877018,-0.015106936084877018
88.802,0.0037734666600515907,-0.0037734666600515907
88.80300000000001,0.008376092792068914,0.008376092792068914
88.804,0.017877571216186126,0.017877571216186126
88.805,0.02218907179045755,0.02218907179045755
88.80600000000001,0.02040204781560413,0.02040204781560413
88.807,0.01341719227932563,0.01341719227932563
88.808,0.003557371490382091,0.003557371490382091
88.80900000000001,0.006228983459555963,-0.006228983459555963
88.81,0.01329831353430248,-0.01329831353430248
88.811,0.016074455134822533,-0.016074455134822533
88.81200000000001,0.01441525131441479,-0.01441525131441479
88.813,0.009498792910219902,-0.009498792910219902
88.81400000000001,0.0033065003409495316,-0.0033065003409495316
88.81500000000001,0.00209472710247563,0.00209472710247563
88.816,0.0052198954078461115,0.0052198954078461115
88.81700000000001,0.0055693235421414205,0.0055693235421414205
88.81800000000001,0.0036606262616360255,0.0036606262616360255
88.819,0.0007153669698197643,0.0007153669698197643
88.82000000000001,0.0018596937795299325,-0.0018596937795299325
88.82100000000001,0.002999816690459239,-0.002999816690459239
88.822,0.002335800773050137,-0.002335800773050137
88.82300000000001,0.0002673976881871347,-0.0002673976881871347
88.82400000000001,0.002243964304382756,0.002243964304382756
88.825,0.004066778478954332,0.004066778478954332
88.82600000000001,0.0043236434421786004,0.0043236434421786004
88.82700000000001,0.0026981328833843004,0.0026981328833843004
88.828,0.00047211364722411835,-0.00047211364722411835
88.82900000000001,0.004330651721886499,-0.004330651721886499
88.83000000000001,0.007801133108190095,-0.007801133108190095
88.831,0.009935789911024704,-0.009935789911024704
88.83200000000001,0.010194267486510348,-0.010194267486510348
88.83300000000001,0.008569807938408856,-0.008569807938408856
88.834,0.005540275117804791,-0.005540275117804791
88.83500000000001,0.0018822643014546631,-0.0018822643014546631
88.83600000000001,0.0015738789221632322,0.0015738789221632322
88.837,0.004163197343766067,0.004163197343766067
88.83800000000001,0.005517920092020527,0.005517920092020527
88.83900000000001,0.005591403835035494,0.005591403835035494
88.84,0.004594325523179217,0.004594325523179217
88.84100000000001,0.0028881399479639587,0.0028881399479639587
88.84200000000001,0.0008829313330294967,0.0008829313330294967
88.843,0.001030742028104067,-0.001030742028104067
88.84400000000001,0.00251260728895949,-0.00251260728895949
88.84500000000001,0.003284083778944666,-0.003284083778944666
88.846,0.003145238618972616,-0.003145238618972616
88.84700000000001,0.002012308020125891,-0.002012308020125891
88.84800000000001,2.9739717551505455e-05,2.9739717551505455e-05
88.849,0.0026850583533459447,0.0026850583533459447
88.85000000000001,0.005448829561549073,0.005448829561549073
88.85100000000001,0.0076774132773409515,0.0076774132773409515
88.852,0.008726172758011005,0.008726172758011005
88.85300000000001,0.008124075643679488,0.008124075643679488
88.85400000000001,0.005731499809759252,0.005731499809759252
88.855,0.001823713644617956,0.001823713644617956
88.85600000000001,0.002938783555573082,-0.002938783555573082
88.85700000000001,0.007655749331497755,-0.007655749331497755
88.858,0.011410520453791427,-0.011410520453791427
88.85900000000001,0.013503530656641756,-0.013503530656641756
88.86000000000001,0.013621920969968606,-0.013621920969968606
88.861,0.011891517018383896,-0.011891517018383896
88.86200000000001,0.008798004756175756,-0.008798004756175756
88.863,0.005010113387986562,-0.005010113387986562
88.864,0.001171663256215563,-0.001171663256215563
88.86500000000001,0.0022617648518582865,0.0022617648518582865
88.866,0.005085828409325395,0.005085828409325395
88.867,0.007295975487302191,0.007295975487302191
88.86800000000001,0.008954571695914014,0.008954571695914014
88.869,0.010043688021502871,0.010043688021502871
88.87,0.010377637436525696,0.010377637436525696
88.87100000000001,0.009625541417700539,0.009625541417700539
88.872,0.007447918042089978,0.007447918042089978
88.873,0.003700099271486233,0.003700099271486233
88.87400000000001,0.0013804332582008328,-0.0013804332582008328
88.875,0.007090613387447973,-0.007090613387447973
88.876,0.012339993177265812,-0.012339993177265812
88.87700000000001,0.01589233502079489,-0.01589233502079489
88.878,0.016709970716439163,-0.016709970716439163
88.879,0.014294596888964268,-0.014294596888964268
88.88000000000001,0.008907279195448186,-0.008907279195448186
88.881,0.0015806670266190449,-0.0015806670266190449
88.882,0.006100527066861451,0.006100527066861451
88.88300000000001,0.012399304504817129,0.012399304504817129
88.884,0.015892799286766554,0.015892799286766554
88.885,0.01586476726397153,0.01586476726397153
88.88600000000001,0.012502115675563865,0.012502115675563865
88.887,0.006832388820689028,0.006832388820689028
88.888,0.00041953338083622853,0.00041953338083622853
88.88900000000001,0.005089252646385986,-0.005089252646385986
88.89,0.008427048806785464,-0.008427048806785464
88.891,0.009041393323864451,-0.009041393323864451
88.89200000000001,0.007202604845207338,-0.007202604845207338
88.893,0.003862509896991025,-0.003862509896991025
88.894,0.0003179255054996983,-0.0003179255054996983
88.89500000000001,0.0022086744777493916,0.0022086744777493916
88.896,0.002938694955444628,0.002938694955444628
88.897,0.0017470318923173836,0.0017470318923173836
88.89800000000001,0.0008425502860159101,-0.0008425502860159101
88.899,0.0038611415107516907,-0.0038611415107516907
88.9,0.006222238573437247,-0.006222238573437247
88.90100000000001,0.00706544007896202,-0.00706544007896202
88.902,0.006012000767578003,-0.006012000767578003
88.903,0.003263082075250924,-0.003263082075250924
88.90400000000001,0.000475576092760153,0.000475576092760153
88.905,0.004206472682059324,0.004206472682059324
88.906,0.00691887720031656,0.00691887720031656
88.90700000000001,0.007851195830766614,0.007851195830766614
88.908,0.006670313957518064,0.006670313957518064
88.909,0.0035327698332985355,0.0035327698332985355
88.91000000000001,0.0009714242560552652,-0.0009714242560552652
88.911,0.0059628721587053745,-0.0059628721587053745
88.912,0.010460936041423211,-0.010460936041423211
88.91300000000001,0.01357247025066456,-0.01357247025066456
88.914,0.014648315943044974,-0.014648315943044974
88.915,0.01338871031817422,-0.01338871031817422
88.91600000000001,0.009890276217493684,-0.009890276217493684
88.917,0.004633825966498336,-0.004633825966498336
88.918,0.0015848769761356272,0.0015848769761356272
88.91900000000001,0.0077764589137025355,0.0077764589137025355
88.92,0.012920490354730729,0.012920490354730729
88.921,0.016148564716645237,0.016148564716645237
88.92200000000001,0.016916340139038328,0.016916340139038328
88.923,0.015126335809227436,0.015126335809227436
88.924,0.011166216849597123,0.011166216849597123
88.92500000000001,0.005842423559868119,0.005842423559868119
88.926,0.00021419198293455308,0.00021419198293455308
88.927,0.004638550265084897,-0.004638550265084897
88.92800000000001,0.007857695932219739,-0.007857695932219739
88.929,0.008996726730211096,-0.008996726730211096
88.93,0.008106174863976313,-0.008106174863976313
88.93100000000001,0.005691579735075871,-0.005691579735075871
88.932,0.002557469713113935,-0.002557469713113935
88.933,0.0004158869274677646,0.0004158869274677646
88.93400000000001,0.002497648270488412,0.002497648270488412
88.935,0.0032705184897258354,0.0032705184897258354
88.936,0.002693125547648002,0.002693125547648002
88.93700000000001,0.0010541355070525734,0.0010541355070525734
88.938,0.0011544477998097534,-0.0011544477998097534
88.93900000000001,0.0033953022463543803,-0.0033953022463543803
88.94000000000001,0.005222486555363859,-0.005222486555363859
88.941,0.006359655224669088,-0.006359655224669088
88.94200000000001,0.006709470371784291,-0.006709470371784291
88.94300000000001,0.00631089416894219,-0.00631089416894219
88.944,0.005277561647904212,-0.005277561647904212
88.94500000000001,0.0037506373053811395,-0.0037506373053811395
88.94600000000001,0.0018847010143719421,-0.0018847010143719421
88.947,0.00013704231151695617,0.00013704231151695617
88.94800000000001,0.0020808249821153016,0.0020808249821153016
88.94900000000001,0.0036625966391541516,0.0036625966391541516
88.95,0.0045897436250151745,0.0045897436250151745
88.95100000000001,0.004641529132000272,0.004641529132000272
88.95200000000001,0.0037612455774566175,0.0037612455774566175
88.953,0.0021182322300567977,0.0021182322300567977
88.95400000000001,0.00010110890975920487,0.00010110890975920487
88.95500000000001,0.0017739329992955168,-0.0017739329992955168
88.956,0.003021488876018683,-0.003021488876018683
88.95700000000001,0.00336083700136767,-0.00336083700136767
88.95800000000001,0.002837740063605402,-0.002837740063605402
88.959,0.001835896056271895,-0.001835896056271895
88.96000000000001,0.0009549882593992387,-0.0009549882593992387
88.96100000000001,0.000782520021751249,-0.000782520021751249
88.962,0.0016335712291636086,-0.0016335712291636086
88.96300000000001,0.003357010759536951,-0.003357010759536951
88.96400000000001,0.0052958991380559995,-0.0052958991380559995
88.965,0.0064434840315446785,-0.0064434840315446785
88.96600000000001,0.005767708867880933,-0.005767708867880933
88.96700000000001,0.0026098456974998846,-0.0026098456974998846
88.968,0.002977916663484378,0.002977916663484378
88.96900000000001,0.01008731708559801,0.01008731708559801
88.97000000000001,0.017081007647788703,0.017081007647788703
88.971,0.02198564797538307,0.02198564797538307
88.97200000000001,0.023052613530720537,0.023052613530720537
88.97300000000001,0.0193206107281827,0.0193206107281827
88.974,0.010997996376940588,0.010997996376940588
88.97500000000001,0.0004737039309569324,-0.0004737039309569324
88.97600000000001,0.012720522732900407,-0.012720522732900407
88.977,0.023032506064544905,-0.023032506064544905
88.97800000000001,0.029089600730270254,-0.029089600730270254
88.97900000000001,0.029602347281898322,-0.029602347281898322
88.98,0.02467175354274822,-0.02467175354274822
88.98100000000001,0.015754928441640018,-0.015754928441640018
88.98200000000001,0.005243129894287295,-0.005243129894287295
88.983,0.00422160018793955,0.00422160018793955
88.98400000000001,0.010484829942897067,0.010484829942897067
88.98500000000001,0.012451918857839998,0.012451918857839998
88.986,0.010327765960232115,0.010327765960232115
88.98700000000001,0.005464312753624592,0.005464312753624592
88.988,0.00012138993747684225,-0.00012138993747684225
88.989,0.004396790173160108,-0.004396790173160108
88.99000000000001,0.005925229899175201,-0.005925229899175201
88.991,0.00425612053884209,-0.00425612053884209
88.992,9.558345951877673e-06,9.558345951877673e-06
88.99300000000001,0.005474315356322034,0.005474315356322034
88.994,0.010416581135126775,0.010416581135126775
88.995,0.013318550275842864,0.013318550275842864
88.99600000000001,0.013285286774133704,0.013285286774133704
88.997,0.01024159510963738,0.01024159510963738
88.998,0.004875189045815023,0.004875189045815023
88.99900000000001,0.0016223818589219533,-0.0016223818589219533
89.0,0.007909951839561478,-0.007909951839561478
89.001,0.012826687175595507,-0.012826687175595507
89.00200000000001,0.015608330869565073,-0.015608330869565073
89.003,0.015956261993226886,-0.015956261993226886
89.004,0.013983454736437731,-0.013983454736437731
89.00500000000001,0.01009818082221437,-0.01009818082221437
89.006,0.00489038149448315,-0.00489038149448315
89.007,0.0009402289097215416,0.0009402289097215416
89.00800000000001,0.006615728788021918,0.006615728788021918
89.009,0.011306765457830693,0.011306765457830693
89.01,0.01420058225754487,0.01420058225754487
89.01100000000001,0.014637047351749678,0.014637047351749678
89.012,0.012298235445105105,0.012298235445105105
89.013,0.007392856795187733,0.007392856795187733
89.01400000000001,0.000751523661390956,0.000751523661390956
89.015,0.0062418241173231,-0.0062418241173231
89.016,0.011911004011713229,-0.011911004011713229
89.01700000000001,0.01470083863493158,-0.01470083863493158
89.018,0.013635305635097154,-0.013635305635097154
89.019,0.008675860728600188,-0.008675860728600188
89.02000000000001,0.000845988762183129,-0.000845988762183129
89.021,0.007950819388203922,0.007950819388203922
89.022,0.015397796512737783,0.015397796512737783
89.02300000000001,0.019397171008535517,0.019397171008535517
89.024,0.018683353639912824,0.018683353639912824
89.025,0.013224339163328769,0.013224339163328769
89.02600000000001,0.004274734424470751,0.004274734424470751
89.027,0.005951335749350059,-0.005951335749350059
89.028,0.014898901709358708,-0.014898901709358708
89.02900000000001,0.02039818609528198,-0.02039818609528198
89.03,0.021275761453751183,-0.021275761453751183
89.031,0.017662415525799807,-0.017662415525799807
89.03200000000001,0.010904998431339687,-0.010904998431339687
89.033,0.0031158545380770924,-0.0031158545380770924
89.034,0.003491519969735305,0.003491519969735305
89.03500000000001,0.0072664881963081665,0.0072664881963081665
89.036,0.0075763972113114105,0.0075763972113114105
89.037,0.004918067136104446,0.004918067136104446
89.03800000000001,0.0006670753432554112,0.0006670753432554112
89.039,0.0034350563283631246,-0.0034350563283631246
89.04,0.005874436689477829,-0.005874436689477829
89.04100000000001,0.005840268320654931,-0.005840268320654931
89.042,0.0034332093112118983,-0.0034332093112118983
89.043,0.0004445708515260074,0.0004445708515260074
89.04400000000001,0.004458546229923706,0.004458546229923706
89.045,0.0073267405569576016,0.0073267405569576016
89.046,0.008246462766015952,0.008246462766015952
89.04700000000001,0.0071204095554708935,0.0071204095554708935
89.048,0.0045190043995687,0.0045190043995687
89.049,0.0014127201320431478,0.0014127201320431478
89.05000000000001,0.0012126418554733267,-0.0012126418554733267
89.051,0.0027104769778436995,-0.0027104769778436995
89.052,0.002971105596455063,-0.002971105596455063
89.05300000000001,0.0024013496519549532,-0.0024013496519549532
89.054,0.0017084992974939139,-0.0017084992974939139
89.055,0.0015822159813502646,-0.0015822159813502646
89.05600000000001,0.0024006645805107222,-0.0024006645805107222
89.057,0.0040714976022450285,-0.0040714976022450285
89.058,0.006062380773511641,-0.006062380773511641
89.05900000000001,0.0076022276385995366,-0.0076022276385995366
89.06,0.00797137654509385,-0.00797137654509385
89.061,0.006769545054032442,-0.006769545054032442
89.06200000000001,0.004063894129299229,-0.004063894129299229
89.063,0.0003687568158880554,-0.0003687568158880554
89.06400000000001,0.0035267658412949945,0.0035267658412949945
89.06500000000001,0.006812248193726755,0.006812248193726755
89.066,0.00889446716491098,0.00889446716491098
89.06700000000001,0.009538027115835164,0.009538027115835164
89.06800000000001,0.008868742689777815,0.008868742689777815
89.069,0.007256035717197956,0.007256035717197956
89.07000000000001,0.0051356244706114995,0.0051356244706114995
89.07100000000001,0.0028509338182020386,0.0028509338182020386
89.072,0.0005755550352343915,0.0005755550352343915
89.07300000000001,0.0016619413900432942,-0.0016619413900432942
89.07400000000001,0.003877205367185697,-0.003877205367185697
89.075,0.006013449065408002,-0.006013449065408002
89.07600000000001,0.007874618763814895,-0.007874618763814895
89.07700000000001,0.009149273208277162,-0.009149273208277162
89.078,0.009521740171001993,-0.009521740171001993
89.07900000000001,0.008822762588202769,-0.008822762588202769
89.08000000000001,0.007147360623213574,-0.007147360623213574
89.081,0.00487502950853625,-0.00487502950853625
89.08200000000001,0.0025654005250017897,-0.0025654005250017897
89.08300000000001,0.0007565727186031389,-0.0007565727186031389
89.084,0.0002588652062393657,0.0002588652062393657
89.08500000000001,0.0005847847269263236,0.0005847847269263236
89.08600000000001,0.0007225132289028412,0.0007225132289028412
89.087,0.0013980967821702254,0.0013980967821702254
89.08800000000001,0.0032613395242869266,0.0032613395242869266
89.08900000000001,0.00656089824410184,0.00656089824410184
89.09,0.01092334116492143,0.01092334116492143
89.09100000000001,0.015339871239834208,0.015339871239834208
89.09200000000001,0.01839735773452699,0.01839735773452699
89.093,0.018702329825335477,0.018702329825335477
89.09400000000001,0.015369178138953353,0.015369178138953353
89.09500000000001,0.008406727941816202,0.008406727941816202
89.096,0.001142721342757018,-0.001142721342757018
89.09700000000001,0.011384148843842949,-0.011384148843842949
89.09800000000001,0.020038335514160326,-0.020038335514160326
89.099,0.02506656385204071,-0.02506656385204071
89.10000000000001,0.025260313103901543,-0.025260313103901543
89.10100000000001,0.020607649369490926,-0.020607649369490926
89.102,0.012314557394844921,-0.012314557394844921
89.10300000000001,0.0024685637507608125,-0.0024685637507608125
89.10400000000001,0.006552789586453994,0.006552789586453994
89.105,0.012743926338374751,0.012743926338374751
89.10600000000001,0.014998046685891296,0.014998046685891296
89.10700000000001,0.01334050501370721,0.01334050501370721
89.108,0.008809604294509183,0.008809604294509183
89.10900000000001,0.003042156971341708,0.003042156971341708
89.11000000000001,0.002284984325262974,-0.002284984325262974
89.111,0.005966595111786225,-0.005966595111786225
89.11200000000001,0.007569806051301268,-0.007569806051301268
89.113,0.0074413822264094015,-0.0074413822264094015
89.114,0.00644523329443871,-0.00644523329443871
89.11500000000001,0.0055463615464954605,-0.0055463615464954605
89.116,0.005404132966522053,-0.005404132966522053
89.117,0.006123816315520744,-0.006123816315520744
89.11800000000001,0.007248317051033852,-0.007248317051033852
89.119,0.007978455988059852,-0.007978455988059852
89.12,0.007525317816930405,-0.007525317816930405
89.12100000000001,0.0054530324065459445,-0.0054530324065459445
89.122,0.0018800813546793322,-0.0018800813546793322
89.123,0.0025338368631100537,0.0025338368631100537
89.12400000000001,0.006804122186353274,0.006804122186353274
89.125,0.009952728180795152,0.009952728180795152
89.126,0.011326368410978003,0.011326368410978003
89.12700000000001,0.010783484047208518,0.010783484047208518
89.128,0.008687609501721412,0.008687609501721412
89.129,0.005722748169562661,0.005722748169562661
89.13000000000001,0.0026155535702219253,0.0026155535702219253
89.131,0.00011770682540349549,-0.00011770682540349549
89.132,0.002296933369508358,-0.002296933369508358
89.13300000000001,0.004031689610510443,-0.004031689610510443
89.134,0.005533216996488627,-0.005533216996488627
89.135,0.006878919224554496,-0.006878919224554496
89.13600000000001,0.007847335369134163,-0.007847335369134163
89.137,0.00791550983510105,-0.00791550983510105
89.138,0.006443301419099691,-0.006443301419099691
89.13900000000001,0.002986502650419568,-0.002986502650419568
89.14,0.002384106333857833,0.002384106333857833
89.141,0.008899816825974688,0.008899816825974688
89.14200000000001,0.015151821231067463,0.015151821231067463
89.143,0.01941120158833736,0.01941120158833736
89.144,0.020132498579756623,0.020132498579756623
89.14500000000001,0.016482938426834334,0.016482938426834334
89.146,0.008712287182575003,0.008712287182575003
89.147,0.0017828550351407834,-0.0017828550351407834
89.14800000000001,0.012751814240640907,-0.012751814240640907
89.149,0.02167176873328277,-0.02167176873328277
89.15,0.026448452667092996,-0.026448452667092996
89.15100000000001,0.02601680492009571,-0.02601680492009571
89.152,0.020647490849527363,-0.020647490849527363
89.153,0.011856883323859826,-0.011856883323859826
89.15400000000001,0.0019465129100127206,-0.0019465129100127206
89.155,0.006680529805212155,0.006680529805212155
89.156,0.012206218120247449,0.012206218120247449
89.15700000000001,0.013868948625215389,0.013868948625215389
89.158,0.012076887235415041,0.012076887235415041
89.159,0.008143628424623928,0.008143628424623928
89.16000000000001,0.003754185304386138,0.003754185304386138
89.161,0.00035722364151757934,0.00035722364151757934
89.162,0.0013026349664332752,-0.0013026349664332752
89.16300000000001,0.0013559892420658831,-0.0013559892420658831
89.164,0.0006381536883905882,-0.0006381536883905882
89.165,0.0002567118696613956,-0.0002567118696613956
89.16600000000001,0.0010705809591458654,-0.0010705809591458654
89.167,0.0032833084990005388,-0.0032833084990005388
89.168,0.00630822248993015,-0.00630822248993015
89.16900000000001,0.008960427734462586,-0.008960427734462586
89.17,0.009907910895010735,-0.009907910895010735
89.171,0.00821569481257882,-0.00821569481257882
89.17200000000001,0.003778700103169757,-0.003778700103169757
89.173,0.002525227904791081,0.002525227904791081
89.174,0.00903326610526565,0.00903326610526565
89.17500000000001,0.013793129890039018,0.013793129890039018
89.176,0.015195185537230977,0.015195185537230977
89.177,0.012527697550401501,0.012527697550401501
89.17800000000001,0.006263024774156456,0.006263024774156456
