Czas,AbsSum,Sum
70.37700000000001,0.2265583298680255,-0.2265583298680255
70.378,0.217535248241988,-0.217535248241988
70.379,0.20181268472899971,-0.20181268472899971
70.38000000000001,0.17895563327241026,-0.17895563327241026
70.381,0.15042197377389,-0.15042197377389
70.382,0.11950701303908684,-0.11950701303908684
70.38300000000001,0.09076621551358866,-0.09076621551358866
70.384,0.0690597500408272,-0.0690597500408272
70.385,0.05846226649491848,-0.05846226649491848
70.38600000000001,0.06131014697977888,-0.06131014697977888
70.387,0.07761368425446258,-0.07761368425446258
70.388,0.10496215332953518,-0.10496215332953518
70.38900000000001,0.13892778387396465,-0.13892778387396465
70.39,0.17386413177638305,-0.17386413177638305
70.391,0.20392044734700576,-0.20392044734700576
70.39200000000001,0.22406696045365493,-0.22406696045365493
70.393,0.23094286180314616,-0.23094286180314616
70.394,0.2233862604919522,-0.2233862604919522
70.39500000000001,0.20256842169956313,-0.20256842169956313
70.396,0.17172131372105082,-0.17172131372105082
70.397,0.13551124703682194,-0.13551124703682194
70.39800000000001,0.09916866825377357,-0.09916866825377357
70.399,0.067530716241894,-0.067530716241894
70.4,0.04418095010744172,-0.04418095010744172
70.40100000000001,0.030868382517279302,-0.030868382517279302
70.402,0.027345411941488318,-0.027345411941488318
70.403,0.0316793119360218,-0.0316793119360218
70.40400000000001,0.04097645452252474,-0.04097645452252474
70.405,0.05233952627743299,-0.05233952627743299
70.406,0.0637924681903359,-0.0637924681903359
70.40700000000001,0.07489059576099666,-0.07489059576099666
70.408,0.08680309188774982,-0.08680309188774982
70.409,0.10180345585372419,-0.10180345585372419
70.41000000000001,0.12229250760739563,-0.12229250760739563
70.411,0.14964909589362818,-0.14964909589362818
70.412,0.18329393287234808,-0.18329393287234808
70.41300000000001,0.22031990124091405,-0.22031990124091405
70.414,0.255883838793313,-0.255883838793313
70.415,0.28431114990151674,-0.28431114990151674
70.41600000000001,0.3006122432436451,-0.3006122432436451
70.417,0.30193738629217326,-0.30193738629217326
70.418,0.2884737915919472,-0.2884737915919472
70.41900000000001,0.2634388457107081,-0.2634388457107081
70.42,0.23210972712058686,-0.23210972712058686
70.421,0.2001628871503952,-0.2001628871503952
70.42200000000001,0.17186210125443058,-0.17186210125443058
70.423,0.1487297586186862,-0.1487297586186862
70.424,0.12921297243697893,-0.12921297243697893
70.42500000000001,0.1095383613051063,-0.1095383613051063
70.426,0.08553339457548848,-0.08553339457548848
70.427,0.054818129927937886,-0.054818129927937886
70.42800000000001,0.018576398642772496,-0.018576398642772496
70.429,0.017814553435374192,0.017814553435374192
70.43,0.0456834326998119,0.0456834326998119
70.43100000000001,0.055377872178837384,0.055377872178837384
70.432,0.03936478078177341,0.03936478078177341
70.433,0.004849993178985601,-0.004849993178985601
70.43400000000001,0.07299158875555478,-0.07299158875555478
70.435,0.1541863892360763,-0.1541863892360763
70.436,0.23318154440160632,-0.23318154440160632
70.43700000000001,0.2941073938803589,-0.2941073938803589
70.438,0.32474019436313073,-0.32474019436313073
70.43900000000001,0.31999057926951335,-0.31999057926951335
70.44000000000001,0.2835092485601787,-0.2835092485601787
70.441,0.22683184401866152,-0.22683184401866152
70.44200000000001,0.16622424423481874,-0.16622424423481874
70.44300000000001,0.11810701212149999,-0.11810701212149999
70.444,0.09440163545532365,-0.09440163545532365
70.44500000000001,0.09919515848547178,-0.09919515848547178
70.44600000000001,0.1277365818016596,-0.1277365818016596
70.447,0.1680719139788449,-0.1680719139788449
70.44800000000001,0.2048153758319161,-0.2048153758319161
70.44900000000001,0.22389827417072128,-0.22389827417072128
70.45,0.21684326620785332,-0.21684326620785332
70.45100000000001,0.18327294477686829,-0.18327294477686829
70.45200000000001,0.1309241989723312,-0.1309241989723312
70.453,0.07322123953124893,-0.07322123953124893
70.45400000000001,0.025209636772083543,-0.025209636772083543
70.45500000000001,0.0008656909510738053,0.0008656909510738053
70.456,0.0010102728692065188,-0.0010102728692065188
70.45700000000001,0.02917724555041401,-0.02917724555041401
70.45800000000001,0.07517580891213771,-0.07517580891213771
70.459,0.12655306182251203,-0.12655306182251203
70.46000000000001,0.17063543383988022,-0.17063543383988022
70.46100000000001,0.1980700582312055,-0.1980700582312055
70.462,0.20509162806820647,-0.20509162806820647
70.46300000000001,0.19394593749227573,-0.19394593749227573
70.46400000000001,0.17152069889815347,-0.17152069889815347
70.465,0.14678744027003066,-0.14678744027003066
70.46600000000001,0.12796932997682398,-0.12796932997682398
70.46700000000001,0.12033542362383598,-0.12033542362383598
70.468,0.1252144393608534,-0.1252144393608534
70.46900000000001,0.14035040530106335,-0.14035040530106335
70.47000000000001,0.16126417855492436,-0.16126417855492436
70.471,0.18299629230872427,-0.18299629230872427
70.47200000000001,0.20157240459700032,-0.20157240459700032
70.47300000000001,0.21473922275060386,-0.21473922275060386
70.474,0.22186599506962357,-0.22186599506962357
70.47500000000001,0.22325025781348462,-0.22325025781348462
70.47600000000001,0.21927470447614728,-0.21927470447614728
70.477,0.20986446271219605,-0.20986446271219605
70.47800000000001,0.1945053633864453,-0.1945053633864453
70.479,0.1727937387431212,-0.1727937387431212
70.48,0.1452234235503771,-0.1452234235503771
70.48100000000001,0.11378785374200606,-0.11378785374200606
70.482,0.0820374137318719,-0.0820374137318719
70.483,0.05445823651607351,-0.05445823651607351
70.48400000000001,0.035334403341590104,-0.035334403341590104
70.485,0.027497099230886834,-0.027497099230886834
70.486,0.031448127466690456,-0.031448127466690456
70.48700000000001,0.04522994275294223,-0.04522994275294223
70.488,0.0651387745162203,-0.0651387745162203
70.489,0.0870465711680678,-0.0870465711680678
70.49000000000001,0.10784262524110544,-0.10784262524110544
70.491,0.12643280090519626,-0.12643280090519626
70.492,0.14388126115468325,-0.14388126115468325
70.49300000000001,0.16259921850893866,-0.16259921850893866
70.494,0.18486045903940151,-0.18486045903940151
70.495,0.2112103686304755,-0.2112103686304755
70.49600000000001,0.23941795371064045,-0.23941795371064045
70.497,0.26445648829502577,-0.26445648829502577
70.498,0.27963807779844274,-0.27963807779844274
70.49900000000001,0.2785976351214593,-0.2785976351214593
70.5,0.25748109893578564,-0.25748109893578564
70.501,0.21657266175668832,-0.21657266175668832
70.50200000000001,0.1607504257645057,-0.1607504257645057
70.503,0.09854326611247366,-0.09854326611247366
70.504,0.04004163908493841,-0.04004163908493841
70.50500000000001,0.005680157404552855,0.005680157404552855
70.506,0.032792231832994956,0.032792231832994956
70.507,0.03986428791769492,0.03986428791769492
70.50800000000001,0.029598181902477982,0.029598181902477982
70.509,0.007290668014795498,0.007290668014795498
70.51,0.021370767678469238,-0.021370767678469238
70.51100000000001,0.05234331654676694,-0.05234331654676694
70.512,0.08433280663699083,-0.08433280663699083
70.513,0.11856013139434651,-0.11856013139434651
70.51400000000001,0.1572975869563754,-0.1572975869563754
70.515,0.20176599890811364,-0.20176599890811364
70.516,0.25025692221860807,-0.25025692221860807
70.51700000000001,0.2973006121628603,-0.2973006121628603
70.518,0.33434653002480397,-0.33434653002480397
70.519,0.35187904494455857,-0.35187904494455857
70.52000000000001,0.34234911790340716,-0.34234911790340716
70.521,0.30295949126850297,-0.30295949126850297
70.522,0.23732584557366743,-0.23732584557366743
70.52300000000001,0.15536454409643996,-0.15536454409643996
70.524,0.07132220739520645,-0.07132220739520645
70.525,0.0004713199153139058,-0.0004713199153139058
70.52600000000001,0.044560760670203425,0.044560760670203425
70.527,0.0567384173897445,0.0567384173897445
70.528,0.03598770734714485,0.03598770734714485
70.52900000000001,0.011345424361694945,-0.011345424361694945
70.53,0.07466817996596964,-0.07466817996596964
70.531,0.14216379227858578,-0.14216379227858578
70.53200000000001,0.20366612009822993,-0.20366612009822993
70.533,0.25252174393402127,-0.25252174393402127
70.534,0.28600057604982076,-0.28600057604982076
70.53500000000001,0.30437010374590545,-0.30437010374590545
70.536,0.3092257544796485,-0.3092257544796485
70.537,0.30189695407788797,-0.30189695407788797
70.53800000000001,0.2826470452341212,-0.2826470452341212
70.539,0.2510007757232261,-0.2510007757232261
70.54,0.207017520431107,-0.207017520431107
70.54100000000001,0.15288389695312943,-0.15288389695312943
70.542,0.0940030563637404,-0.0940030563637404
70.543,0.038895089419900164,-0.038895089419900164
70.54400000000001,0.00234616307159774,0.00234616307159774
70.545,0.020723062918509783,0.020723062918509783
70.546,0.011313996790252911,0.011313996790252911
70.54700000000001,0.02448779567043613,-0.02448779567043613
70.548,0.07839013820035279,-0.07839013820035279
70.549,0.13670395667023616,-0.13670395667023616
70.55000000000001,0.1836868552784221,-0.1836868552784221
70.551,0.20584146803746972,-0.20584146803746972
70.552,0.19589834786126425,-0.19589834786126425
70.55300000000001,0.15523189419878825,-0.15523189419878825
70.554,0.09388894410343207,-0.09388894410343207
70.555,0.028123552450113887,-0.028123552450113887
70.55600000000001,0.02389948841583056,0.02389948841583056
70.557,0.046995591338565346,0.046995591338565346
70.558,0.03301775727386369,0.03301775727386369
70.55900000000001,0.017092483886166687,-0.017092483886166687
70.56,0.09381458570283296,-0.09381458570283296
70.561,0.18189088661389108,-0.18189088661389108
70.56200000000001,0.26457868431855835,-0.26457868431855835
70.563,0.32800242701614024,-0.32800242701614024
70.56400000000001,0.364329001453479,-0.364329001453479
70.56500000000001,0.372918566274799,-0.372918566274799
70.566,0.35927755884472445,-0.35927755884472445
70.56700000000001,0.3323339421531386,-0.3323339421531386
70.56800000000001,0.30104456382818046,-0.30104456382818046
70.569,0.271483199052415,-0.271483199052415
70.57000000000001,0.24531863301073498,-0.24531863301073498
70.57100000000001,0.22007243467038595,-0.22007243467038595
70.572,0.19092993600615016,-0.19092993600615016
70.57300000000001,0.15337152222958128,-0.15337152222958128
70.57400000000001,0.1056542030378883,-0.1056542030378883
70.575,0.050268611474289404,-0.050268611474289404
70.57600000000001,0.006124832264216007,0.006124832264216007
70.57700000000001,0.054253398303794054,0.054253398303794054
70.578,0.08476537425222785,0.08476537425222785
70.57900000000001,0.0909203454046219,0.0909203454046219
70.58000000000001,0.07059194340070984,0.07059194340070984
70.581,0.026980771902794798,0.026980771902794798
70.58200000000001,0.03214731150997585,-0.03214731150997585
70.58300000000001,0.0964310984048593,-0.0964310984048593
70.584,0.15548221342670843,-0.15548221342670843
70.58500000000001,0.20130310859810896,-0.20130310859810896
70.58600000000001,0.22989860376782345,-0.22989860376782345
70.587,0.24170098605077706,-0.24170098605077706
70.58800000000001,0.24079133165984612,-0.24079133165984612
70.58900000000001,0.23323526985435283,-0.23323526985435283
70.59,0.2250666510257181,-0.2250666510257181
70.59100000000001,0.22049980856783646,-0.22049980856783646
70.59200000000001,0.22083613379207434,-0.22083613379207434
70.593,0.22430359982913806,-0.22430359982913806
70.59400000000001,0.22680216668687647,-0.22680216668687647
70.59500000000001,0.22329656457769342,-0.22329656457769342
70.596,0.20945383283815622,-0.20945383283815622
70.59700000000001,0.18308966842908225,-0.18308966842908225
70.59800000000001,0.1450593734417176,-0.1450593734417176
70.599,0.09937854890403985,-0.09937854890403985
70.60000000000001,0.05254680959315816,-0.05254680959315816
70.60100000000001,0.01223367122632446,-0.01223367122632446
70.602,0.014367372773082643,0.014367372773082643
70.60300000000001,0.022131250804109603,0.022131250804109603
70.604,0.009160402379315924,0.009160402379315924
70.605,0.02277592894547542,-0.02277592894547542
70.60600000000001,0.06864227570930026,-0.06864227570930026
70.607,0.12129122207604259,-0.12129122207604259
70.608,0.17308750529554806,-0.17308750529554806
70.60900000000001,0.2175829186816418,-0.2175829186816418
70.61,0.2507951892705177,-0.2507951892705177
70.611,0.27174324204248956,-0.27174324204248956
70.61200000000001,0.28210077626921093,-0.28210077626921093
70.613,0.2850956235994262,-0.2850956235994262
70.614,0.28402433292591245,-0.28402433292591245
70.61500000000001,0.2808883076076203,-0.2808883076076203
70.616,0.27563417022149994,-0.27563417022149994
70.617,0.2662903833822232,-0.2662903833822232
70.61800000000001,0.24998542199758644,-0.24998542199758644
70.619,0.22450698826726767,-0.22450698826726767
70.62,0.18983062576300946,-0.18983062576300946
70.62100000000001,0.14900119605537554,-0.14900119605537554
70.622,0.10792624808195561,-0.10792624808195561
70.623,0.07399504369692944,-0.07399504369692944
70.62400000000001,0.05386140899090597,-0.05386140899090597
70.625,0.051077614140947025,-0.051077614140947025
70.626,0.06440807114382985,-0.06440807114382985
70.62700000000001,0.08751493846313896,-0.08751493846313896
70.628,0.1103136825100055,-0.1103136825100055
70.629,0.12175840474350241,-0.12175840474350241
70.63000000000001,0.11330735143447535,-0.11330735143447535
70.631,0.08201555962943974,-0.08201555962943974
70.632,0.032223833499942844,-0.032223833499942844
70.63300000000001,0.024821782041894558,0.024821782041894558
70.634,0.07347641929642146,0.07347641929642146
70.635,0.0977179936217436,0.0977179936217436
70.63600000000001,0.08556510995846289,0.08556510995846289
70.637,0.03259731269264554,0.03259731269264554
70.638,0.056487308269962955,-0.056487308269962955
70.63900000000001,0.1687696341199938,-0.1687696341199938
70.64,0.2862148413467628,-0.2862148413467628
70.641,0.3900674352292439,-0.3900674352292439
70.64200000000001,0.4652346053976697,-0.4652346053976697
70.643,0.5033875295850045,-0.5033875295850045
70.644,0.5039463497593863,-0.5039463497593863
70.64500000000001,0.47281159039714715,-0.47281159039714715
70.646,0.4194308406310914,-0.4194308406310914
70.647,0.35330257861794645,-0.35330257861794645
70.64800000000001,0.28114910476466326,-0.28114910476466326
70.649,0.20569794928684826,-0.20569794928684826
70.65,0.12640037779520208,-0.12640037779520208
70.65100000000001,0.04170010846658634,-0.04170010846658634
70.652,0.04810580030827061,0.04810580030827061
70.653,0.13859955886492004,0.13859955886492004
70.65400000000001,0.22055806965171776,0.22055806965171776
70.655,0.2812864383133218,0.2812864383133218
70.656,0.30768353323775477,0.30768353323775477
70.65700000000001,0.29011411455438707,0.29011411455438707
70.658,0.22582664877100456,0.22582664877100456
70.659,0.12074341253242848,0.12074341253242848
70.66000000000001,0.011065218229711293,-0.011065218229711293
70.661,0.15018741052362894,-0.15018741052362894
70.662,0.2762019074442549,-0.2762019074442549
70.66300000000001,0.372299546272151,-0.372299546272151
70.664,0.4288737975629552,-0.4288737975629552
70.665,0.44509297691893457,-0.44509297691893457
70.66600000000001,0.4281009004246117,-0.4281009004246117
70.667,0.390214955756766,-0.390214955756766
70.668,0.3450656432137439,-0.3450656432137439
70.66900000000001,0.303871644417109,-0.303871644417109
70.67,0.2729062671817061,-0.2729062671817061
70.671,0.25275284971186407,-0.25275284971186407
70.67200000000001,0.2393388120347123,-0.2393388120347123
70.673,0.22619032935429295,-0.22619032935429295
70.674,0.20703762931978065,-0.20703762931978065
70.67500000000001,0.17790771740760836,-0.17790771740760836
70.676,0.13813432937274228,-0.13813432937274228
70.677,0.09016463349331572,-0.09016463349331572
70.67800000000001,0.038474400556266386,-0.038474400556266386
70.679,0.011835682104914369,0.011835682104914369
70.68,0.05617883744318197,0.05617883744318197
70.68100000000001,0.09099069003481386,0.09099069003481386
70.682,0.11358301010031835,0.11358301010031835
70.683,0.1216347886499638,0.1216347886499638
70.68400000000001,0.11277469781187155,0.11277469781187155
70.685,0.0846536553487669,0.0846536553487669
70.686,0.03566046968687053,0.03566046968687053
70.68700000000001,0.033898398335282964,-0.033898398335282964
70.688,0.12061243832739821,-0.12061243832739821
70.68900000000001,0.21733660246923925,-0.21733660246923925
70.69000000000001,0.3135574886561332,-0.3135574886561332
70.691,0.3968829256114995,-0.3968829256114995
70.69200000000001,0.4553857766474735,-0.4553857766474735
70.69300000000001,0.48020012833619263,-0.48020012833619263
70.694,0.46762438040892385,-0.46762438040892385
70.69500000000001,0.420090379961494,-0.420090379961494
70.69600000000001,0.34568106845572477,-0.34568106845572477
70.697,0.25631313791501775,-0.25631313791501775
70.69800000000001,0.1650986696235891,-0.1650986696235891
70.69900000000001,0.08362730972765742,-0.08362730972765742
70.7,0.01989622293923754,-0.01989622293923754
70.70100000000001,0.022627432285721616,0.022627432285721616
70.70200000000001,0.04470528458006706,0.04470528458006706
70.703,0.0500610513882187,0.0500610513882187
70.70400000000001,0.0436742267108694,0.0436742267108694
70.70500000000001,0.030210821713202884,0.030210821713202884
70.706,0.013019364122739185,0.013019364122739185
70.70700000000001,0.006152653050885637,-0.006152653050885637
70.70800000000001,0.02684955484839302,-0.02684955484839302
70.709,0.04931728691789683,-0.04931728691789683
70.71000000000001,0.07396869401798023,-0.07396869401798023
70.71100000000001,0.10111479869372941,-0.10111479869372941
70.712,0.13096761933503487,-0.13096761933503487
70.71300000000001,0.16373830922119048,-0.16373830922119048
70.71400000000001,0.19958473645232688,-0.19958473645232688
70.715,0.23824206023149408,-0.23824206023149408
70.71600000000001,0.27836643387386517,-0.27836643387386517
70.71700000000001,0.31684636429013524,-0.31684636429013524
70.718,0.3484780864925251,-0.3484780864925251
70.71900000000001,0.3663760412666348,-0.3663760412666348
70.72000000000001,0.36327741263968194,-0.36327741263968194
70.721,0.3335603412258331,-0.3335603412258331
70.72200000000001,0.27545107272643543,-0.27545107272643543
70.72300000000001,0.192687097655872,-0.192687097655872
70.724,0.09493670677950994,-0.09493670677950994
70.72500000000001,0.003425229257453921,0.003425229257453921
70.72600000000001,0.08609417817038345,0.08609417817038345
70.727,0.13854545943912888,0.13854545943912888
70.72800000000001,0.15167351889867753,0.15167351889867753
70.729,0.12427078791470603,0.12427078791470603
70.73,0.06352154060553539,0.06352154060553539
70.73100000000001,0.016756484378715908,-0.016756484378715908
70.732,0.09970701053486164,-0.09970701053486164
70.733,0.16986206969240614,-0.16986206969240614
70.73400000000001,0.21710103486490362,-0.21710103486490362
70.735,0.23895149833795137,-0.23895149833795137
70.736,0.24053550750538177,-0.24053550750538177
70.73700000000001,0.23219422114744448,-0.23219422114744448
70.738,0.22555783698156984,-0.22555783698156984
70.739,0.22932694387585695,-0.22932694387585695
70.74000000000001,0.24612988898655475,-0.24612988898655475
70.741,0.271480972812161,-0.271480972812161
70.742,0.29519212558741603,-0.29519212558741603
70.74300000000001,0.3048015305958667,-0.3048015305958667
70.744,0.2899308701837079,-0.2899308701837079
70.745,0.24617832534861095,-0.24617832534861095
70.74600000000001,0.1772936729867025,-0.1772936729867025
70.747,0.0949171109900846,-0.0949171109900846
70.748,0.015919997330031577,-0.015919997330031577
70.74900000000001,0.04187959308195355,0.04187959308195355
70.75,0.06437178179310266,0.06437178179310266
70.751,0.04484096536905313,0.04484096536905313
70.75200000000001,0.014330447027834814,-0.014330447027834814
70.753,0.10233589462812698,-0.10233589462812698
70.754,0.2026866272214065,-0.2026866272214065
70.75500000000001,0.2971444544396846,-0.2971444544396846
70.756,0.3697046232081276,-0.3697046232081276
70.757,0.4095892187259853,-0.4095892187259853
70.75800000000001,0.412615694644623,-0.412615694644623
70.759,0.38085753729687555,-0.38085753729687555
70.76,0.32102327923252916,-0.32102327923252916
70.76100000000001,0.24228466211934996,-0.24228466211934996
70.762,0.1543056085327601,-0.1543056085327601
70.763,0.06598529995014113,-0.06598529995014113
70.76400000000001,0.01495637351059842,0.01495637351059842
70.765,0.08179894503951957,0.08179894503951957
70.766,0.12852158414912318,0.12852158414912318
70.76700000000001,0.14985788435332226,0.14985788435332226
70.768,0.14196461693988915,0.14196461693988915
70.769,0.10362544269665519,0.10362544269665519
70.77000000000001,0.03758493998358592,0.03758493998358592
70.771,0.04857457244183383,-0.04857457244183383
70.772,0.1425636090243505,-0.1425636090243505
70.77300000000001,0.22881781176703153,-0.22881781176703153
70.774,0.2911310682910765,-0.2911310682910765
70.775,0.31598255338819914,-0.31598255338819914
70.77600000000001,0.2957680556434519,-0.2957680556434519
70.777,0.23108177146560416,-0.23108177146560416
70.778,0.13137584614278286,-0.13137584614278286
70.77900000000001,0.013703022383450225,-0.013703022383450225
70.78,0.10028290634924808,0.10028290634924808
70.781,0.18846244491412856,0.18846244491412856
70.78200000000001,0.2326343630852865,0.2326343630852865
70.783,0.22219796373602763,0.22219796373602763
70.784,0.1563438019414476,0.1563438019414476
70.78500000000001,0.04429673056869032,0.04429673056869032
70.786,0.09642501411182014,-0.09642501411182014
70.787,0.24336268090113744,-0.24336268090113744
70.78800000000001,0.3733968882958082,-0.3733968882958082
70.789,0.4671060210646343,-0.4671060210646343
70.79,0.512359331926229,-0.512359331926229
70.79100000000001,0.5064612881103854,-0.5064612881103854
70.792,0.45644388540843184,-0.45644388540843184
70.793,0.37745344864098285,-0.37745344864098285
70.79400000000001,0.2895400988050316,-0.2895400988050316
70.795,0.21347147558713686,-0.21347147558713686
70.796,0.16640039383391814,-0.16640039383391814
70.79700000000001,0.158272633124527,-0.158272633124527
70.798,0.1897410237600783,-0.1897410237600783
70.799,0.2520624857001489,-0.2520624857001489
70.80000000000001,0.3290415147264921,-0.3290415147264921
70.801,0.40062898198190644,-0.40062898198190644
70.802,0.4473934433443919,-0.4473934433443919
70.80300000000001,0.45485547574467355,-0.45485547574467355
70.804,0.41668426945200265,-0.41668426945200265
70.805,0.33601379365917816,-0.33601379365917816
70.80600000000001,0.22458982851216802,-0.22458982851216802
70.807,0.09999665993119111,-0.09999665993119111
70.808,0.018309857671670038,0.018309857671670038
70.80900000000001,0.11315113292670054,0.11315113292670054
70.81,0.17293516970612233,0.17293516970612233
70.811,0.19337465748579108,0.19337465748579108
70.81200000000001,0.17733192120074137,0.17733192120074137
70.813,0.13303855610910342,0.13303855610910342
70.81400000000001,0.07136809076036665,0.07136809076036665
70.81500000000001,0.003043422194354495,0.003043422194354495
70.816,0.06341846133444062,-0.06341846133444062
70.81700000000001,0.12254845816336091,-0.12254845816336091
70.81800000000001,0.17153669034404873,-0.17153669034404873
70.819,0.20902957413329837,-0.20902957413329837
70.82000000000001,0.23379087560589384,-0.23379087560589384
70.82100000000001,0.24390783035546348,-0.24390783035546348
70.822,0.23696946161242527,-0.23696946161242527
70.82300000000001,0.21122507076125363,-0.21122507076125363
70.82400000000001,0.16729671422424763,-0.16729671422424763
70.825,0.10972818398791873,-0.10972818398791873
70.82600000000001,0.04761579435241614,-0.04761579435241614
70.82700000000001,0.00619139411723113,0.00619139411723113
70.828,0.03738315325913244,0.03738315325913244
70.82900000000001,0.03351764437362159,0.03351764437362159
70.83000000000001,0.012472318230155599,-0.012472318230155599
70.831,0.09961615013544067,-0.09961615013544067
70.83200000000001,0.21795157535298992,-0.21795157535298992
70.83300000000001,0.34971594229471614,-0.34971594229471614
70.834,0.4725376651866152,-0.4725376651866152
70.83500000000001,0.5639243973726755,-0.5639243973726755
70.83600000000001,0.6059765048094041,-0.6059765048094041
70.837,0.5891845133800355,-0.5891845133800355
70.83800000000001,0.5144131167462032,-0.5144131167462032
70.83900000000001,0.3926530519454573,-0.3926530519454573
70.84,0.2426898865834788,-0.2426898865834788
70.84100000000001,0.08733101872724325,-0.08733101872724325
70.84200000000001,0.0508824110540147,0.0508824110540147
70.843,0.15353328645044906,0.15353328645044906
70.84400000000001,0.20903371870639176,0.20903371870639176
70.84500000000001,0.21382620560803933,0.21382620560803933
70.846,0.1721205582267702,0.1721205582267702
70.84700000000001,0.09450287455311623,0.09450287455311623
70.84800000000001,0.0041125445737490995,-0.0041125445737490995
70.849,0.10674669253307556,-0.10674669253307556
70.85000000000001,0.19653097109665096,-0.19653097109665096
70.85100000000001,0.2586517163043196,-0.2586517163043196
70.852,0.28202912738949637,-0.28202912738949637
70.85300000000001,0.26070794127015673,-0.26070794127015673
70.854,0.19486612804407677,-0.19486612804407677
70.855,0.09124932474050163,-0.09124932474050163
70.85600000000001,0.03721245853043076,0.03721245853043076
70.857,0.17279288542476956,0.17279288542476956
70.858,0.2953678467269927,0.2953678467269927
70.85900000000001,0.38556208242605505,0.38556208242605505
70.86,0.42810992455886776,0.42810992455886776
70.861,0.41472252544712385,0.41472252544712385
70.86200000000001,0.34575968799179746,0.34575968799179746
70.863,0.23021905007680465,0.23021905007680465
70.864,0.08394006736852333,0.08394006736852333
70.86500000000001,0.07362506317030426,-0.07362506317030426
70.866,0.22332914417922944,-0.22332914417922944
70.867,0.3499854139475834,-0.3499854139475834
70.86800000000001,0.44486204539564067,-0.44486204539564067
70.869,0.506425319353266,-0.506425319353266
70.87,0.5392234490557766,-0.5392234490557766
70.87100000000001,0.5513216131839727,-0.5513216131839727
70.872,0.551100661513107,-0.551100661513107
70.873,0.5443961619075274,-0.5443961619075274
70.87400000000001,0.5328295995756341,-0.5328295995756341
70.875,0.5138047394656691,-0.5138047394656691
70.876,0.48212144078728025,-0.48212144078728025
70.87700000000001,0.4326523409441836,-0.4326523409441836
70.878,0.3631877104094545,-0.3631877104094545
70.879,0.27648454027271196,-0.27648454027271196
70.88000000000001,0.18078151754030392,-0.18078151754030392
70.881,0.08849825404711076,-0.08849825404711076
70.882,0.013392017537249168,-0.013392017537249168
70.88300000000001,0.03306513467090233,0.03306513467090233
70.884,0.04504775902708502,0.04504775902708502
70.885,0.024455813594818077,0.024455813594818077
70.88600000000001,0.01899075391346461,-0.01899075391346461
70.887,0.06980836622529929,-0.06980836622529929
70.888,0.11052079304135654,-0.11052079304135654
70.88900000000001,0.126205801758549,-0.126205801758549
70.89,0.10861980619752376,-0.10861980619752376
70.891,0.05876604719646028,-0.05876604719646028
70.89200000000001,0.012852422851752365,0.012852422851752365
70.893,0.0884606160986483,0.0884606160986483
70.894,0.14723159538178132,0.14723159538178132
70.89500000000001,0.1704691996200085,0.1704691996200085
70.896,0.14644457090899166,0.14644457090899166
70.897,0.07363842238638219,0.07363842238638219
70.89800000000001,0.038468364826779955,-0.038468364826779955
70.899,0.17129186266032903,-0.17129186266032903
70.9,0.3012759666785404,-0.3012759666785404
70.90100000000001,0.4052268050315695,-0.4052268050315695
70.902,0.4655120017703702,-0.4655120017703702
70.903,0.47382905666373787,-0.47382905666373787
70.90400000000001,0.4326311792990043,-0.4326311792990043
70.905,0.35392145185841095,-0.35392145185841095
70.906,0.2558190210518848,-0.2558190210518848
70.90700000000001,0.15787587708742779,-0.15787587708742779
70.908,0.07642315361640828,-0.07642315361640828
70.909,0.0211709445280569,-0.0211709445280569
70.91000000000001,0.006106303484960662,0.006106303484960662
70.911,0.0105824144954616,0.0105824144954616
70.912,0.001536156605010719,0.001536156605010719
70.91300000000001,0.011383186237140186,-0.011383186237140186
70.914,0.02159033728261972,-0.02159033728261972
70.915,0.027638066913850734,-0.027638066913850734
70.91600000000001,0.033316545712841594,-0.033316545712841594
70.917,0.045791971043829705,-0.045791971043829705
70.918,0.07241962813427749,-0.07241962813427749
70.91900000000001,0.11729313847829648,-0.11729313847829648
70.92,0.17869319645496262,-0.17869319645496262
70.921,0.24834200381994642,-0.24834200381994642
70.92200000000001,0.3128280756792692,-0.3128280756792692
70.923,0.3569006740659839,-0.3569006740659839
70.924,0.36774309442736064,-0.36774309442736064
70.92500000000001,0.3389976852453388,-0.3389976852453388
70.926,0.2733365264377462,-0.2733365264377462
70.927,0.18274799724555546,-0.18274799724555546
70.92800000000001,0.08633373486965301,-0.08633373486965301
70.929,0.0061025786920919645,-0.0061025786920919645
70.93,0.03819102602543367,0.03819102602543367
70.93100000000001,0.03384596780224891,0.03384596780224891
70.932,0.021575216741249403,-0.021575216741249403
70.933,0.11942816714846849,-0.11942816714846849
70.93400000000001,0.241737190397336,-0.241737190397336
70.935,0.3650383514812745,-0.3650383514812745
70.936,0.4653390450306042,-0.4653390450306042
70.93700000000001,0.5229965326846803,-0.5229965326846803
70.938,0.5264160637685495,-0.5264160637685495
70.93900000000001,0.47383651415500316,-0.47383651415500316
70.94000000000001,0.37298777731447685,-0.37298777731447685
70.941,0.23891970400135387,-0.23891970400135387
70.94200000000001,0.09068352958423909,-0.09068352958423909
70.94300000000001,0.052287838269494236,0.052287838269494236
70.944,0.17331663064050207,0.17331663064050207
70.94500000000001,0.26058887245645046,0.26058887245645046
70.94600000000001,0.30801431128653833,0.30801431128653833
70.947,0.3149302790884225,0.3149302790884225
70.94800000000001,0.2849689983759851,0.2849689983759851
70.94900000000001,0.22451279977569594,0.22451279977569594
70.95,0.14114977734307854,0.14114977734307854
70.95100000000001,0.042446880433523626,0.042446880433523626
70.95200000000001,0.06477855969444812,-0.06477855969444812
70.953,0.1746478828749638,-0.1746478828749638
70.95400000000001,0.28195219619670264,-0.28195219619670264
70.95500000000001,0.38160350860462344,-0.38160350860462344
70.956,0.46805097567110665,-0.46805097567110665
70.95700000000001,0.5349373098740711,-0.5349373098740711
70.95800000000001,0.5752483494837641,-0.5752483494837641
70.959,0.5821180050209893,-0.5821180050209893
70.96000000000001,0.5502856383831995,-0.5502856383831995
70.96100000000001,0.47798235096041675,-0.47798235096041675
70.962,0.3687968847646945,-0.3687968847646945
70.96300000000001,0.23291560408878165,-0.23291560408878165
70.96400000000001,0.08712231742187715,-0.08712231742187715
70.965,0.04686656660427402,0.04686656660427402
70.96600000000001,0.14577268362522822,0.14577268362522822
70.96700000000001,0.18937120770617621,0.18937120770617621
70.968,0.1654053683420289,0.1654053683420289
70.96900000000001,0.07354908529233639,0.07354908529233639
70.97000000000001,0.0728208365812979,-0.0728208365812979
70.971,0.24789203489515443,-0.24789203489515443
70.97200000000001,0.41785925384621514,-0.41785925384621514
70.97300000000001,0.5478090868651295,-0.5478090868651295
70.974,0.6095335933924797,-0.6095335933924797
70.97500000000001,0.588321033525133,-0.588321033525133
70.97600000000001,0.4868526576722668,-0.4868526576722668
70.977,0.32497042193353665,-0.32497042193353665
70.97800000000001,0.13513735829640416,-0.13513735829640416
70.979,0.045389964442215325,0.045389964442215325
70.98,0.1836697709740358,0.1836697709740358
70.98100000000001,0.25899566152188935,0.25899566152188935
70.982,0.2674035411552145,0.2674035411552145
70.983,0.22145727466220988,0.22145727466220988
70.98400000000001,0.14535830170685493,0.14535830170685493
70.985,0.06681985405287039,0.06681985405287039
70.986,0.008156083580143081,0.008156083580143081
70.98700000000001,0.02067036889694185,-0.02067036889694185
70.988,0.024844522982004458,-0.024844522982004458
70.989,0.022389855712735107,-0.022389855712735107
70.99000000000001,0.03739268891170133,-0.03739268891170133
70.991,0.09083963867004252,-0.09083963867004252
70.992,0.19198069903077963,-0.19198069903077963
70.99300000000001,0.3330708762246859,-0.3330708762246859
70.994,0.48937818802715716,-0.48937818802715716
70.995,0.6247495749417481,-0.6247495749417481
70.99600000000001,0.7012827303658156,-0.7012827303658156
70.997,0.690307080925457,-0.690307080925457
70.998,0.5813669502503047,-0.5813669502503047
70.99900000000001,0.3864075975873257,-0.3864075975873257
71.0,0.13775578022399082,-0.13775578022399082
71.001,0.11965657066803215,0.11965657066803215
71.00200000000001,0.3396273192244825,0.3396273192244825
71.003,0.4862865693306728,0.4862865693306728
71.004,0.5425889993548103,0.5425889993548103
71.00500000000001,0.5132739229273358,0.5132739229273358
71.006,0.4215735554216451,0.4215735554216451
71.007,0.30086590778708855,0.30086590778708855
71.00800000000001,0.18399370496304046,0.18399370496304046
71.009,0.09362367295718399,0.09362367295718399
71.01,0.0365990796596225,0.0365990796596225
71.01100000000001,0.0038852333320571475,0.0038852333320571475
71.012,0.024134764737690717,-0.024134764737690717
71.013,0.06898910154362425,-0.06898910154362425
71.01400000000001,0.14510742598789927,-0.14510742598789927
71.015,0.2535582642040586,-0.2535582642040586
71.016,0.38065066201156494,-0.38065066201156494
71.01700000000001,0.5018556614793169,-0.5018556614793169
71.018,0.5897033058643781,-0.5897033058643781
71.019,0.6229701696523996,-0.6229701696523996
71.02000000000001,0.5940351127935648,-0.5940351127935648
71.021,0.5118905628888284,-0.5118905628888284
71.022,0.39974830059232835,-0.39974830059232835
71.02300000000001,0.28798723127553616,-0.28798723127553616
71.024,0.20475165064517264,-0.20475165064517264
71.025,0.1672999085590402,-0.1672999085590402
71.02600000000001,0.17695946126502216,-0.17695946126502216
71.027,0.21934497992172874,-0.21934497992172874
71.028,0.26974091465871586,-0.26974091465871586
71.02900000000001,0.30182491258916677,-0.30182491258916677
71.03,0.29679119546706834,-0.29679119546706834
71.031,0.24979900694416335,-0.24979900694416335
71.03200000000001,0.17156818679600316,-0.17156818679600316
71.033,0.08457473592131759,-0.08457473592131759
71.034,0.015120472441191413,-0.015120472441191413
71.03500000000001,0.016046304470880957,0.016046304470880957
71.036,0.0013689422890401648,0.0013689422890401648
71.037,0.05025878425556363,-0.05025878425556363
71.03800000000001,0.11581273419810345,-0.11581273419810345
71.039,0.16538603606650826,-0.16538603606650826
71.04,0.172062870879803,-0.172062870879803
71.04100000000001,0.12121488060141017,-0.12121488060141017
71.042,0.016163147355449103,-0.016163147355449103
71.043,0.12170218945880595,0.12170218945880595
71.04400000000001,0.2584773625334231,0.2584773625334231
71.045,0.3572884917232355,0.3572884917232355
71.046,0.388866160167074,0.388866160167074
71.04700000000001,0.3398837188217294,0.3398837188217294
71.048,0.2165338145257758,0.2165338145257758
71.049,0.042358371970416586,0.042358371970416586
71.05000000000001,0.14882509778953468,-0.14882509778953468
71.051,0.322542504448297,-0.322542504448297
71.052,0.45275317340955734,-0.45275317340955734
71.05300000000001,0.5276362002320021,-0.5276362002320021
71.054,0.5504912619119381,-0.5504912619119381
71.055,0.5358420908589059,-0.5358420908589059
71.05600000000001,0.5024123062065717,-0.5024123062065717
71.057,0.4656106207695787,-0.4656106207695787
71.058,0.43220529726026535,-0.43220529726026535
71.05900000000001,0.39899167880735054,-0.39899167880735054
71.06,0.35577686017544075,-0.35577686017544075
71.061,0.29143716718441004,-0.29143716718441004
71.06200000000001,0.20068661088774764,-0.20068661088774764
71.063,0.08891014672909381,-0.08891014672909381
71.06400000000001,0.026937945802470775,0.026937945802470775
71.06500000000001,0.12201093990072898,0.12201093990072898
71.066,0.17084911019084248,0.17084911019084248
71.06700000000001,0.155968047973718,0.155968047973718
71.06800000000001,0.07488359280543433,0.07488359280543433
71.069,0.056929135326640345,-0.056929135326640345
71.07000000000001,0.20843349693034108,-0.20843349693034108
71.07100000000001,0.3404063868091115,-0.3404063868091115
71.072,0.41581610010557857,-0.41581610010557857
71.07300000000001,0.4102205562386655,-0.4102205562386655
71.07400000000001,0.31910692467600943,-0.31910692467600943
71.075,0.15994371051965128,-0.15994371051965128
71.07600000000001,0.03174966556985703,0.03174966556985703
71.07700000000001,0.21126624675467176,0.21126624675467176
71.078,0.33603574639229894,0.33603574639229894
71.07900000000001,0.37626121559323344,0.37626121559323344
71.08000000000001,0.32197735929334503,0.32197735929334503
71.081,0.18473017770893163,0.18473017770893163
71.08200000000001,0.006348145141761519,-0.006348145141761519
71.08300000000001,0.21271927619591702,-0.21271927619591702
71.084,0.39640936977720076,-0.39640936977720076
71.08500000000001,0.5289573500196549,-0.5289573500196549
71.08600000000001,0.5970063383485791,-0.5970063383485791
71.087,0.603321249796236,-0.603321249796236
71.08800000000001,0.5634051940436295,-0.5634051940436295
71.08900000000001,0.49912384596046766,-0.49912384596046766
71.09,0.4314782771881708,-0.4314782771881708
71.09100000000001,0.3747146534067599,-0.3747146534067599
71.09200000000001,0.33336099896279925,-0.33336099896279925
71.093,0.30276337932345787,-0.30276337932345787
71.09400000000001,0.2725905145580714,-0.2725905145580714
71.09500000000001,0.23192103680061293,-0.23192103680061293
71.096,0.17415569112534546,-0.17415569112534546
71.09700000000001,0.10018058614621816,-0.10018058614621816
71.09800000000001,0.018849822343863454,-0.018849822343863454
71.099,0.05526829536978717,0.05526829536978717
71.10000000000001,0.10610315034451223,0.10610315034451223
71.10100000000001,0.12092228909089364,0.12092228909089364
71.102,0.09434213176592166,0.09434213176592166
71.10300000000001,0.030350500482486886,0.030350500482486886
71.104,0.05820555655336923,-0.05820555655336923
71.105,0.1524848142795433,-0.1524848142795433
71.10600000000001,0.2320548555318026,-0.2320548555318026
71.107,0.27964721119059677,-0.27964721119059677
71.108,0.28505046466104467,-0.28505046466104467
71.10900000000001,0.24722078047603435,-0.24722078047603435
71.11,0.17419956289299787,-0.17419956289299787
71.111,0.08100127938014068,-0.08100127938014068
71.11200000000001,0.013884519228750003,0.013884519228750003
71.113,0.09245983341625874,0.09245983341625874
71.114,0.14072008772000477,0.14072008772000477
71.11500000000001,0.15097459928969603,0.15097459928969603
71.116,0.12263605733658034,0.12263605733658034
71.117,0.06153326408260207,0.06153326408260207
71.11800000000001,0.02186841762708358,-0.02186841762708358
71.119,0.11477524684180951,-0.11477524684180951
71.12,0.20433586394022163,-0.20433586394022163
71.12100000000001,0.27945486188794366,-0.27945486188794366
71.122,0.3319554694184015,-0.3319554694184015
71.123,0.3571184513992106,-0.3571184513992106
71.12400000000001,0.3537671331394514,-0.3537671331394514
71.125,0.3240963320171637,-0.3240963320171637
71.126,0.27336601226384716,-0.27336601226384716
71.12700000000001,0.20945068874872175,-0.20945068874872175
71.128,0.14212679675279538,-0.14212679675279538
71.129,0.08195899781363825,-0.08195899781363825
71.13000000000001,0.038744006402693376,-0.038744006402693376
71.131,0.019666271494681364,-0.019666271494681364
71.132,0.027542924752274378,-0.027542924752274378
71.13300000000001,0.059686963124458536,-0.059686963124458536
71.134,0.10790704014709362,-0.10790704014709362
71.135,0.15994566346549788,-0.15994566346549788
71.13600000000001,0.20226446864563208,-0.20226446864563208
71.137,0.22362074563621093,-0.22362074563621093
71.138,0.21849838053632653,-0.21849838053632653
71.13900000000001,0.18931412296924344,-0.18931412296924344
71.14,0.1465147998542905,-0.1465147998542905
71.141,0.10620814500144315,-0.10620814500144315
71.14200000000001,0.0857064368866095,-0.0857064368866095
71.143,0.09809198556288512,-0.09809198556288512
71.144,0.14738926528383134,-0.14738926528383134
71.14500000000001,0.22595336803083088,-0.22595336803083088
71.146,0.3151875465594254,-0.3151875465594254
71.147,0.38977997091730576,-0.38977997091730576
71.14800000000001,0.42455268454836403,-0.42455268454836403
71.149,0.4020838057354802,-0.4020838057354802
71.15,0.31882063387942905,-0.31882063387942905
71.15100000000001,0.18764283821231797,-0.18764283821231797
71.152,0.03575164692816679,-0.03575164692816679
71.153,0.10187988031911965,0.10187988031911965
71.15400000000001,0.19185811596970415,0.19185811596970415
71.155,0.21188688563340508,0.21188688563340508
71.156,0.1575775367314003,0.1575775367314003
71.15700000000001,0.04432696693552951,0.04432696693552951
71.158,0.09656604269107072,-0.09656604269107072
71.159,0.2266357668750697,-0.2266357668750697
71.16000000000001,0.3113752668503085,-0.3113752668503085
71.161,0.3304385840736731,-0.3304385840736731
71.162,0.2837566404266103,-0.2837566404266103
71.16300000000001,0.19156123707310313,-0.19156123707310313
71.164,0.08814928742571115,-0.08814928742571115
71.165,0.011178034221996924,-0.011178034221996924
71.16600000000001,0.010260838997947497,0.010260838997947497
71.167,0.03493096854674482,-0.03493096854674482
71.168,0.1359500346845538,-0.1359500346845538
71.16900000000001,0.2630458552880872,-0.2630458552880872
71.17,0.3765354718122419,-0.3765354718122419
71.171,0.439137399685831,-0.439137399685831
71.17200000000001,0.42778217673711694,-0.42778217673711694
71.173,0.3411612936447851,-0.3411612936447851
71.174,0.20057505852244706,-0.20057505852244706
71.17500000000001,0.043734392111108744,-0.043734392111108744
71.176,0.08660050203682945,0.08660050203682945
71.177,0.15561397702429858,0.15561397702429858
71.17800000000001,0.14699673986030581,0.14699673986030581
71.179,0.06776836815613163,0.06776836815613163
71.18,0.05413702121726105,-0.05413702121726105
71.18100000000001,0.178736946785933,-0.178736946785933
71.182,0.2665100560113606,-0.2665100560113606
71.183,0.2906218336837175,-0.2906218336837175
71.18400000000001,0.2450754543651753,-0.2450754543651753
71.185,0.1463287442751413,-0.1463287442751413
71.186,0.028002306934856613,-0.028002306934856613
71.18700000000001,0.06953963802713448,0.06953963802713448
71.188,0.11141497302022874,0.11141497302022874
71.18900000000001,0.0784874580096544,0.0784874580096544
71.19000000000001,0.027348310471425386,-0.027348310471425386
71.191,0.18421084788486297,-0.18421084788486297
71.19200000000001,0.35694442237490787,-0.35694442237490787
71.19300000000001,0.5071474416568142,-0.5071474416568142
71.194,0.6033168222979441,-0.6033168222979441
71.19500000000001,0.6281325167129508,-0.6281325167129508
71.19600000000001,0.581059869853898,-0.581059869853898
71.197,0.4760872497145858,-0.4760872497145858
71.19800000000001,0.3359618686498209,-0.3359618686498209
71.19900000000001,0.1852256434133136,-0.1852256434133136
71.2,0.044415134166354564,-0.044415134166354564
71.20100000000001,0.07297106732962155,0.07297106732962155
71.20200000000001,0.1603753954874454,0.1603753954874454
71.203,0.2158210010709798,0.2158210010709798
71.20400000000001,0.2389111401456161,0.2389111401456161
71.20500000000001,0.22884066256811741,0.22884066256811741
71.206,0.1844075951494708,0.1844075951494708
71.20700000000001,0.10595619534775924,0.10595619534775924
71.20800000000001,0.0018185767914098427,-0.0018185767914098427
71.209,0.12780300410470535,-0.12780300410470535
71.21000000000001,0.2545575465133889,-0.2545575465133889
71.21100000000001,0.36117342205347147,-0.36117342205347147
71.212,0.4283392637240325,-0.4283392637240325
71.21300000000001,0.4440318331907728,-0.4440318331907728
71.21400000000001,0.40776316291639736,-0.40776316291639736
71.215,0.33161540526869215,-0.33161540526869215
71.21600000000001,0.23731117556039094,-0.23731117556039094
71.21700000000001,0.14995877335256358,-0.14995877335256358
71.218,0.09037497406632311,-0.09037497406632311
71.21900000000001,0.06854165332326245,-0.06854165332326245
71.22000000000001,0.08051752240862009,-0.08051752240862009
71.221,0.11003831854568713,-0.11003831854568713
71.22200000000001,0.13444777713697553,-0.13444777713697553
71.22300000000001,0.13305653057267075,-0.13305653057267075
71.224,0.09508312155319798,-0.09508312155319798
71.22500000000001,0.024353858656624428,-0.024353858656624428
71.22600000000001,0.061041020133614676,0.061041020133614676
71.227,0.13423951634791886,0.13423951634791886
71.22800000000001,0.1685503507681314,0.1685503507681314
71.229,0.14686938078819134,0.14686938078819134
71.23,0.06830527041389844,0.06830527041389844
71.23100000000001,0.05041435691717089,-0.05041435691717089
71.232,0.17947821923587703,-0.17947821923587703
71.233,0.2851748908103118,-0.2851748908103118
71.23400000000001,0.3407919929127141,-0.3407919929127141
71.235,0.3356074114174731,-0.3356074114174731
71.236,0.2788672169057481,-0.2788672169057481
71.23700000000001,0.19722756515905482,-0.19722756515905482
71.238,0.12627577333931916,-0.12627577333931916
71.239,0.09873360511188245,-0.09873360511188245
71.24000000000001,0.13311762797634652,-0.13311762797634652
71.241,0.22658525514843209,-0.22658525514843209
71.242,0.3544290971109465,-0.3544290971109465
71.24300000000001,0.47659763984934345,-0.47659763984934345
71.244,0.5493884493417633,-0.5493884493417633
71.245,0.5388006247563742,-0.5388006247563742
71.24600000000001,0.4314771148808729,-0.4314771148808729
71.247,0.23988544866436012,-0.23988544866436012
71.248,0.00013717303941995773,-0.00013717303941995773
71.24900000000001,0.23693385879610562,0.23693385879610562
71.25,0.4188271700102857,0.4188271700102857
71.251,0.5048107173564074,0.5048107173564074
71.25200000000001,0.4759942240639887,0.4759942240639887
71.253,0.3394185136372665,0.3394185136372665
71.254,0.12536533326763855,0.12536533326763855
71.25500000000001,0.12096771016187269,-0.12096771016187269
71.256,0.3508195919284035,-0.3508195919284035
71.257,0.5230512143347025,-0.5230512143347025
71.25800000000001,0.6123518206513764,-0.6123518206513764
71.259,0.61279066610606,-0.61279066610606
71.26,0.53649910150834,-0.53649910150834
71.26100000000001,0.40857350438974716,-0.40857350438974716
71.262,0.26006931820227686,-0.26006931820227686
71.263,0.12106165113079204,-0.12106165113079204
71.26400000000001,0.01527239662820623,-0.01527239662820623
71.265,0.04302033414720041,0.04302033414720041
71.266,0.049839128014707246,0.049839128014707246
71.26700000000001,0.01066774772617074,0.01066774772617074
71.268,0.06143200078947875,-0.06143200078947875
71.269,0.14827407940132353,-0.14827407940132353
71.27000000000001,0.22938004321841665,-0.22938004321841665
71.271,0.28516535878887583,-0.28516535878887583
71.272,0.30038871359437935,-0.30038871359437935
71.27300000000001,0.2674868907649621,-0.2674868907649621
71.274,0.18907106276030972,-0.18907106276030972
71.275,0.07867689935224975,-0.07867689935224975
71.27600000000001,0.04097389110418059,0.04097389110418059
71.277,0.14237811992515592,0.14237811992515592
71.278,0.19966296635087777,0.19966296635087777
71.27900000000001,0.19551676781992833,0.19551676781992833
71.28,0.12666021214434675,0.12666021214434675
71.281,0.0059861433729051505,0.0059861433729051505
71.28200000000001,0.1397309236799945,-0.1397309236799945
71.283,0.27638648029031077,-0.27638648029031077
71.284,0.3718028205708168,-0.3718028205708168
71.28500000000001,0.40509458586039215,-0.40509458586039215
71.286,0.37324875383439626,-0.37324875383439626
71.287,0.2926471362619294,-0.2926471362619294
71.28800000000001,0.19468043738594654,-0.19468043738594654
71.289,0.11641909289455332,-0.11641909289455332
71.29,0.0889496286369943,-0.0889496286369943
71.29100000000001,0.12690551232997405,-0.12690551232997405
71.292,0.2225712839430306,-0.2225712839430306
71.293,0.34670185132470555,-0.34670185132470555
71.29400000000001,0.4562122483969241,-0.4562122483969241
71.295,0.5067530163618574,-0.5067530163618574
71.296,0.4665644596871986,-0.4665644596871986
71.29700000000001,0.3274321276692137,-0.3274321276692137
71.298,0.10926396506110059,-0.10926396506110059
71.299,0.14339857813316992,0.14339857813316992
71.30000000000001,0.3722597076887215,0.3722597076887215
71.301,0.5206388433981146,0.5206388433981146
71.302,0.5490258655392519,0.5490258655392519
71.30300000000001,0.44636851373609265,0.44636851373609265
71.304,0.23380261521407486,0.23380261521407486
71.305,0.040327574950820955,-0.040327574950820955
71.30600000000001,0.31283537411030393,-0.31283537411030393
71.307,0.5220345398528015,-0.5220345398528015
71.308,0.623559193007606,-0.623559193007606
71.30900000000001,0.6013669252728986,-0.6013669252728986
71.31,0.4710465641657071,-0.4710465641657071
71.311,0.2747389528650719,-0.2747389528650719
71.31200000000001,0.06928980950369279,-0.06928980950369279
71.313,0.08897059678483643,0.08897059678483643
71.31400000000001,0.15866202750946523,0.15866202750946523
71.31500000000001,0.12325548633292449,0.12325548633292449
71.316,0.005898868616008968,-0.005898868616008968
71.31700000000001,0.19380281866503068,-0.19380281866503068
71.31800000000001,0.3917586613594566,-0.3917586613594566
71.319,0.5501176415419096,-0.5501176415419096
71.32000000000001,0.6304148857484626,-0.6304148857484626
71.32100000000001,0.613919555616681,-0.613919555616681
71.322,0.5048028472685173,-0.5048028472685173
71.32300000000001,0.32764658999318885,-0.32764658999318885
71.32400000000001,0.12044306786673198,-0.12044306786673198
71.325,0.07479079859218296,0.07479079859218296
71.32600000000001,0.22134057327435053,0.22134057327435053
71.32700000000001,0.294944591242009,0.294944591242009
71.328,0.2874475895522417,0.2874475895522417
71.32900000000001,0.20663480605249385,0.20663480605249385
71.33000000000001,0.07283764759526079,0.07283764759526079
71.331,0.08647866199829501,-0.08647866199829501
71.33200000000001,0.2427072342971085,-0.2427072342971085
71.33300000000001,0.37137459169101905,-0.37137459169101905
71.334,0.45580103951807993,-0.45580103951807993
71.33500000000001,0.4887549652774116,-0.4887549652774116
71.33600000000001,0.47218201775768553,-0.47218201775768553
71.337,0.41543251542159887,-0.41543251542159887
71.33800000000001,0.3325849847941583,-0.3325849847941583
71.33900000000001,0.23948326401681508,-0.23948326401681508
71.34,0.15101271896150825,-0.15101271896150825
71.34100000000001,0.07898964414473053,-0.07898964414473053
71.34200000000001,0.030870184973043835,-0.030870184973043835
71.343,0.009328882961970542,-0.009328882961970542
71.34400000000001,0.01262610762859151,-0.01262610762859151
71.34500000000001,0.03558445542371358,-0.03558445542371358
71.346,0.07093108060071485,-0.07093108060071485
71.34700000000001,0.11074049622610427,-0.11074049622610427
71.34800000000001,0.1477333475819672,-0.1477333475819672
71.349,0.17624764284124128,-0.17624764284124128
71.35000000000001,0.19278756871675662,-0.19278756871675662
71.35100000000001,0.1961508559895947,-0.1961508559895947
71.352,0.18721527127150417,-0.18721527127150417
71.35300000000001,0.1685094142634943,-0.1685094142634943
71.354,0.14369521087825476,-0.14369521087825476
71.355,0.11705612549392619,-0.11705612549392619
71.35600000000001,0.0930345104179926,-0.0930345104179926
71.357,0.07581627284537995,-0.07581627284537995
71.358,0.0689391089129372,-0.0689391089129372
71.35900000000001,0.0749083092050169,-0.0749083092050169
71.36,0.0948344097712549,-0.0948344097712549
71.361,0.12814273029040635,-0.12814273029040635
71.36200000000001,0.1724269779792571,-0.1724269779792571
71.363,0.22351475326787873,-0.22351475326787873
71.364,0.2757808192864809,-0.2757808192864809
71.36500000000001,0.32269508264307767,-0.32269508264307767
71.366,0.3575438234718016,-0.3575438234718016
71.367,0.37423105144210256,-0.37423105144210256
71.36800000000001,0.3680598187450085,-0.3680598187450085
71.369,0.3364073163403307,-0.3364073163403307
71.37,0.27923012416755,-0.27923012416755
71.37100000000001,0.19935270291254648,-0.19935270291254648
71.372,0.10249512083591028,-0.10249512083591028
71.373,0.0030110184595701917,0.0030110184595701917
71.37400000000001,0.10687108709940163,0.10687108709940163
71.375,0.1978691580884231,0.1978691580884231
71.376,0.26526842334527245,0.26526842334527245
71.37700000000001,0.3004353748515878,0.3004353748515878
71.378,0.2984385658128783,0.2984385658128783
71.379,0.25928483332985075,0.25928483332985075
71.38000000000001,0.1884386752032885,0.1884386752032885
71.381,0.09635532615921338,0.09635532615921338
71.382,0.003052699521416513,-0.003052699521416513
71.38300000000001,0.09483655136351188,-0.09483655136351188
71.384,0.16587725671300058,-0.16587725671300058
71.385,0.20756868734817002,-0.20756868734817002
71.38600000000001,0.21764948252109628,-0.21764948252109628
71.387,0.20065839606581914,-0.20065839606581914
71.388,0.1667940758675005,-0.1667940758675005
71.38900000000001,0.12936129238143457,-0.12936129238143457
71.39,0.10137507199601259,-0.10137507199601259
71.391,0.092159219774826,-0.092159219774826
71.39200000000001,0.10483061311401487,-0.10483061311401487
71.393,0.1353746587040242,-0.1353746587040242
71.394,0.17362729609026628,-0.17362729609026628
71.39500000000001,0.2059822214625372,-0.2059822214625372
71.396,0.219170845973647,-0.219170845973647
71.397,0.20414739650495461,-0.20414739650495461
71.39800000000001,0.15904414438189884,-0.15904414438189884
71.399,0.09036811808235723,-0.09036811808235723
71.4,0.012043012051640267,-0.012043012051640267
71.40100000000001,0.057551157376809714,0.057551157376809714
71.402,0.09986476654967258,0.09986476654967258
71.403,0.10075460606952902,0.10075460606952902
71.40400000000001,0.05420844418732518,0.05420844418732518
71.405,0.035739364758432646,-0.035739364758432646
71.406,0.15543184667577836,-0.15543184667577836
71.40700000000001,0.2843176345467793,-0.2843176345467793
71.408,0.39938222564391346,-0.39938222564391346
71.409,0.4802542531122792,-0.4802542531122792
71.41000000000001,0.5137765520112604,-0.5137765520112604
71.411,0.49694094708932246,-0.49694094708932246
71.412,0.43746335759698685,-0.43746335759698685
71.41300000000001,0.35183481304746356,-0.35183481304746356
71.414,0.2612926756874021,-0.2612926756874021
71.415,0.18666885151366597,-0.18666885151366597
71.41600000000001,0.1433617135384928,-0.1433617135384928
71.417,0.1376694362193016,-0.1376694362193016
71.418,0.16540786756428716,-0.16540786756428716
71.41900000000001,0.2131837482158364,-0.2131837482158364
71.42,0.26203331273290265,-0.26203331273290265
71.421,0.2925292257110713,-0.2925292257110713
71.42200000000001,0.29006168990103454,-0.29006168990103454
71.423,0.24892272760879697,-0.24892272760879697
71.424,0.17409912227388458,-0.17409912227388458
71.42500000000001,0.08025160514672969,-0.08025160514672969
71.426,0.011913235921358512,0.011913235921358512
71.427,0.08097381395494607,0.08097381395494607
71.42800000000001,0.11044396400631173,0.11044396400631173
71.429,0.09323810105107744,0.09323810105107744
71.43,0.03372784322132216,0.03372784322132216
71.43100000000001,0.05321150936580199,-0.05321150936580199
71.432,0.14596432934195247,-0.14596432934195247
71.433,0.22178122723554838,-0.22178122723554838
71.43400000000001,0.2627445127583019,-0.2627445127583019
71.435,0.2604886383787085,-0.2604886383787085
71.436,0.21839142880825635,-0.21839142880825635
71.43700000000001,0.15062910244314276,-0.15062910244314276
71.438,0.07833847512107861,-0.07833847512107861
71.43900000000001,0.02391753389766471,-0.02391753389766471
71.44000000000001,0.005000608331828027,-0.005000608331828027
71.441,0.029725578610875547,-0.029725578610875547
71.44200000000001,0.09454694733398894,-0.09454694733398894
71.44300000000001,0.18514525316231256,-0.18514525316231256
71.444,0.28014048247814716,-0.28014048247814716
71.44500000000001,0.35657167473577,-0.35657167473577
71.44600000000001,0.39566154758961336,-0.39566154758961336
71.447,0.3873581140177422,-0.3873581140177422
71.44800000000001,0.33252846664848024,-0.33252846664848024
71.44900000000001,0.2423513501162997,-0.2423513501162997
71.45,0.13521668086125505,-0.13521668086125505
71.45100000000001,0.03207717904386953,-0.03207717904386953
71.45200000000001,0.04845916806523798,0.04845916806523798
71.453,0.09403417786333002,0.09403417786333002
71.45400000000001,0.10054660634058576,0.10054660634058576
71.45500000000001,0.07194623822015211,0.07194623822015211
71.456,0.018117761910093844,0.018117761910093844
71.45700000000001,0.04836184650516784,-0.04836184650516784
71.45800000000001,0.11558788510134621,-0.11558788510134621
71.459,0.17488944621682012,-0.17488944621682012
71.46000000000001,0.22199525727362202,-0.22199525727362202
71.46100000000001,0.25668112271844035,-0.25668112271844035
71.462,0.28123861936226213,-0.28123861936226213
71.46300000000001,0.2984275597474858,-0.2984275597474858
71.46400000000001,0.3096750912520714,-0.3096750912520714
71.465,0.3141474804854404,-0.3141474804854404
71.46600000000001,0.3089995478412665,-0.3089995478412665
71.46700000000001,0.2907030438821141,-0.2907030438821141
71.468,0.25698922797648427,-0.25698922797648427
71.46900000000001,0.20871836960776713,-0.20871836960776713
71.47000000000001,0.15097401693084833,-0.15097401693084833
71.471,0.09287958504246685,-0.09287958504246685
71.47200000000001,0.04599775081414281,-0.04599775081414281
71.47300000000001,0.021602712813946323,-0.021602712813946323
71.474,0.02749360778754051,-0.02749360778754051
71.47500000000001,0.06523431538763214,-0.06523431538763214
71.47600000000001,0.1286872502283919,-0.1286872502283919
71.477,0.2044413488426261,-0.2044413488426261
71.47800000000001,0.27426883654563117,-0.27426883654563117
71.479,0.31919212427792054,-0.31919212427792054
71.48,0.3242470798874554,-0.3242470798874554
71.48100000000001,0.2827365421249095,-0.2827365421249095
71.482,0.19878129532363387,-0.19878129532363387
71.483,0.08732229744919784,-0.08732229744919784
71.48400000000001,0.028656785175281918,0.028656785175281918
71.485,0.12318205548023364,0.12318205548023364
71.486,0.17345417289217813,0.17345417289217813
71.48700000000001,0.16557681814934866,0.16557681814934866
71.488,0.09831912330368509,0.09831912330368509
71.489,0.01616866167918496,-0.01616866167918496
71.49000000000001,0.1549877692309516,-0.1549877692309516
71.491,0.28986915434249005,-0.28986915434249005
71.492,0.393922344274924,-0.393922344274924
71.49300000000001,0.44797215608588337,-0.44797215608588337
71.494,0.444793299438181,-0.444793299438181
71.495,0.3901364979964509,-0.3901364979964509
71.49600000000001,0.3003539763828399,-0.3003539763828399
71.497,0.1974086589589371,-0.1974086589589371
71.498,0.10279364809234504,-0.10279364809234504
71.49900000000001,0.03216487678333657,-0.03216487678333657
71.5,0.007789726783043127,0.007789726783043127
71.501,0.01947115600008531,0.01947115600008531
71.50200000000001,0.011688592125497,0.011688592125497
71.503,0.004719168054632017,-0.004719168054632017
71.504,0.021341100705057348,-0.021341100705057348
71.50500000000001,0.03514823171226711,-0.03514823171226711
71.506,0.048941319849200915,-0.048941319849200915
71.507,0.06921360926524167,-0.06921360926524167
71.50800000000001,0.10230545127361934,-0.10230545127361934
71.509,0.15037919822296386,-0.15037919822296386
71.51,0.20885475809706422,-0.20885475809706422
71.51100000000001,0.26646423510460193,-0.26646423510460193
71.512,0.30815986081304625,-0.30815986081304625
71.513,0.32005450671698554,-0.32005450671698554
71.51400000000001,0.2947569457256578,-0.2947569457256578
71.515,0.23518410091784803,-0.23518410091784803
71.516,0.15531391333903755,-0.15531391333903755
71.51700000000001,0.07728497537342693,-0.07728497537342693
71.518,0.02545495904504891,-0.02545495904504891
71.519,0.019099410972185704,-0.019099410972185704
71.52000000000001,0.06599743515983492,-0.06599743515983492
71.521,0.15900069206417944,-0.15900069206417944
71.522,0.2768401068017221,-0.2768401068017221
71.52300000000001,0.3891454125274795,-0.3891454125274795
71.524,0.46434196145049567,-0.46434196145049567
71.525,0.478171003492337,-0.478171003492337
71.52600000000001,0.4203548534291581,-0.4203548534291581
71.527,0.2974740307451349,-0.2974740307451349
71.528,0.13126599002975103,-0.13126599002975103
71.52900000000001,0.047072272829995265,0.047072272829995265
71.53,0.20483050181174534,0.20483050181174534
71.531,0.31563962698845294,0.31563962698845294
71.53200000000001,0.365042306375966,0.365042306375966
71.533,0.35240333960308523,0.35240333960308523
71.534,0.2889772083965201,0.2889772083965201
71.53500000000001,0.19311964920077673,0.19311964920077673
71.536,0.08440058683976326,0.08440058683976326
71.537,0.021477301713759278,-0.021477301713759278
71.53800000000001,0.11553043886013603,-0.11553043886013603
71.539,0.19559247605067287,-0.19559247605067287
71.54,0.26411650521929597,-0.26411650521929597
71.54100000000001,0.32486005666845463,-0.32486005666845463
71.542,0.3798631640868104,-0.3798631640868104
71.543,0.42783320613119935,-0.42783320613119935
71.54400000000001,0.46437941680637107,-0.46437941680637107
71.545,0.48377466545794723,-0.48377466545794723
71.546,0.4813577894362705,-0.4813577894362705
71.54700000000001,0.4555260914868786,-0.4555260914868786
71.548,0.4085374065370001,-0.4085374065370001
71.549,0.345905353141164,-0.345905353141164
71.55000000000001,0.27478053024502447,-0.27478053024502447
71.551,0.2021075392445616,-0.2021075392445616
71.552,0.13337229961839725,-0.13337229961839725
71.55300000000001,0.07240631956080656,-0.07240631956080656
71.554,0.022154320177901643,-0.022154320177901643
71.555,0.014207227015289536,0.014207227015289536
71.55600000000001,0.03264804642946206,0.03264804642946206
71.557,0.028829269325161944,0.028829269325161944
71.558,5.476836102047411e-05,-5.476836102047411e-05
71.55900000000001,0.05270358408165943,-0.05270358408165943
71.56,0.12152159220048164,-0.12152159220048164
71.561,0.19206595475699828,-0.19206595475699828
71.56200000000001,0.2449878702183459,-0.2449878702183459
71.563,0.2604803455753649,-0.2604803455753649
71.56400000000001,0.2242343333393383,-0.2242343333393383
71.56500000000001,0.13310680836854172,-0.13310680836854172
71.566,0.0015395926741950117,0.0015395926741950117
71.56700000000001,0.15438858458021554,0.15438858458021554
71.56800000000001,0.2910666740014398,0.2910666740014398
71.569,0.3764253262084576,0.3764253262084576
71.57000000000001,0.38401184998122817,0.38401184998122817
71.57100000000001,0.30392044342402946,0.30392044342402946
71.572,0.1464966930780247,0.1464966930780247
71.57300000000001,0.05948544776319009,-0.05948544776319009
71.57400000000001,0.27388006199686266,-0.27388006199686266
71.575,0.455499551019119,-0.455499551019119
71.57600000000001,0.5726683392876883,-0.5726683392876883
71.57700000000001,0.6108258029635709,-0.6108258029635709
71.578,0.5749229077781219,-0.5749229077781219
71.57900000000001,0.4860360880166389,-0.4860360880166389
71.58000000000001,0.37350708529602006,-0.37350708529602006
71.581,0.2653670823715212,-0.2653670823715212
71.58200000000001,0.18031073890547233,-0.18031073890547233
71.58300000000001,0.12386132879654232,-0.12386132879654232
71.584,0.08981647986746188,-0.08981647986746188
71.58500000000001,0.06612235233183006,-0.06612235233183006
71.58600000000001,0.042681763703649844,-0.042681763703649844
71.587,0.01785915394175408,-0.01785915394175408
71.58800000000001,0.0008966387518679619,-0.0008966387518679619
71.58900000000001,0.008973379812777238,-0.008973379812777238
71.59,0.059706978295903324,-0.059706978295903324
71.59100000000001,0.16177285424222188,-0.16177285424222188
71.59200000000001,0.3073040394022535,-0.3073040394022535
71.593,0.4694166539623392,-0.4694166539623392
71.59400000000001,0.6066213725968976,-0.6066213725968976
71.59500000000001,0.6735202399757507,-0.6735202399757507
71.596,0.6348457842737855,-0.6348457842737855
71.59700000000001,0.47840670733975965,-0.47840670733975965
71.59800000000001,0.2224398411410481,-0.2224398411410481
71.599,0.08565587811378506,0.08565587811378506
71.60000000000001,0.37962367695788446,0.37962367695788446
71.60100000000001,0.5911981415086824,0.5911981415086824
71.602,0.668743459352845,0.668743459352845
71.60300000000001,0.5920950211195588,0.5920950211195588
71.604,0.3789542637651153,0.3789542637651153
71.605,0.08064494292927393,0.08064494292927393
71.60600000000001,0.23173293323798827,-0.23173293323798827
71.607,0.4867426498774703,-0.4867426498774703
71.608,0.6318804290131168,-0.6318804290131168
71.60900000000001,0.6469556411507034,-0.6469556411507034
71.61,0.5477048836446741,-0.5477048836446741
71.611,0.3788194421102099,-0.3788194421102099
71.61200000000001,0.19885213963537163,-0.19885213963537163
71.613,0.061928093690242214,-0.061928093690242214
71.614,0.0020300882737656067,-0.0020300882737656067
71.61500000000001,0.024611392221381423,-0.024611392221381423
71.616,0.10776912127433635,-0.10776912127433635
71.617,0.21204211010720986,-0.21204211010720986
71.61800000000001,0.29513423517600745,-0.29513423517600745
71.619,0.3264118425889365,-0.3264118425889365
71.62,0.2963349125765997,-0.2963349125765997
71.62100000000001,0.21790919755917637,-0.21790919755917637
71.622,0.12010126171167912,-0.12010126171167912
71.623,0.0359473012717878,-0.0359473012717878
71.62400000000001,0.0101454607602538,0.0101454607602538
71.625,0.011251293866535228,0.011251293866535228
71.626,0.020233141029490254,-0.020233141029490254
71.62700000000001,0.05833338538941457,-0.05833338538941457
71.628,0.07462420740931597,-0.07462420740931597
71.629,0.05055287110448381,-0.05055287110448381
71.63000000000001,0.013715891675112557,0.013715891675112557
71.631,0.09742114703901694,0.09742114703901694
71.632,0.16532351983246185,0.16532351983246185
71.63300000000001,0.17997111862157578,0.17997111862157578
71.634,0.11597057805732058,0.11597057805732058
71.635,0.028777160776744415,-0.028777160776744415
71.63600000000001,0.22907609594681577,-0.22907609594681577
71.637,0.4375440428783105,-0.4375440428783105
71.638,0.5976620715249752,-0.5976620715249752
71.63900000000001,0.6608553238674908,-0.6608553238674908
71.64,0.6021927930757887,-0.6021927930757887
71.641,0.4295553456141533,-0.4295553456141533
71.64200000000001,0.18308999436597428,-0.18308999436597428
71.643,0.07518370826936005,0.07518370826936005
71.644,0.2786127993086964,0.2786127993086964
71.64500000000001,0.374792411550116,0.374792411550116
71.646,0.34033993619648184,0.34033993619648184
71.647,0.1870956337245644,0.1870956337245644
71.64800000000001,0.04202508763918866,-0.04202508763918866
71.649,0.2860802418921886,-0.2860802418921886
71.65,0.4838897398997062,-0.4838897398997062
71.65100000000001,0.5910576429589707,-0.5910576429589707
71.652,0.5911458420573721,-0.5911458420573721
71.653,0.49792853308972396,-0.49792853308972396
71.65400000000001,0.3485650602979127,-0.3485650602979127
71.655,0.19036971417503146,-0.19036971417503146
71.656,0.065718030093745,-0.065718030093745
71.65700000000001,5.344111982719113e-05,5.344111982719113e-05
71.658,0.004161786616484697,0.004161786616484697
71.659,0.03592064294857922,-0.03592064294857922
71.66000000000001,0.09116770582935574,-0.09116770582935574
71.661,0.13266915264528045,-0.13266915264528045
71.662,0.14206705914560824,-0.14206705914560824
71.66300000000001,0.11724810025522259,-0.11724810025522259
71.664,0.07162879261145272,-0.07162879261145272
71.665,0.027696831486267115,-0.027696831486267115
71.66600000000001,0.007459572700821648,-0.007459572700821648
71.667,0.023430151263070353,-0.023430151263070353
71.668,0.07345186984606167,-0.07345186984606167
71.66900000000001,0.14118223804130903,-0.14118223804130903
71.67,0.2019808916173368,-0.2019808916173368
71.671,0.23201227943691993,-0.23201227943691993
71.67200000000001,0.2172553483062475,-0.2172553483062475
71.673,0.15917896800821563,-0.15917896800821563
71.674,0.07504364259302776,-0.07504364259302776
71.67500000000001,0.007315003467930126,0.007315003467930126
71.676,0.05844909668331644,0.05844909668331644
71.677,0.05696143775719853,0.05696143775719853
71.67800000000001,0.0033843114669678265,-0.0033843114669678265
71.679,0.11145011542550753,-0.11145011542550753
71.68,0.24206455654113823,-0.24206455654113823
71.68100000000001,0.36370961512894184,-0.36370961512894184
71.682,0.44794007734575825,-0.44794007734575825
71.683,0.47744501263112393,-0.47744501263112393
71.68400000000001,0.45024197101039276,-0.45024197101039276
71.685,0.37889678352985967,-0.37889678352985967
71.686,0.2853720732191052,-0.2853720732191052
71.68700000000001,0.19352448895346053,-0.19352448895346053
71.688,0.121917468910137,-0.121917468910137
71.68900000000001,0.07930388207485506,-0.07930388207485506
71.69000000000001,0.06401699823144313,-0.06401699823144313
71.691,0.06702347840386236,-0.06702347840386236
71.69200000000001,0.07708843045320035,-0.07708843045320035
71.69300000000001,0.08584502410431638,-0.08584502410431638
71.694,0.0907644970443241,-0.0907644970443241
71.69500000000001,0.09497954913324169,-0.09497954913324169
71.69600000000001,0.1042421676921752,-0.1042421676921752
71.697,0.12248226442544918,-0.12248226442544918
71.69800000000001,0.14802276205361675,-0.14802276205361675
71.69900000000001,0.1722738024095294,-0.1722738024095294
71.7,0.18175752956720181,-0.18175752956720181
71.70100000000001,0.16296868207646253,-0.16296868207646253
71.70200000000001,0.10836444985056892,-0.10836444985056892
71.703,0.021168264164839856,-0.021168264164839856
71.70400000000001,0.08307938756467337,0.08307938756467337
71.70500000000001,0.17924151520632559,0.17924151520632559
71.706,0.23909986769690517,0.23909986769690517
71.70700000000001,0.23977416033089138,0.23977416033089138
71.70800000000001,0.17133648123672818,0.17133648123672818
71.709,0.041006949645505664,0.041006949645505664
71.71000000000001,0.12767351886045963,-0.12767351886045963
71.71100000000001,0.3006932511526771,-0.3006932511526771
71.712,0.4427801817979704,-0.4427801817979704
71.71300000000001,0.5271578506257648,-0.5271578506257648
71.71400000000001,0.542793449135849,-0.542793449135849
71.715,0.4968550797557161,-0.4968550797557161
71.71600000000001,0.4116288685366294,-0.4116288685366294
71.71700000000001,0.3169347409496982,-0.3169347409496982
71.718,0.2405258332987077,-0.2405258332987077
71.71900000000001,0.1995786264022602,-0.1995786264022602
71.72000000000001,0.1959755362884389,-0.1959755362884389
71.721,0.21679227190010542,-0.21679227190010542
71.72200000000001,0.23966827008328107,-0.23966827008328107
71.72300000000001,0.24114403754113767,-0.24114403754113767
71.724,0.20512342564191077,-0.20512342564191077
71.72500000000001,0.1286573391035538,-0.1286573391035538
71.72600000000001,0.02321356089827764,-0.02321356089827764
71.727,0.08885195351434572,0.08885195351434572
71.72800000000001,0.18130959658563772,0.18130959658563772
71.729,0.23213774047663982,0.23213774047663982
71.73,0.22999508964706084,0.22999508964706084
71.73100000000001,0.1770563588384828,0.1770563588384828
71.732,0.08748724204256386,0.08748724204256386
71.733,0.01767550644946647,-0.01767550644946647
71.73400000000001,0.1173128954413466,-0.1173128954413466
71.735,0.19630974123552103,-0.19630974123552103
71.736,0.24895890598914616,-0.24895890598914616
71.73700000000001,0.27876352684974637,-0.27876352684974637
71.738,0.295042924470278,-0.295042924470278
71.739,0.3078617408960729,-0.3078617408960729
71.74000000000001,0.32331586379340604,-0.32331586379340604
71.741,0.34096106802427506,-0.34096106802427506
71.742,0.3542768024441503,-0.3542768024441503
71.74300000000001,0.3538632048031044,-0.3538632048031044
71.744,0.3320196859191177,-0.3320196859191177
71.745,0.2868319895597594,-0.2868319895597594
71.74600000000001,0.2240863404421698,-0.2240863404421698
71.747,0.15615643797178647,-0.15615643797178647
71.748,0.09816276362639631,-0.09816276362639631
71.74900000000001,0.0627577489207285,-0.0627577489207285
71.75,0.055455938042016095,-0.055455938042016095
71.751,0.07229370321757755,-0.07229370321757755
71.75200000000001,0.10080927033796638,-0.10080927033796638
71.753,0.12415917483758854,-0.12415917483758854
71.754,0.12704814330514047,-0.12704814330514047
71.75500000000001,0.1014522815879878,-0.1014522815879878
71.756,0.05011345195136341,-0.05011345195136341
71.757,0.01351326098997796,0.01351326098997796
71.75800000000001,0.069001903109279,0.069001903109279
71.759,0.09528290028828335,0.09528290028828335
71.76,0.07755403020841412,0.07755403020841412
71.76100000000001,0.012533728705416358,0.012533728705416358
71.762,0.08968668438974947,-0.08968668438974947
71.763,0.2078645309029047,-0.2078645309029047
71.76400000000001,0.315284060673939,-0.315284060673939
71.765,0.3871868188073695,-0.3871868188073695
71.766,0.40771073642665745,-0.40771073642665745
71.76700000000001,0.37426587230432884,-0.37426587230432884
71.768,0.2980840249349259,-0.2980840249349259
71.769,0.2008536797294318,-0.2008536797294318
71.77000000000001,0.10851330042811314,-0.10851330042811314
71.771,0.044068640363144396,-0.044068640363144396
71.772,0.021501175250625115,-0.021501175250625115
71.77300000000001,0.042418688267707116,-0.042418688267707116
71.774,0.09623024209378139,-0.09623024209378139
71.775,0.1635960136994623,-0.1635960136994623
71.77600000000001,0.22202188335380324,-0.22202188335380324
71.777,0.25197848672640966,-0.25197848672640966
71.778,0.24192341356020852,-0.24192341356020852
71.77900000000001,0.19103784843044835,-0.19103784843044835
71.78,0.10918208664271556,-0.10918208664271556
71.781,0.014306206536243038,-0.014306206536243038
71.78200000000001,0.07187381697634665,0.07187381697634665
71.783,0.12882577941306672,0.12882577941306672
71.784,0.14166517325310357,0.14166517325310357
71.78500000000001,0.1042542857859825,0.1042542857859825
71.786,0.020422579296022203,0.020422579296022203
71.787,0.0968094545609749,-0.0968094545609749
71.78800000000001,0.2277663220699927,-0.2277663220699927
71.789,0.3498999485218427,-0.3498999485218427
71.79,0.44211693244099104,-0.44211693244099104
71.79100000000001,0.4888554763258406,-0.4888554763258406
71.792,0.4831314691569767,-0.4831314691569767
71.793,0.42791649440610413,-0.42791649440610413
71.79400000000001,0.33549331591561093,-0.33549331591561093
71.795,0.22483550847864775,-0.22483550847864775
71.796,0.11750961072384569,-0.11750961072384569
71.79700000000001,0.03299098096708819,-0.03299098096708819
71.798,0.015504928881953539,0.015504928881953539
71.799,0.023639537263673738,0.023639537263673738
71.80000000000001,0.00365767536871775,-0.00365767536871775
71.801,0.054113045273672666,-0.054113045273672666
71.802,0.1117898340497312,-0.1117898340497312
71.80300000000001,0.16145947050188558,-0.16145947050188558
71.804,0.1923982466606058,-0.1923982466606058
71.805,0.20054084817964968,-0.20054084817964968
71.80600000000001,0.18846376831396727,-0.18846376831396727
71.807,0.16338743082494522,-0.16338743082494522
71.808,0.1340338020989006,-0.1340338020989006
71.80900000000001,0.10752751218361378,-0.10752751218361378
71.81,0.08745182734999368,-0.08745182734999368
71.811,0.07368657225606623,-0.07368657225606623
71.81200000000001,0.06393564549018427,-0.06393564549018427
71.813,0.05616474857534648,-0.05616474857534648
71.81400000000001,0.050782157444713705,-0.050782157444713705
71.81500000000001,0.05147124510136469,-0.05147124510136469
71.816,0.06411640343011604,-0.06411640343011604
71.81700000000001,0.09406867555140719,-0.09406867555140719
71.81800000000001,0.14276981448160186,-0.14276981448160186
71.819,0.20518026143498014,-0.20518026143498014
71.82000000000001,0.26933502718852853,-0.26933502718852853
71.82100000000001,0.31867580293568454,-0.31867580293568454
71.822,0.3367860969841511,-0.3367860969841511
71.82300000000001,0.3131487348310078,-0.3131487348310078
71.82400000000001,0.24793923750697977,-0.24793923750697977
71.825,0.15393627960576495,-0.15393627960576495
71.82600000000001,0.05441727102990235,-0.05441727102990235
71.82700000000001,0.02280223232950207,0.02280223232950207
71.828,0.0536498289199554,0.0536498289199554
71.82900000000001,0.025883786774430595,0.025883786774430595
71.83000000000001,0.055728275139434236,-0.055728275139434236
71.831,0.16914173094112805,-0.16914173094112805
71.83200000000001,0.2802288923813834,-0.2802288923813834
71.83300000000001,0.35223678708239325,-0.35223678708239325
71.834,0.35683694817249534,-0.35683694817249534
71.83500000000001,0.28340536747848066,-0.28340536747848066
71.83600000000001,0.14353565996866702,-0.14353565996866702
71.837,0.0308621235517883,0.0308621235517883
71.83800000000001,0.19559158454109804,0.19559158454109804
71.83900000000001,0.30613417772045537,0.30613417772045537
71.84,0.3300832700009566,0.3300832700009566
71.84100000000001,0.25637425684754733,0.25637425684754733
71.84200000000001,0.09856863132461569,0.09856863132461569
71.843,0.10876522213222906,-0.10876522213222906
71.84400000000001,0.3194582626097242,-0.3194582626097242
71.84500000000001,0.4881112672407989,-0.4881112672407989
71.846,0.5817980637472169,-0.5817980637472169
71.84700000000001,0.5877930053517021,-0.5877930053517021
71.84800000000001,0.5153340936325628,-0.5153340936325628
71.849,0.39129946049709574,-0.39129946049709574
71.85000000000001,0.25147801211453724,-0.25147801211453724
71.85100000000001,0.13029198692329125,-0.13029198692329125
71.852,0.052047163900959204,-0.052047163900959204
71.85300000000001,0.026042068419095288,-0.026042068419095288
71.854,0.04647077322837723,-0.04647077322837723
71.855,0.09650667337560737,-0.09650667337560737
71.85600000000001,0.1547698756634095,-0.1547698756634095
71.857,0.20190792940907132,-0.20190792940907132
71.858,0.22533660471707284,-0.22533660471707284
71.85900000000001,0.2210950731229251,-0.2210950731229251
71.86,0.19288415265515613,-0.19288415265515613
71.861,0.149260954164239,-0.149260954164239
71.86200000000001,0.10036353826385003,-0.10036353826385003
71.863,0.05536024429586983,-0.05536024429586983
71.864,0.021214639843026073,-0.021214639843026073
71.86500000000001,0.0026335374493440256,-0.0026335374493440256
71.866,0.002545267165127707,-0.002545267165127707
71.867,0.02234702985869108,-0.02234702985869108
71.86800000000001,0.061477623255194125,-0.061477623255194125
71.869,0.11643652489620371,-0.11643652489620371
71.87,0.17989304416367236,-0.17989304416367236
71.87100000000001,0.24073761808883887,-0.24073761808883887
71.872,0.2856861989811962,-0.2856861989811962
71.873,0.30242426296259817,-0.30242426296259817
71.87400000000001,0.2835171739951632,-0.2835171739951632
71.875,0.2297510024268563,-0.2297510024268563
71.876,0.15148247720307784,-0.15148247720307784
71.87700000000001,0.06707360284884001,-0.06707360284884001
71.878,0.001561905966297239,0.001561905966297239
71.879,0.03519328531177002,0.03519328531177002
71.88000000000001,0.02338281982317514,0.02338281982317514
71.881,0.03161465320270518,-0.03161465320270518
71.882,0.11468405569683227,-0.11468405569683227
71.88300000000001,0.20177186846629036,-0.20177186846629036
71.884,0.2668745430638725,-0.2668745430638725
71.885,0.28996014636588663,-0.28996014636588663
71.88600000000001,0.2632652058028965,-0.2632652058028965
71.887,0.1938563599375338,-0.1938563599375338
71.888,0.10154407025934997,-0.10154407025934997
71.88900000000001,0.012784644773445986,-0.012784644773445986
71.89,0.04743192038167354,0.04743192038167354
71.891,0.06302422722113588,0.06302422722113588
71.89200000000001,0.031151539424855157,0.031151539424855157
71.893,0.03790583863798214,-0.03790583863798214
71.894,0.12509100741275714,-0.12509100741275714
71.89500000000001,0.20943680123914987,-0.20943680123914987
71.896,0.2749022352236804,-0.2749022352236804
71.897,0.3147170710767794,-0.3147170710767794
71.89800000000001,0.3317701028539767,-0.3317701028539767
71.899,0.33511510747963236,-0.33511510747963236
71.9,0.3341745505824937,-0.3341745505824937
71.90100000000001,0.3331257528471919,-0.3331257528471919
71.902,0.3279040008326738,-0.3279040008326738
71.903,0.30725132632198005,-0.30725132632198005
71.90400000000001,0.25763861285185086,-0.25763861285185086
71.905,0.17028757871326128,-0.17028757871326128
71.906,0.047531799298205946,-0.047531799298205946
71.90700000000001,0.09421442758440524,0.09421442758440524
71.908,0.22652792773557184,0.22652792773557184
71.909,0.31595842857356127,0.31595842857356127
71.91000000000001,0.33394262347466985,0.33394262347466985
71.911,0.2664371250127784,0.2664371250127784
71.912,0.11991272305711131,0.11991272305711131
71.91300000000001,0.07859973238483275,-0.07859973238483275
71.914,0.28780865490372987,-0.28780865490372987
71.915,0.4630734562455223,-0.4630734562455223
71.91600000000001,0.5685931916931839,-0.5685931916931839
71.917,0.5870352841312366,-0.5870352841312366
71.918,0.5235638805993972,-0.5235638805993972
71.91900000000001,0.40306330538323265,-0.40306330538323265
71.92,0.26160035699676343,-0.26160035699676343
71.921,0.13505265446103765,-0.13505265446103765
71.92200000000001,0.048696548987141375,-0.048696548987141375
71.923,0.01110232665667521,-0.01110232665667521
71.924,0.014094934120812419,-0.014094934120812419
71.92500000000001,0.03837742343719941,-0.03837742343719941
71.926,0.062453011992369745,-0.062453011992369745
71.927,0.07141391696772181,-0.07141391696772181
71.92800000000001,0.062358429320075515,-0.062358429320075515
71.929,0.044562002284256996,-0.044562002284256996
71.93,0.03455022971094046,-0.03455022971094046
71.93100000000001,0.04815282080291816,-0.04815282080291816
71.932,0.09274716708087083,-0.09274716708087083
71.933,0.1628142597764617,-0.1628142597764617
71.93400000000001,0.240663454858292,-0.240663454858292
71.935,0.3022067614323629,-0.3022067614323629
71.936,0.32571260864185125,-0.32571260864185125
71.93700000000001,0.30027248370617665,-0.30027248370617665
71.938,0.23072640688729684,-0.23072640688729684
71.93900000000001,0.13702652861599252,-0.13702652861599252
71.94000000000001,0.04803281136059645,-0.04803281136059645
71.941,0.008201889275258,0.008201889275258
71.94200000000001,0.014247674083705864,0.014247674083705864
71.94300000000001,0.03032818001533688,-0.03032818001533688
71.944,0.10841583140364996,-0.10841583140364996
71.94500000000001,0.19099019718329235,-0.19099019718329235
71.94600000000001,0.24705151965984973,-0.24705151965984973
71.947,0.25445016322263925,-0.25445016322263925
71.94800000000001,0.20780316072838256,-0.20780316072838256
71.94900000000001,0.12069453815307762,-0.12069453815307762
71.95,0.02134155757165912,-0.02134155757165912
71.95100000000001,0.05680073844440159,0.05680073844440159
71.95200000000001,0.08624954273369378,0.08624954273369378
71.953,0.054644814380920836,0.054644814380920836
71.95400000000001,0.03129138040472612,-0.03129138040472612
71.95500000000001,0.14827589258613227,-0.14827589258613227
71.956,0.2644743231584563,-0.2644743231584563
71.95700000000001,0.3501048940304845,-0.3501048940304845
71.95800000000001,0.3868911963205376,-0.3868911963205376
71.959,0.37311344584191053,-0.37311344584191053
71.96000000000001,0.32265402323753734,-0.32265402323753734
71.96100000000001,0.25862364152733397,-0.25862364152733397
71.962,0.204091688218483,-0.204091688218483
71.96300000000001,0.17342982110083294,-0.17342982110083294
71.96400000000001,0.16746558449336946,-0.16746558449336946
71.965,0.17416201245281737,-0.17416201245281737
71.96600000000001,0.1744445559167105,-0.1744445559167105
71.96700000000001,0.15086332474904762,-0.15086332474904762
71.968,0.09571789175763235,-0.09571789175763235
71.96900000000001,0.015471527819420738,-0.015471527819420738
71.97000000000001,0.07033471615036269,0.07033471615036269
71.971,0.13540147862905005,0.13540147862905005
71.97200000000001,0.15598667444311287,0.15598667444311287
71.97300000000001,0.11982117522512348,0.11982117522512348
71.974,0.031312094584168504,0.031312094584168504
71.97500000000001,0.08897729795680676,-0.08897729795680676
71.97600000000001,0.21053185137296604,-0.21053185137296604
71.977,0.3026784051043844,-0.3026784051043844
71.97800000000001,0.3445607823521254,-0.3445607823521254
71.979,0.3317937111495315,-0.3317937111495315
71.98,0.27745688161492743,-0.27745688161492743
71.98100000000001,0.20709327693456758,-0.20709327693456758
71.982,0.1494982445730737,-0.1494982445730737
71.983,0.12656594113901265,-0.12656594113901265
71.98400000000001,0.1457698681437476,-0.1457698681437476
71.985,0.19788926735298362,-0.19788926735298362
71.986,0.2607066916535511,-0.2607066916535511
71.98700000000001,0.30727587617898355,-0.30727587617898355
71.988,0.315755331687561,-0.315755331687561
71.989,0.2772896746130059,-0.2772896746130059
71.99000000000001,0.1991685466462645,-0.1991685466462645
71.991,0.10221866789553202,-0.10221866789553202
71.992,0.013457238588126197,-0.013457238588126197
71.99300000000001,0.043292825928667344,0.043292825928667344
71.994,0.05544702139323632,0.05544702139323632
71.995,0.025527647267819198,0.025527647267819198
71.99600000000001,0.030427457482430365,-0.030427457482430365
71.997,0.08921488563503166,-0.08921488563503166
71.998,0.12917588033636707,-0.12917588033636707
71.99900000000001,0.1380645416690246,-0.1380645416690246
72.0,0.11723649838991745,-0.11723649838991745
72.001,0.08070318852663494,-0.08070318852663494
72.00200000000001,0.049482499922426926,-0.049482499922426926
72.003,0.04337723787772996,-0.04337723787772996
72.004,0.07321876319850595,-0.07321876319850595
72.00500000000001,0.13641048623939844,-0.13641048623939844
72.006,0.21738500404220762,-0.21738500404220762
72.007,0.2928040257756649,-0.2928040257756649
72.00800000000001,0.3396304007630957,-0.3396304007630957
72.009,0.3431925968276647,-0.3431925968276647
72.01,0.30239112034998583,-0.30239112034998583
72.01100000000001,0.23023350110921748,-0.23023350110921748
72.012,0.14954171077504586,-0.14954171077504586
72.013,0.0853549539955959,-0.0853549539955959
72.01400000000001,0.056661665175935516,-0.056661665175935516
72.015,0.07026497292702893,-0.07026497292702893
72.016,0.11878637461491348,-0.11878637461491348
72.01700000000001,0.18335466893320562,-0.18335466893320562
72.018,0.23994100851316802,-0.23994100851316802
72.019,0.26713752171474514,-0.26713752171474514
72.02000000000001,0.2528134198574149,-0.2528134198574149
72.021,0.19759727269156968,-0.19759727269156968
72.022,0.11429550921635856,-0.11429550921635856
72.02300000000001,0.02372389958437593,-0.02372389958437593
72.024,0.05147977760819766,0.05147977760819766
72.025,0.0930232093845329,0.0930232093845329
72.02600000000001,0.09131616684182875,0.09131616684182875
72.027,0.04702500480902083,0.04702500480902083
72.028,0.030159901141596723,-0.030159901141596723
72.02900000000001,0.12469597272174393,-0.12469597272174393
72.03,0.21906083624010775,-0.21906083624010775
72.031,0.29720261396372805,-0.29720261396372805
72.03200000000001,0.3469255894240698,-0.3469255894240698
72.033,0.3611428823259736,-0.3611428823259736
72.034,0.33832461591496166,-0.33832461591496166
72.03500000000001,0.28253638719143537,-0.28253638719143537
72.036,0.2032248806602609,-0.2032248806602609
72.037,0.1145499302439168,-0.1145499302439168
72.03800000000001,0.03383540272083019,-0.03383540272083019
72.039,0.021193748133129464,0.021193748133129464
72.04,0.03627242219185578,0.03627242219185578
72.04100000000001,0.004796064365268915,0.004796064365268915
72.042,0.06893812974844926,-0.06893812974844926
72.043,0.1688805660952445,-0.1688805660952445
72.04400000000001,0.26974496412414817,-0.26974496412414817
72.045,0.34287653507196003,-0.34287653507196003
72.046,0.3642304676127943,-0.3642304676127943
72.04700000000001,0.3222013417982402,-0.3222013417982402
72.048,0.22267717630328343,-0.22267717630328343
72.049,0.08922506799418972,-0.08922506799418972
72.05000000000001,0.042314116934275336,0.042314116934275336
72.051,0.13372617140411824,0.13372617140411824
72.052,0.1560614881082063,0.1560614881082063
72.05300000000001,0.09936287097033203,0.09936287097033203
72.054,0.022884193059522273,-0.022884193059522273
72.055,0.1764802539990329,-0.1764802539990329
72.05600000000001,0.3160757847682255,-0.3160757847682255
72.057,0.3989177627899422,-0.3989177627899422
72.058,0.3985474049108755,-0.3985474049108755
72.05900000000001,0.31396202696544107,-0.31396202696544107
72.06,0.17099494667096315,-0.17099494667096315
72.061,0.015070585532284686,-0.015070585532284686
72.06200000000001,0.10269532842980378,0.10269532842980378
72.063,0.1417899934768605,0.1417899934768605
72.06400000000001,0.08576058390215979,0.08576058390215979
72.06500000000001,0.05166659018932951,-0.05166659018932951
72.066,0.23005203910607497,-0.23005203910607497
72.06700000000001,0.39446601770904477,-0.39446601770904477
72.06800000000001,0.49274344566114125,-0.49274344566114125
72.069,0.49229720973787583,-0.49229720973787583
72.07000000000001,0.39102584684475883,-0.39102584684475883
72.07100000000001,0.2186559717414679,-0.2186559717414679
72.072,0.027898106817527468,-0.027898106817527468
72.07300000000001,0.12191346263207015,0.12191346263207015
72.07400000000001,0.18355835604495674,0.18355835604495674
72.075,0.13708024369300054,0.13708024369300054
72.07600000000001,0.0035182590233971966,-0.0035182590233971966
72.07700000000001,0.19423049067766807,-0.19423049067766807
72.078,0.37446060918595836,-0.37446060918595836
72.07900000000001,0.4857084419987153,-0.4857084419987153
72.08000000000001,0.4896830814143661,-0.4896830814143661
72.081,0.3802201550354749,-0.3802201550354749
72.08200000000001,0.18536913992944604,-0.18536913992944604
72.08300000000001,0.04087974675391659,0.04087974675391659
72.084,0.23455274282072258,0.23455274282072258
72.08500000000001,0.34036426948282617,0.34036426948282617
72.08600000000001,0.32745022851680416,0.32745022851680416
72.087,0.1975959029116181,0.1975959029116181
72.08800000000001,0.016162997715881033,-0.016162997715881033
72.08900000000001,0.2597073593881323,-0.2597073593881323
72.09,0.4733514433323296,-0.4733514433323296
72.09100000000001,0.6079241092583685,-0.6079241092583685
72.09200000000001,0.6368037624226937,-0.6368037624226937
72.093,0.5608508377967492,-0.5608508377967492
72.09400000000001,0.40552823080761613,-0.40552823080761613
72.09500000000001,0.21184405330279588,-0.21184405330279588
72.096,0.024364054868195928,-0.024364054868195928
72.09700000000001,0.12000706164470709,0.12000706164470709
72.09800000000001,0.1995015420362345,0.1995015420362345
72.099,0.20978440666676668,0.20978440666676668
72.10000000000001,0.16138926293036748,0.16138926293036748
72.10100000000001,0.07399727237705278,0.07399727237705278
72.102,0.03012653739778126,-0.03012653739778126
72.10300000000001,0.1314723186331529,-0.1314723186331529
72.104,0.2162162462646342,-0.2162162462646342
72.105,0.2766653301870533,-0.2766653301870533
72.10600000000001,0.3100289762227575,-0.3100289762227575
72.107,0.31670898999490615,-0.31670898999490615
72.108,0.2991061203715927,-0.2991061203715927
72.10900000000001,0.2613477506152111,-0.2613477506152111
72.11,0.2096627009453691,-0.2096627009453691
72.111,0.15268311930242562,-0.15268311930242562
72.11200000000001,0.10093105237298416,-0.10093105237298416
72.113,0.06514172717535249,-0.06514172717535249
72.114,0.053695140582803225,-0.053695140582803225
72.11500000000001,0.06998307190363251,-0.06998307190363251
72.116,0.11076775311409182,-0.11076775311409182
72.117,0.16636604863551485,-0.16636604863551485
72.11800000000001,0.22288402744830638,-0.22288402744830638
72.119,0.26596134554422635,-0.26596134554422635
72.12,0.284866604503224,-0.284866604503224
72.12100000000001,0.2755697341224619,-0.2755697341224619
72.122,0.24171039190201338,-0.24171039190201338
72.123,0.19309176349936563,-0.19309176349936563
72.12400000000001,0.14220229813223406,-0.14220229813223406
72.125,0.09998043597651296,-0.09998043597651296
72.126,0.07231982545973481,-0.07231982545973481
72.12700000000001,0.05855232347807515,-0.05855232347807515
72.128,0.05243163093194869,-0.05243163093194869
72.129,0.04522963948527825,-0.04522963948527825
72.13000000000001,0.0297827545472803,-0.0297827545472803
72.131,0.003970451654105367,-0.003970451654105367
72.132,0.027696163734407087,0.027696163734407087
72.13300000000001,0.05502204242165809,0.05502204242165809
72.134,0.06534620647853773,0.06534620647853773
72.135,0.047944149923697,0.047944149923697
72.13600000000001,0.0019066946115808836,-0.0019066946115808836
72.137,0.08061891908956043,-0.08061891908956043
72.138,0.17656962227038953,-0.17656962227038953
72.13900000000001,0.2729085750124953,-0.2729085750124953
72.14,0.35200807211763874,-0.35200807211763874
72.141,0.400139973385082,-0.400139973385082
72.14200000000001,0.41093190853054073,-0.41093190853054073
72.143,0.38660175284315923,-0.38660175284315923
72.144,0.3367227396158389,-0.3367227396158389
72.14500000000001,0.2750597363396209,-0.2750597363396209
72.146,0.21557323562488762,-0.21557323562488762
72.147,0.16884270274050162,-0.16884270274050162
72.14800000000001,0.13989775972430585,-0.13989775972430585
72.149,0.12789350866262794,-0.12789350866262794
72.15,0.12744295985837029,-0.12744295985837029
72.15100000000001,0.13094525139910707,-0.13094525139910707
72.152,0.13106519813396955,-0.13106519813396955
72.153,0.12264691876975353,-0.12264691876975353
72.15400000000001,0.10368404135537335,-0.10368404135537335
72.155,0.07535704262847431,-0.07535704262847431
72.156,0.04142649674183574,-0.04142649674183574
72.15700000000001,0.007351290173502889,-0.007351290173502889
72.158,0.020605096588792948,0.020605096588792948
72.159,0.03621280125011417,0.03621280125011417
72.16000000000001,0.03414625535256044,0.03414625535256044
72.161,0.010991526436713084,0.010991526436713084
72.162,0.033647345663023964,-0.033647345663023964
72.16300000000001,0.09620796267407083,-0.09620796267407083
72.164,0.16883989389290033,-0.16883989389290033
72.165,0.24013179657170924,-0.24013179657170924
72.16600000000001,0.29710103137710797,-0.29710103137710797
72.167,0.32821486564577873,-0.32821486564577873
72.168,0.32672931854482135,-0.32672931854482135
72.16900000000001,0.29330484028045567,-0.29330484028045567
72.17,0.23686193698447722,-0.23686193698447722
72.171,0.17304242972996575,-0.17304242972996575
72.17200000000001,0.12036070299074508,-0.12036070299074508
72.173,0.09494357433755973,-0.09494357433755973
72.174,0.10537797780206937,-0.10537797780206937
72.17500000000001,0.1493578275156523,-0.1493578275156523
72.176,0.21342585986032836,-0.21342585986032836
72.177,0.27621779022407666,-0.27621779022407666
72.17800000000001,0.31449520930097496,-0.31449520930097496
72.179,0.31026826829800513,-0.31026826829800513
72.18,0.256811321187564,-0.256811321187564
72.18100000000001,0.16157346394967398,-0.16157346394967398
72.182,0.04486365092103595,-0.04486365092103595
72.183,0.06550620909862048,0.06550620909862048
72.18400000000001,0.1421210745372734,0.1421210745372734
72.185,0.16601899483662352,0.16601899483662352
72.186,0.13237422432613144,0.13237422432613144
72.18700000000001,0.051957310693549585,0.051957310693549585
72.188,0.05217139500273915,-0.05217139500273915
72.18900000000001,0.1517580954925658,-0.1517580954925658
72.19000000000001,0.22202765613857334,-0.22202765613857334
72.191,0.24917797814062947,-0.24917797814062947
72.19200000000001,0.23429364035304767,-0.23429364035304767
72.19300000000001,0.192415684913683,-0.192415684913683
72.194,0.1470695237622125,-0.1470695237622125
72.19500000000001,0.12203345018154421,-0.12203345018154421
72.19600000000001,0.13303902493762032,-0.13303902493762032
72.197,0.18212952063129306,-0.18212952063129306
72.19800000000001,0.2565478816876331,-0.2565478816876331
72.19900000000001,0.3325580942112697,-0.3325580942112697
72.2,0.383001634011204,-0.383001634011204
72.20100000000001,0.3861753951333209,-0.3861753951333209
72.20200000000001,0.3331826096491267,-0.3331826096491267
72.203,0.23139080749932295,-0.23139080749932295
72.20400000000001,0.10286903077345988,-0.10286903077345988
72.20500000000001,0.021734144755092055,0.021734144755092055
72.206,0.11198192637591875,0.11198192637591875
72.20700000000001,0.14640502566570635,0.14640502566570635
72.20800000000001,0.11856229678526442,0.11856229678526442
72.209,0.038620230407567124,0.038620230407567124
72.21000000000001,0.06992809662912569,-0.06992809662912569
72.21100000000001,0.1772991813187056,-0.1772991813187056
72.212,0.25600699173747155,-0.25600699173747155
72.21300000000001,0.28841498449990033,-0.28841498449990033
72.21400000000001,0.27108430313110643,-0.27108430313110643
72.215,0.2148089238139389,-0.2148089238139389
72.21600000000001,0.14056992652914302,-0.14056992652914302
72.21700000000001,0.07283904466169167,-0.07283904466169167
72.218,0.03235778562757963,-0.03235778562757963
72.21900000000001,0.03053061969123516,-0.03053061969123516
72.22000000000001,0.06693963175417561,-0.06693963175417561
72.221,0.1304501330702157,-0.1304501330702157
72.22200000000001,0.20327748613966667,-0.20327748613966667
72.22300000000001,0.266563828303662,-0.266563828303662
72.224,0.3056969888071117,-0.3056969888071117
72.22500000000001,0.3138465058574409,-0.3138465058574409
72.22600000000001,0.29287068043252884,-0.29287068043252884
72.227,0.25161791703156544,-0.25161791703156544
72.22800000000001,0.20242264680416466,-0.20242264680416466
72.229,0.15705285285444825,-0.15705285285444825
72.23,0.12339469942036074,-0.12339469942036074
72.23100000000001,0.10379417578579364,-0.10379417578579364
72.232,0.09536777700855836,-0.09536777700855836
72.233,0.09195475724763169,-0.09195475724763169
72.23400000000001,0.08691103439899817,-0.08691103439899817
72.235,0.07576614283204053,-0.07576614283204053
72.236,0.05790344105104861,-0.05790344105104861
72.23700000000001,0.03680479868864217,-0.03680479868864217
72.238,0.018883869275224008,-0.018883869275224008
72.239,0.011361265946882804,-0.011361265946882804
72.24000000000001,0.01988831450111317,-0.01988831450111317
72.241,0.046647293061680695,-0.046647293061680695
72.242,0.08946355680555906,-0.08946355680555906
72.24300000000001,0.14213711811915908,-0.14213711811915908
72.244,0.19584618515496421,-0.19584618515496421
72.245,0.24119558438794275,-0.24119558438794275
72.24600000000001,0.27034763330457867,-0.27034763330457867
72.247,0.27870172561014106,-0.27870172561014106
72.248,0.26575371830605043,-0.26575371830605043
72.24900000000001,0.2350058964461882,-0.2350058964461882
72.25,0.19303984835061094,-0.19303984835061094
72.251,0.14804501707429518,-0.14804501707429518
72.25200000000001,0.10817778492502428,-0.10817778492502428
72.253,0.08010464873192746,-0.08010464873192746
72.254,0.06798206587954647,-0.06798206587954647
72.25500000000001,0.07298639769071025,-0.07298639769071025
72.256,0.09337476849989612,-0.09337476849989612
72.257,0.12496582329311967,-0.12496582329311967
72.25800000000001,0.1618930246730672,-0.1618930246730672
72.259,0.19749548094245806,-0.19749548094245806
72.26,0.22524924282200898,-0.22524924282200898
72.26100000000001,0.23967671119396217,-0.23967671119396217
72.262,0.23718101133371217,-0.23718101133371217
72.263,0.21673002114899065,-0.21673002114899065
72.26400000000001,0.1802751615113053,-0.1802751615113053
72.265,0.13276226032297467,-0.13276226032297467
72.266,0.08160837751035166,-0.08160837751035166
72.26700000000001,0.035600171548966,-0.035600171548966
72.268,0.0033121365302323236,-0.0033121365302323236
72.269,0.008687009436288529,0.008687009436288529
72.27000000000001,0.0025685561237299703,-0.0025685561237299703
72.271,0.03549696858209539,-0.03549696858209539
72.272,0.08404262936858486,-0.08404262936858486
72.27300000000001,0.13890482394024284,-0.13890482394024284
72.274,0.18973223386912774,-0.18973223386912774
72.275,0.22776711294373753,-0.22776711294373753
72.27600000000001,0.24820402455842006,-0.24820402455842006
72.277,0.2515123410476965,-0.2515123410476965
72.278,0.24319986868361754,-0.24319986868361754
72.27900000000001,0.2319298802465437,-0.2319298802465437
72.28,0.22643090417419143,-0.22643090417419143
72.281,0.23209381044481214,-0.23209381044481214
72.28200000000001,0.24837044444226608,-0.24837044444226608
72.283,0.2679659052479907,-0.2679659052479907
72.284,0.2783478510631143,-0.2783478510631143
72.28500000000001,0.2653927805170424,-0.2653927805170424
72.286,0.21825580530181743,-0.21825580530181743
72.287,0.1340262117273079,-0.1340262117273079
72.28800000000001,0.02061307591635242,-0.02061307591635242
72.289,0.10332249568690433,0.10332249568690433
72.29,0.21177753035753355,0.21177753035753355
72.29100000000001,0.2775451262884969,0.2775451262884969
72.292,0.2795531958944204,0.2795531958944204
72.293,0.2093536032955321,0.2093536032955321
72.29400000000001,0.07477428983135836,0.07477428983135836
72.295,0.100577304920757,-0.100577304920757
72.296,0.28214806341628096,-0.28214806341628096
72.29700000000001,0.4325442628312606,-0.4325442628312606
72.298,0.5208311445780817,-0.5208311445780817
72.299,0.5305019855744846,-0.5305019855744846
72.30000000000001,0.46386575473471214,-0.46386575473471214
72.301,0.3415435910464696,-0.3415435910464696
72.302,0.19711249179661805,-0.19711249179661805
72.30300000000001,0.06829995413640855,-0.06829995413640855
72.304,0.01288616107204743,0.01288616107204743
72.305,0.028403708454599608,0.028403708454599608
72.30600000000001,0.021428631986379565,-0.021428631986379565
72.307,0.11852344054101893,-0.11852344054101893
72.308,0.23234346276809603,-0.23234346276809603
72.30900000000001,0.32839254090153347,-0.32839254090153347
72.31,0.37750040768524484,-0.37750040768524484
72.311,0.36339086647470686,-0.36339086647470686
72.31200000000001,0.28659202769026393,-0.28659202769026393
72.313,0.1638241590206596,-0.1638241590206596
72.31400000000001,0.023254961245393724,-0.023254961245393724
72.31500000000001,0.10291780667864492,0.10291780667864492
72.316,0.1864944569420246,0.1864944569420246
72.31700000000001,0.2098452790436347,0.2098452790436347
72.31800000000001,0.16949982007398678,0.16949982007398678
72.319,0.07611394299841545,0.07611394299841545
72.32000000000001,0.04886607336193871,-0.04886607336193871
72.32100000000001,0.17875315493846156,-0.17875315493846156
72.322,0.2878868373287792,-0.2878868373287792
72.32300000000001,0.35712969748974543,-0.35712969748974543
72.32400000000001,0.37745778176247835,-0.37745778176247835
72.325,0.3510656972317203,-0.3510656972317203
72.32600000000001,0.2899994027416105,-0.2899994027416105
72.32700000000001,0.21282346606364366,-0.21282346606364366
72.328,0.14014808180019445,-0.14014808180019445
72.32900000000001,0.08996820540149986,-0.08996820540149986
72.33000000000001,0.07372732279870031,-0.07372732279870031
72.331,0.09385022511857832,-0.09385022511857832
72.33200000000001,0.14322549984499633,-0.14322549984499633
72.33300000000001,0.2067822248133051,-0.2067822248133051
72.334,0.2649206217945401,-0.2649206217945401
72.33500000000001,0.2981653063969255,-0.2981653063969255
72.33600000000001,0.2920823664593841,-0.2920823664593841
72.337,0.2413286405613546,-0.2413286405613546
72.33800000000001,0.15176830785316364,-0.15176830785316364
72.33900000000001,0.03993994046888083,-0.03993994046888083
72.34,0.07024813649672557,0.07024813649672557
72.34100000000001,0.15299746954824056,0.15299746954824056
72.34200000000001,0.18702405251975573,0.18702405251975573
72.343,0.16125555019461468,0.16125555019461468
72.34400000000001,0.07823115919793633,0.07823115919793633
72.34500000000001,0.045878494136295966,-0.045878494136295966
72.346,0.18484398159998405,-0.18484398159998405
72.34700000000001,0.3087516103684165,-0.3087516103684165
72.34800000000001,0.39154742868734727,-0.39154742868734727
72.349,0.41770653920676437,-0.41770653920676437
72.35000000000001,0.38615467730902475,-0.38615467730902475
72.35100000000001,0.310301431442498,-0.310301431442498
72.352,0.21413866599193887,-0.21413866599193887
72.35300000000001,0.12549163979502898,-0.12549163979502898
72.354,0.06833852150426234,-0.06833852150426234
72.355,0.0563783635177908,-0.0563783635177908
72.35600000000001,0.08964280258671187,-0.08964280258671187
72.357,0.15503075559376944,-0.15503075559376944
72.358,0.23048321893480828,-0.23048321893480828
72.35900000000001,0.29146743378096174,-0.29146743378096174
72.36,0.31782521175337064,-0.31782521175337064
72.361,0.2990340824221789,-0.2990340824221789
72.36200000000001,0.2365090718250904,-0.2365090718250904
72.363,0.1425290532014929,-0.1425290532014929
72.364,0.03638543157484131,-0.03638543157484131
72.36500000000001,0.060898528250385775,0.060898528250385775
72.366,0.13165854104303687,0.13165854104303687
72.367,0.165125054622423,0.165125054622423
72.36800000000001,0.15868601969917506,0.15868601969917506
72.369,0.11694742206046205,0.11694742206046205
72.37,0.04931439127856008,0.04931439127856008
72.37100000000001,0.03287345841576439,-0.03287345841576439
72.372,0.11871332857171302,-0.11871332857171302
72.373,0.19908895339272425,-0.19908895339272425
72.37400000000001,0.26699997321566804,-0.26699997321566804
72.375,0.3172961312414845,-0.3172961312414845
72.376,0.34639772070926433,-0.34639772070926433
72.37700000000001,0.3524324610320697,-0.3524324610320697
72.378,0.33585273529225146,-0.33585273529225146
72.379,0.30019796928477593,-0.30019796928477593
72.38000000000001,0.25242871731995165,-0.25242871731995165
72.381,0.20230563461155726,-0.20230563461155726
72.382,0.16061880037986642,-0.16061880037986642
72.38300000000001,0.13656532668980037,-0.13656532668980037
72.384,0.13502234214776931,-0.13502234214776931
72.385,0.15466811538331748,-0.15466811538331748
72.38600000000001,0.18775213055237894,-0.18775213055237894
72.387,0.22182837593033833,-0.22182837593033833
72.388,0.24310369528591091,-0.24310369528591091
72.38900000000001,0.2404540417142833,-0.2404540417142833
72.39,0.20885655557960425,-0.20885655557960425
72.391,0.15110715763160143,-0.15110715763160143
72.39200000000001,0.0772209263182404,-0.0772209263182404
72.393,0.0016727507079239423,-0.0016727507079239423
72.394,0.060637679666991406,0.060637679666991406
72.39500000000001,0.09838256504261556,0.09838256504261556
72.396,0.10647851846522793,0.10647851846522793
72.397,0.08663204578370465,0.08663204578370465
72.39800000000001,0.04572200532121817,0.04572200532121817
72.399,0.007245011986380168,-0.007245011986380168
72.4,0.06437878264588948,-0.06437878264588948
72.40100000000001,0.12109520078809721,-0.12109520078809721
72.402,0.1764505817981531,-0.1764505817981531
72.403,0.23158413168906866,-0.23158413168906866
72.40400000000001,0.2870199780313396,-0.2870199780313396
72.405,0.34008605924326685,-0.34008605924326685
72.406,0.3837248705878825,-0.3837248705878825
72.40700000000001,0.4074737887918408,-0.4074737887918408
72.408,0.40054921188819825,-0.40054921188819825
72.409,0.35608676703384323,-0.35608676703384323
72.41000000000001,0.2750058175194534,-0.2750058175194534
72.411,0.16792121880710287,-0.16792121880710287
72.412,0.054070719294242675,-0.054070719294242675
72.41300000000001,0.04280087131747368,0.04280087131747368
72.414,0.10058709442210212,0.10058709442210212
72.415,0.10518763620693683,0.10518763620693683
72.41600000000001,0.055072194676609065,0.055072194676609065
72.417,0.037526742328098606,-0.037526742328098606
72.418,0.14935221805401455,-0.14935221805401455
72.41900000000001,0.2521214118872993,-0.2521214118872993
72.42,0.32006816967114216,-0.32006816967114216
72.421,0.336805450620702,-0.336805450620702
72.42200000000001,0.2994874394647916,-0.2994874394647916
72.423,0.2190996963534696,-0.2190996963534696
72.424,0.11691531078685735,-0.11691531078685735
72.42500000000001,0.018322819295210846,-0.018322819295210846
72.426,0.054024569324525595,0.054024569324525595
72.427,0.08569973993966351,0.08569973993966351
72.42800000000001,0.07316177509450661,0.07316177509450661
72.429,0.023119145549011177,0.023119145549011177
72.43,0.0507907887680753,-0.0507907887680753
72.43100000000001,0.132609158665414,-0.132609158665414
72.432,0.20831495301026914,-0.20831495301026914
72.433,0.26845279370215425,-0.26845279370215425
72.43400000000001,0.3086163095763287,-0.3086163095763287
72.435,0.3281503974248592,-0.3281503974248592
72.436,0.3280794177043772,-0.3280794177043772
72.43700000000001,0.309445177699624,-0.309445177699624
72.438,0.27290254968680194,-0.27290254968680194
72.43900000000001,0.21972819488218298,-0.21972819488218298
72.44000000000001,0.15364479318185176,-0.15364479318185176
72.441,0.08236869697701088,-0.08236869697701088
72.44200000000001,0.017771234059346774,-0.017771234059346774
72.44300000000001,0.02596671275522544,0.02596671275522544
72.444,0.036004237984530674,0.036004237984530674
72.44500000000001,0.005250476556614148,0.005250476556614148
72.44600000000001,0.06402700838050812,-0.06402700838050812
72.447,0.15891886999420002,-0.15891886999420002
72.44800000000001,0.25780702712444314,-0.25780702712444314
72.44900000000001,0.3353669160190019,-0.3353669160190019
72.45,0.3693964151288671,-0.3693964151288671
72.45100000000001,0.34746898604493015,-0.34746898604493015
72.45200000000001,0.2712780134332391,-0.2712780134332391
72.453,0.15712427711114274,-0.15712427711114274
72.45400000000001,0.03213858789575019,-0.03213858789575019
72.45500000000001,0.07283239771607586,0.07283239771607586
72.456,0.13165676420477612,0.13165676420477612
72.45700000000001,0.13016550735775434,0.13016550735775434
72.45800000000001,0.07002844444305634,0.07002844444305634
72.459,0.031921424008884425,-0.031921424008884425
72.46000000000001,0.1487013678948983,-0.1487013678948983
72.46100000000001,0.25098814972421357,-0.25098814972421357
72.462,0.3153438193223007,-0.3153438193223007
72.46300000000001,0.3303971830475536,-0.3303971830475536
72.46400000000001,0.29920974249739263,-0.29920974249739263
72.465,0.237281379644961,-0.237281379644961
72.46600000000001,0.16701054030038276,-0.16701054030038276
72.46700000000001,0.11047930422461161,-0.11047930422461161
72.468,0.08285973867091756,-0.08285973867091756
72.46900000000001,0.08842302965245175,-0.08842302965245175
72.47000000000001,0.12020956563843765,-0.12020956563843765
72.471,0.16321020760930904,-0.16321020760930904
72.47200000000001,0.19981760775877389,-0.19981760775877389
72.47300000000001,0.21567526081513866,-0.21567526081513866
72.474,0.20405704369527633,-0.20405704369527633
72.47500000000001,0.16751053263864868,-0.16751053263864868
72.47600000000001,0.11646093005697422,-0.11646093005697422
72.477,0.06546245458222277,-0.06546245458222277
72.47800000000001,0.028477324464182385,-0.028477324464182385
72.479,0.014755211484598574,-0.014755211484598574
72.48,0.026553689699676086,-0.026553689699676086
72.48100000000001,0.05923338796975475,-0.05923338796975475
72.482,0.10344357862555154,-0.10344357862555154
72.483,0.14846454983784962,-0.14846454983784962
72.48400000000001,0.18549346294158997,-0.18549346294158997
72.485,0.20981133901735483,-0.20981133901735483
72.486,0.22126127111228233,-0.22126127111228233
72.48700000000001,0.22310490759902657,-0.22310490759902657
72.488,0.2198762733764954,-0.2198762733764954
72.489,0.2151379423312817,-0.2151379423312817
72.49000000000001,0.2099893956893525,-0.2099893956893525
72.491,0.20282903752448145,-0.20282903752448145
72.492,0.19037417153076686,-0.19037417153076686
72.49300000000001,0.16948076991991368,-0.16948076991991368
72.494,0.13903387401035894,-0.13903387401035894
72.495,0.10117902198267226,-0.10117902198267226
72.49600000000001,0.06141649779479441,-0.06141649779479441
72.497,0.02748186847909284,-0.02748186847909284
72.498,0.007345202880478796,-0.007345202880478796
72.49900000000001,0.006944234851767761,-0.006944234851767761
72.5,0.02834252908639845,-0.02834252908639845
72.501,0.06886431475848709,-0.06886431475848709
72.50200000000001,0.1214622573428209,-0.1214622573428209
72.503,0.17622295906217067,-0.17622295906217067
72.504,0.22261224920146927,-0.22261224920146927
72.50500000000001,0.2518862188882133,-0.2518862188882133
72.506,0.25907715095899864,-0.25907715095899864
72.507,0.24409225310190208,-0.24409225310190208
72.50800000000001,0.2116898638723238,-0.2116898638723238
72.509,0.17036033320558175,-0.17036033320558175
72.51,0.13037801197440435,-0.13037801197440435
72.51100000000001,0.10146215421839799,-0.10146215421839799
72.512,0.09056177369113405,-0.09056177369113405
72.513,0.1002533678185864,-0.1002533678185864
72.51400000000001,0.12811627125985625,-0.12811627125985625
72.515,0.16724725127152718,-0.16724725127152718
72.516,0.20782717223462477,-0.20782717223462477
72.51700000000001,0.23940545851731831,-0.23940545851731831
72.518,0.2533790190524351,-0.2533790190524351
72.519,0.24506520515249197,-0.24506520515249197
72.52000000000001,0.21483837936682815,-0.21483837936682815
72.521,0.16801691825402054,-0.16801691825402054
72.522,0.11350842178987564,-0.11350842178987564
72.52300000000001,0.06156322653757573,-0.06156322653757573
72.524,0.02124908500197764,-0.02124908500197764
72.525,0.0016453458577998514,0.0016453458577998514
72.52600000000001,0.005687520903860488,0.005687520903860488
72.527,0.006425453918412871,-0.006425453918412871
72.528,0.029272226203861607,-0.029272226203861607
72.52900000000001,0.056786849220268,-0.056786849220268
72.53,0.08428672832048689,-0.08428672832048689
72.531,0.10974507464405803,-0.10974507464405803
72.53200000000001,0.13387395698207316,-0.13387395698207316
72.533,0.15901772917872115,-0.15901772917872115
72.534,0.18730572467440676,-0.18730572467440676
72.53500000000001,0.21881418378229212,-0.21881418378229212
72.536,0.25052072116770796,-0.25052072116770796
72.537,0.27657153294772796,-0.27657153294772796
72.53800000000001,0.2899012963409434,-0.2899012963409434
72.539,0.28471394650435955,-0.28471394650435955
72.54,0.25894584361159545,-0.25894584361159545
72.54100000000001,0.21574811009143768,-0.21574811009143768
72.542,0.1632980894330749,-0.1632980894330749
72.543,0.11280794003011829,-0.11280794003011829
72.54400000000001,0.0752569059525674,-0.0752569059525674
72.545,0.057896859774484,-0.057896859774484
72.546,0.061763875438603955,-0.061763875438603955
72.54700000000001,0.08117624921708644,-0.08117624921708644
72.548,0.10556760526617204,-0.10556760526617204
72.549,0.12319083912351192,-0.12319083912351192
72.55000000000001,0.12551369057015327,-0.12551369057015327
72.551,0.11077459008514046,-0.11077459008514046
72.552,0.08533291150368738,-0.08533291150368738
72.55300000000001,0.062112880437169005,-0.062112880437169005
72.554,0.056409074010056126,-0.056409074010056126
72.555,0.08027704429614213,-0.08027704429614213
72.55600000000001,0.1373411560793809,-0.1373411560793809
72.557,0.21987730164422692,-0.21987730164422692
72.558,0.30942035439708193,-0.30942035439708193
72.55900000000001,0.38106819791463253,-0.38106819791463253
72.56,0.4104384971237922,-0.4104384971237922
72.561,0.3812788700713824,-0.3812788700713824
72.56200000000001,0.29136770004357115,-0.29136770004357115
72.563,0.1547232096271508,-0.1547232096271508
72.56400000000001,0.0008240501236227438,0.0008240501236227438
72.56500000000001,0.14025089647832756,0.14025089647832756
72.566,0.2303991779495176,0.2303991779495176
72.56700000000001,0.24890620440438083,0.24890620440438083
72.56800000000001,0.19040128417041635,0.19040128417041635
72.569,0.06812059537277193,0.06812059537277193
72.57000000000001,0.08957141301949056,-0.08957141301949056
72.57100000000001,0.24676184202442986,-0.24676184202442986
72.572,0.3694713223114534,-0.3694713223114534
72.57300000000001,0.4343026920970271,-0.4343026920970271
72.57400000000001,0.43381687380956446,-0.43381687380956446
72.575,0.37722460300156413,-0.37722460300156413
72.57600000000001,0.2864144424682249,-0.2864144424682249
72.57700000000001,0.18872278674666243,-0.18872278674666243
72.578,0.10876325079404081,-0.10876325079404081
72.57900000000001,0.06180202694982673,-0.06180202694982673
72.58000000000001,0.050563730200922974,-0.050563730200922974
72.581,0.06619366069486288,-0.06619366069486288
72.58200000000001,0.09277071176754004,-0.09277071176754004
72.58300000000001,0.11368552400121568,-0.11368552400121568
72.584,0.11770116590678215,-0.11770116590678215
72.58500000000001,0.10273182406442916,-0.10273182406442916
72.58600000000001,0.07620937852186715,-0.07620937852186715
72.587,0.052066774495731716,-0.052066774495731716
72.58800000000001,0.04546755804067748,-0.04546755804067748
72.58900000000001,0.06710404457788421,-0.06710404457788421
72.59,0.11896802862616629,-0.11896802862616629
72.59100000000001,0.19296700051412896,-0.19296700051412896
72.59200000000001,0.2728096902541167,-0.2728096902541167
72.593,0.3385357913633603,-0.3385357913633603
72.59400000000001,0.37225140075879626,-0.37225140075879626
72.59500000000001,0.3632992441885018,-0.3632992441885018
72.596,0.31132290890114345,-0.31132290890114345
72.59700000000001,0.22637812111617905,-0.22637812111617905
72.59800000000001,0.1261629727333834,-0.1261629727333834
72.599,0.03128765656578247,-0.03128765656578247
72.60000000000001,0.03997319813085287,0.03997319813085287
72.60100000000001,0.07594501158018363,0.07594501158018363
72.602,0.07372772449785248,0.07372772449785248
72.60300000000001,0.03886653219700209,0.03886653219700209
72.604,0.017135206972869854,-0.017135206972869854
72.605,0.08052435174443728,-0.08052435174443728
72.60600000000001,0.13903438110008248,-0.13903438110008248
72.607,0.1845824167892095,-0.1845824167892095
72.608,0.21429476150810123,-0.21429476150810123
72.60900000000001,0.22981141537218208,-0.22981141537218208
72.61,0.23535649883822718,-0.23535649883822718
72.611,0.23538993311372747,-0.23538993311372747
72.61200000000001,0.2326930589159717,-0.2326930589159717
72.613,0.22750183916143063,-0.22750183916143063
72.614,0.21788541459145516,-0.21788541459145516
72.61500000000001,0.20112143197958732,-0.20112143197958732
72.616,0.17548697345541908,-0.17548697345541908
72.617,0.14176311551313847,-0.14176311551313847
72.61800000000001,0.10386769972027787,-0.10386769972027787
72.619,0.068335619033416,-0.068335619033416
72.62,0.042755027167324156,-0.042755027167324156
72.62100000000001,0.0336175472676149,-0.0336175472676149
72.622,0.04424462143252039,-0.04424462143252039
72.623,0.07345187129247222,-0.07345187129247222
72.62400000000001,0.11541171824078511,-0.11541171824078511
72.625,0.16083245151640257,-0.16083245151640257
72.626,0.1991889035782295,-0.1991889035782295
72.62700000000001,0.2214252706281874,-0.2214252706281874
72.628,0.22239375888489377,-0.22239375888489377
72.629,0.2023394130270586,-0.2023394130270586
72.63000000000001,0.166982185657081,-0.166982185657081
72.631,0.1261198814957114,-0.1261198814957114
72.632,0.0910812576814033,-0.0910812576814033
72.63300000000001,0.07168726777560974,-0.07168726777560974
72.634,0.07353774185402284,-0.07353774185402284
72.635,0.09638089733277322,-0.09638089733277322
72.63600000000001,0.13405182706566987,-0.13405182706566987
72.637,0.17604951843897065,-0.17604951843897065
72.638,0.21036912248873096,-0.21036912248873096
72.63900000000001,0.22684160860176417,-0.22684160860176417
72.64,0.22006272684571093,-0.22006272684571093
72.641,0.19107420106264328,-0.19107420106264328
72.64200000000001,0.1472808281604967,-0.1472808281604967
72.643,0.10056717341160448,-0.10056717341160448
72.644,0.06408658238576526,-0.06408658238576526
72.64500000000001,0.04858837922710013,-0.04858837922710013
72.646,0.05930846731688133,-0.05930846731688133
72.647,0.09431922813783078,-0.09431922813783078
72.64800000000001,0.14484404583988253,-0.14484404583988253
72.649,0.19749514077159802,-0.19749514077159802
72.65,0.2378453604723162,-0.2378453604723162
72.65100000000001,0.254354862084026,-0.254354862084026
72.652,0.24155920948356724,-0.24155920948356724
72.653,0.20162420355138277,-0.20162420355138277
72.65400000000001,0.14383034736678668,-0.14383034736678668
72.655,0.08213422576679319,-0.08213422576679319
72.656,0.03149455823752767,-0.03149455823752767
72.65700000000001,0.003989259750583285,-0.003989259750583285
72.658,0.005789197189494333,-0.005789197189494333
72.659,0.03578732491372638,-0.03578732491372638
72.66000000000001,0.086193140147098,-0.086193140147098
72.661,0.14484135387155894,-0.14484135387155894
72.662,0.19849771266780258,-0.19849771266780258
72.66300000000001,0.23620755941484328,-0.23620755941484328
72.664,0.2517834428353054,-0.2517834428353054
72.665,0.24483631479895895,-0.24483631479895895
72.66600000000001,0.2202129700332014,-0.2202129700332014
72.667,0.18616273649814996,-0.18616273649814996
72.668,0.15187979661730255,-0.15187979661730255
72.66900000000001,0.12516687911027158,-0.12516687911027158
72.67,0.11083143810064289,-0.11083143810064289
72.671,0.11012237141073733,-0.11012237141073733
72.67200000000001,0.12115842975283231,-0.12115842975283231
72.673,0.14001093197315007,-0.14001093197315007
72.674,0.16197119031816065,-0.16197119031816065
72.67500000000001,0.1825830367553718,-0.1825830367553718
72.676,0.19821201474741146,-0.19821201474741146
72.677,0.20616631696554433,-0.20616631696554433
