Czas,AbsSum,Sum
190.574,0.09111160811326924,0.09111160811326924
190.575,0.08599095712271554,0.08599095712271554
190.576,0.07309177383164012,0.07309177383164012
190.577,0.05282350959670645,0.05282350959670645
190.578,0.02775147534967326,0.02775147534967326
190.579,0.0017556313722957295,0.0017556313722957295
190.58,0.021238956186137026,-0.021238956186137026
190.581,0.03840626102106104,-0.03840626102106104
190.582,0.048571553781862176,-0.048571553781862176
190.583,0.051990862220228196,-0.051990862220228196
190.584,0.04953438962761303,-0.04953438962761303
190.585,0.041725282292555455,-0.041725282292555455
190.586,0.028156892043437964,-0.028156892043437964
190.587,0.0076455512381776725,-0.0076455512381776725
190.588,0.020862996264435107,0.020862996264435107
190.589,0.05698689125500778,0.05698689125500778
190.59,0.09779958062798189,0.09779958062798189
190.591,0.1375226571663406,0.1375226571663406
190.592,0.16836794932053167,0.16836794932053167
190.593,0.18244580219646722,0.18244580219646722
190.594,0.17421067690861558,0.17421067690861558
190.595,0.14263029794402837,0.14263029794402837
190.596,0.09226366019667376,0.09226366019667376
190.597,0.03273677396490027,0.03273677396490027
190.598,0.02338085564294745,-0.02338085564294745
190.599,0.06374833734224206,-0.06374833734224206
190.6,0.07953861898932457,-0.07953861898932457
190.601,0.0678229965699666,-0.0678229965699666
190.602,0.03230570145026601,-0.03230570145026601
190.603,0.017818768993452583,0.017818768993452583
190.604,0.07051226375220865,0.07051226375220865
190.605,0.11419810314275813,0.11419810314275813
190.606,0.14069715036011465,0.14069715036011465
190.607,0.14693272715350192,0.14693272715350192
190.608,0.1349892516430593,0.1349892516430593
190.609,0.11067361923902719,0.11067361923902719
190.61,0.08120809625289405,0.08120809625289405
190.611,0.05291395480172101,0.05291395480172101
190.612,0.029657211660379712,0.029657211660379712
190.613,0.012471219654435428,0.012471219654435428
190.614,0.00029200843361376627,0.00029200843361376627
190.615,0.008672767661293768,-0.008672767661293768
190.616,0.01561713196492387,-0.01561713196492387
190.617,0.02044141264654098,-0.02044141264654098
190.618,0.021953970034299775,-0.021953970034299775
190.619,0.01881468292018229,-0.01881468292018229
190.62,0.010720855397954088,-0.010720855397954088
190.621,0.0007885134724245901,0.0007885134724245901
190.622,0.012386181132744811,0.012386181132744811
190.623,0.019979956919425224,0.019979956919425224
190.624,0.020383334765643024,0.020383334765643024
190.625,0.012983318435807245,0.012983318435807245
190.626,0.0006750777458293111,0.0006750777458293111
190.627,0.010452698652922754,-0.010452698652922754
190.628,0.012756619602629304,-0.012756619602629304
190.629,0.00043273054544945566,0.00043273054544945566
190.63,0.032211151325624465,0.032211151325624465
190.631,0.08035572934822155,0.08035572934822155
190.632,0.13713335795181103,0.13713335795181103
190.633,0.19086930152161075,0.19086930152161075
190.634,0.2288905346424539,0.2288905346424539
190.635,0.24097607260603038,0.24097607260603038
190.636,0.22224711373959205,0.22224711373959205
190.637,0.1745893635838116,0.1745893635838116
190.638,0.1061675301163083,0.1061675301163083
190.639,0.029207417377034695,0.029207417377034695
190.64,0.04322823300924239,-0.04322823300924239
190.641,0.10044676403000963,-0.10044676403000963
190.642,0.13634607884266325,-0.13634607884266325
190.643,0.1500570339470566,-0.1500570339470566
190.644,0.1449770143204523,-0.1449770143204523
190.645,0.1267053652499236,-0.1267053652499236
190.646,0.10072347765500578,-0.10072347765500578
190.647,0.07067577464259645,-0.07067577464259645
190.648,0.03781145053101198,-0.03781145053101198
190.649,0.0016615735495987272,-0.0016615735495987272
190.65,0.03846158394342236,0.03846158394342236
190.651,0.08186454547860578,0.08186454547860578
190.652,0.125512092430772,0.125512092430772
190.653,0.1641751152097568,0.1641751152097568
190.654,0.19170323008696744,0.19170323008696744
190.655,0.2029792349126034,0.2029792349126034
190.656,0.19582125275113116,0.19582125275113116
190.657,0.1720854088228363,0.1720854088228363
190.658,0.1374925635551547,0.1374925635551547
190.659,0.10015702947327942,0.10015702947327942
190.66,0.06826608522650046,0.06826608522650046
190.661,0.047674185325562446,0.047674185325562446
190.662,0.040220811445022875,0.040220811445022875
190.663,0.04334047005287878,0.04334047005287878
190.664,0.051094710364399054,0.051094710364399054
190.665,0.056275826230133275,0.056275826230133275
190.666,0.05287831257423403,0.05287831257423403
190.667,0.03812660803911516,0.03812660803911516
190.668,0.013415880419975545,0.013415880419975545
190.669,0.016100772688896203,-0.016100772688896203
190.67,0.04309707635339921,-0.04309707635339921
190.671,0.060283530269402585,-0.060283530269402585
190.672,0.06253129856162087,-0.06253129856162087
190.673,0.04827598623169993,-0.04827598623169993
190.674,0.019841473283390587,-0.019841473283390587
190.675,0.01731334198650014,0.01731334198650014
190.676,0.05609987176055986,0.05609987176055986
190.677,0.08955243900892795,0.08955243900892795
190.678,0.11232700768658188,0.11232700768658188
190.679,0.12160390259653431,0.12160390259653431
190.68,0.11728769903148328,0.11728769903148328
190.681,0.10161482685570622,0.10161482685570622
190.682,0.07840713277467426,0.07840713277467426
190.683,0.05222336077462941,0.05222336077462941
190.684,0.027586228496729426,0.027586228496729426
190.685,0.008358350148915727,0.008358350148915727
190.686,0.002734953763919634,-0.002734953763919634
190.687,0.004451343109580619,-0.004451343109580619
190.688,0.0027793972852721005,0.0027793972852721005
190.689,0.016900207253170096,0.016900207253170096
190.69,0.034595182469442376,0.034595182469442376
190.691,0.05200966619959502,0.05200966619959502
190.692,0.06572171160788032,0.06572171160788032
190.693,0.07371883462269935,0.07371883462269935
190.694,0.07604406305847289,0.07604406305847289
190.695,0.07480530111641226,0.07480530111641226
190.696,0.07341338759017502,0.07341338759017502
190.697,0.07518735654703779,0.07518735654703779
190.698,0.08174646336918356,0.08174646336918356
190.699,0.0917812410906429,0.0917812410906429
190.7,0.10076769608857905,0.10076769608857905
190.701,0.10193361158853231,0.10193361158853231
190.702,0.08836483957078634,0.08836483957078634
190.703,0.055688550073604626,0.055688550073604626
190.704,0.0044571989407224955,0.0044571989407224955
190.705,0.058680813299906265,-0.058680813299906265
190.706,0.12164871474724204,-0.12164871474724204
190.707,0.1695201045316932,-0.1695201045316932
190.708,0.18843472166972275,-0.18843472166972275
190.709,0.1697547211468935,-0.1697547211468935
190.71,0.11316342602390717,-0.11316342602390717
190.711,0.027627289616530604,-0.027627289616530604
190.712,0.07025981322323127,0.07025981322323127
190.713,0.1602291486402485,0.1602291486402485
190.714,0.22351911289687965,0.22351911289687965
190.715,0.2477820907565631,0.2477820907565631
190.716,0.23024506481259355,0.23024506481259355
190.717,0.1781641169157171,0.1781641169157171
190.718,0.10644664645870594,0.10644664645870594
190.719,0.0332013426477864,0.0332013426477864
190.72,0.025379674436930233,-0.025379674436930233
190.721,0.05921714009046497,-0.05921714009046497
190.722,0.06636819084147783,-0.06636819084147783
190.723,0.05237293459911063,-0.05237293459911063
190.724,0.02732005492996048,-0.02732005492996048
190.725,0.001772362258933291,-0.001772362258933291
190.726,0.01697172514727674,0.01697172514727674
190.727,0.026990433842392747,0.026990433842392747
190.728,0.0315684859831562,0.0315684859831562
190.729,0.036941109560130636,0.036941109560130636
190.73,0.048913393276676986,0.048913393276676986
190.731,0.06971869552359466,0.06971869552359466
190.732,0.09637669997257015,0.09637669997257015
190.733,0.12124159171442961,0.12124159171442961
190.734,0.13460115074248558,0.13460115074248558
190.735,0.12840052499306465,0.12840052499306465
190.736,0.09970853669782409,0.09970853669782409
190.737,0.05259024081651553,0.05259024081651553
190.738,0.002412406298210601,-0.002412406298210601
190.739,0.051147019403639415,-0.051147019403639415
190.74,0.08017143143648642,-0.08017143143648642
190.741,0.08108664238766405,-0.08108664238766405
190.742,0.05339132606888419,-0.05339132606888419
190.743,0.004842666793680395,-0.004842666793680395
190.744,0.05085352347882455,0.05085352347882455
190.745,0.09829075061474457,0.09829075061474457
190.746,0.12515161861213486,0.12515161861213486
190.747,0.12595758576949323,0.12595758576949323
190.748,0.10355327937024295,0.10355327937024295
190.749,0.06787276963875932,0.06787276963875932
190.75,0.032454044070373556,0.032454044070373556
190.751,0.0099138767430611,0.0099138767430611
190.752,0.00791343347873874,0.00791343347873874
190.753,0.02693321584961139,0.02693321584961139
190.754,0.06051889795953391,0.06051889795953391
190.755,0.09779580223342221,0.09779580223342221
190.756,0.12728500155824918,0.12728500155824918
190.757,0.14065219593036815,0.14065219593036815
190.758,0.13511109373157537,0.13511109373157537
190.759,0.11373819402370011,0.11373819402370011
190.76,0.08373146630352246,0.08373146630352246
190.761,0.05337738819798332,0.05337738819798332
190.762,0.02891855102003582,0.02891855102003582
190.763,0.012493323515877286,0.012493323515877286
190.764,0.0018710457812507464,0.0018710457812507464
190.765,0.007993962688139788,-0.007993962688139788
190.766,0.022256301298432368,-0.022256301298432368
190.767,0.043415110895800746,-0.043415110895800746
190.768,0.06959773339483433,-0.06959773339483433
190.769,0.09459794172826874,-0.09459794172826874
190.77,0.109715726396724,-0.109715726396724
190.771,0.10677081373548625,-0.10677081373548625
190.772,0.08121813830838287,-0.08121813830838287
190.773,0.03423896393595682,-0.03423896393595682
190.774,0.02696842159227586,0.02696842159227586
190.775,0.09085011280324307,0.09085011280324307
190.776,0.1445895716799388,0.1445895716799388
190.777,0.17763021939033763,0.17763021939033763
190.778,0.184499678757843,0.184499678757843
190.779,0.1660709749146443,0.1660709749146443
190.78,0.12894311870569974,0.12894311870569974
190.781,0.08325224412103727,0.08325224412103727
190.782,0.039711890787484716,0.039711890787484716
190.783,0.006864545806419153,0.006864545806419153
190.784,0.010639675415913374,-0.010639675415913374
190.785,0.01235485272604886,-0.01235485272604886
190.786,0.001085197353114964,-0.001085197353114964
190.787,0.018771379332524596,0.018771379332524596
190.788,0.042851896392243294,0.042851896392243294
190.789,0.06782855787885178,0.06782855787885178
190.79,0.09153290365856392,0.09153290365856392
190.791,0.11237606005326861,0.11237606005326861
190.792,0.1285486463127563,0.1285486463127563
190.793,0.13756109463230404,0.13756109463230404
190.794,0.13650135514439166,0.13650135514439166
190.795,0.12302335225262806,0.12302335225262806
190.796,0.09669205946241144,0.09669205946241144
190.797,0.060067750860595126,0.060067750860595126
190.798,0.018925539598130703,0.018925539598130703
190.799,0.01871234700450486,-0.01871234700450486
190.8,0.044602806649034155,-0.044602806649034155
190.801,0.052787795318290365,-0.052787795318290365
190.802,0.04173216893629328,-0.04173216893629328
190.803,0.015276777079125892,-0.015276777079125892
190.804,0.018068545157608584,0.018068545157608584
190.805,0.047422694495066864,0.047422694495066864
190.806,0.06279179581241423,0.06279179581241423
190.807,0.058283847568042946,0.058283847568042946
190.808,0.03422804395785772,0.03422804395785772
190.809,0.0025423873115618667,-0.0025423873115618667
190.81,0.04041384940069437,-0.04041384940069437
190.811,0.06625013464355589,-0.06625013464355589
190.812,0.06921477155292288,-0.06921477155292288
190.813,0.044004275558391925,-0.044004275558391925
190.814,0.00747264271019854,0.00747264271019854
190.815,0.07644085185319183,0.07644085185319183
190.816,0.1494712087829131,0.1494712087829131
190.817,0.21184790798961717,0.21184790798961717
190.818,0.2510797131039024,0.2510797131039024
190.819,0.25958268589354905,0.25958268589354905
190.82,0.23590316916076892,0.23590316916076892
190.821,0.18435609249221319,0.18435609249221319
190.822,0.11343985759173081,0.11343985759173081
190.823,0.03369076115882441,0.03369076115882441
190.824,0.044327910988631536,-0.044327910988631536
190.825,0.11142344695278217,-0.11142344695278217
190.826,0.16043165038453588,-0.16043165038453588
190.827,0.1863409887598918,-0.1863409887598918
190.828,0.1862641179248573,-0.1862641179248573
190.829,0.15959339584309884,-0.15959339584309884
190.83,0.1084461748094967,-0.1084461748094967
190.831,0.03820345153011473,-0.03820345153011473
190.832,0.04228014549725323,0.04228014549725323
190.833,0.12124675979955235,0.12124675979955235
190.834,0.18563229806235904,0.18563229806235904
190.835,0.22355622866746594,0.22355622866746594
190.836,0.22715748240631872,0.22715748240631872
190.837,0.19495350710979076,0.19495350710979076
190.838,0.13289152219467182,0.13289152219467182
190.839,0.05356004869349751,0.05356004869349751
190.84,0.026440783337406515,-0.026440783337406515
190.841,0.09037901843147589,-0.09037901843147589
190.842,0.12548029614427447,-0.12548029614427447
190.843,0.12604868183324924,-0.12604868183324924
190.844,0.09468218984111987,-0.09468218984111987
190.845,0.04120501741890814,-0.04120501741890814
190.846,0.020360845226240265,0.020360845226240265
190.847,0.07585026253181204,0.07585026253181204
190.848,0.11478585407923192,0.11478585407923192
190.849,0.13282596887705522,0.13282596887705522
190.85,0.1321410228678439,0.1321410228678439
190.851,0.11972252187314414,0.11972252187314414
190.852,0.10431011493998299,0.10431011493998299
190.853,0.09305954710653763,0.09305954710653763
190.854,0.089120352772744,0.089120352772744
190.855,0.09093380036084442,0.09093380036084442
190.856,0.09342646113253683,0.09342646113253683
190.857,0.09058654978919023,0.09058654978919023
190.858,0.0784109927033434,0.0784109927033434
190.859,0.0570770147755133,0.0570770147755133
190.86,0.03147106893610574,0.03147106893610574
190.861,0.009803266830774149,0.009803266830774149
190.862,0.0007384628770723545,0.0007384628770723545
190.863,0.010037773646462966,0.010037773646462966
190.864,0.03792546431113397,0.03792546431113397
190.865,0.07819185840155174,0.07819185840155174
190.866,0.11947634276393848,0.11947634276393848
190.867,0.14843501238188095,0.14843501238188095
190.868,0.15383632752931709,0.15383632752931709
190.869,0.13027288804049086,0.13027288804049086
190.87,0.08025419304813641,0.08025419304813641
190.871,0.013935545119211579,0.013935545119211579
190.872,0.05351527628152508,-0.05351527628152508
190.873,0.10615296750603664,-0.10615296750603664
190.874,0.1318079053004496,-0.1318079053004496
190.875,0.12555901093430732,-0.12555901093430732
190.876,0.09105789522970387,-0.09105789522970387
190.877,0.03930456511152669,-0.03930456511152669
190.878,0.014733396184978043,0.014733396184978043
190.879,0.056604287000362685,0.056604287000362685
190.88,0.07657978863265269,0.07657978863265269
190.881,0.07231719640222156,0.07231719640222156
190.882,0.049207614384620735,0.049207614384620735
190.883,0.018368043167161563,0.018368043167161563
190.884,0.007043648999783048,-0.007043648999783048
190.885,0.016019676539234418,-0.016019676539234418
190.886,0.0031094273271252693,-0.0031094273271252693
190.887,0.029968220108997468,0.029968220108997468
190.888,0.07494172454660597,0.07494172454660597
190.889,0.11958023032359111,0.11958023032359111
190.89,0.15142627296431677,0.15142627296431677
190.891,0.1615205544869538,0.1615205544869538
190.892,0.1470163286268109,0.1470163286268109
190.893,0.11195031718699266,0.11195031718699266
190.894,0.06600521646907676,0.06600521646907676
190.895,0.021688090098438195,0.021688090098438195
190.896,0.009213959064663824,-0.009213959064663824
190.897,0.018872333241588102,-0.018872333241588102
190.898,0.005455812899185175,-0.005455812899185175
190.899,0.026545012688234282,0.026545012688234282
190.9,0.06772171995901677,0.06772171995901677
190.901,0.10641988595135454,0.10641988595135454
190.902,0.1318992711952358,0.1318992711952358
190.903,0.137115440137336,0.137115440137336
190.904,0.12040676829604546,0.12040676829604546
190.905,0.08570192198270621,0.08570192198270621
190.906,0.04127339655675488,0.04127339655675488
190.907,0.0025605029678007485,-0.0025605029678007485
190.908,0.0361345217284349,-0.0361345217284349
190.909,0.052819774327395486,-0.052819774327395486
190.91,0.05049623900768474,-0.05049623900768474
190.911,0.031784656312664916,-0.031784656312664916
190.912,0.003043402677805118,-0.003043402677805118
190.913,0.027545728052176033,0.027545728052176033
190.914,0.05225569628353277,0.05225569628353277
190.915,0.06583337643957465,0.06583337643957465
190.916,0.06672374365987999,0.06672374365987999
190.917,0.05718890766579543,0.05718890766579543
190.918,0.042318436161296935,0.042318436161296935
190.919,0.02823605915340721,0.02823605915340721
190.92,0.02003703881737029,0.02003703881737029
190.921,0.02007608431798147,0.02007608431798147
190.922,0.027138344715960994,0.027138344715960994
190.923,0.03678150600383612,0.03678150600383612
190.924,0.04279576244653627,0.04279576244653627
190.925,0.03938272491226713,0.03938272491226713
190.926,0.02340515713196467,0.02340515713196467
190.927,0.004011926732023552,-0.004011926732023552
190.928,0.037106120126173314,-0.037106120126173314
190.929,0.06657516342484582,-0.06657516342484582
190.93,0.08195911228507924,-0.08195911228507924
190.931,0.07470367830632385,-0.07470367830632385
190.932,0.04103399886060266,-0.04103399886060266
190.933,0.01625634636713169,0.01625634636713169
190.934,0.08774955108878557,0.08774955108878557
190.935,0.15926445994602179,0.15926445994602179
190.936,0.21525856012678934,0.21525856012678934
190.937,0.24290587531331465,0.24290587531331465
190.938,0.2357195567860002,0.2357195567860002
190.939,0.1956424624241906,0.1956424624241906
190.94,0.13290908897859044,0.13290908897859044
190.941,0.06359344999445948,0.06359344999445948
190.942,0.005428859825470811,0.005428859825470811
190.943,0.026982118182284687,-0.026982118182284687
190.944,0.02622341748440582,-0.02622341748440582
190.945,0.005794631286960339,0.005794631286960339
190.946,0.058274375185132454,0.058274375185132454
190.947,0.11448026179601345,0.11448026179601345
190.948,0.15639764423895075,0.15639764423895075
190.949,0.16978712909273752,0.16978712909273752
190.95,0.14818690162264536,0.14818690162264536
190.951,0.09470909714910358,0.09470909714910358
190.952,0.021116149658572336,0.021116149658572336
190.953,0.05553931802002132,-0.05553931802002132
190.954,0.11771176218223744,-0.11771176218223744
190.955,0.15218151930852675,-0.15218151930852675
190.956,0.15349012271883722,-0.15349012271883722
190.957,0.1250214469904457,-0.1250214469904457
190.958,0.07748187017493369,-0.07748187017493369
190.959,0.025321945307422378,-0.025321945307422378
190.96,0.017747455831970793,0.017747455831970793
190.961,0.042747543042196634,0.042747543042196634
190.962,0.04772970566633106,0.04772970566633106
190.963,0.03774188116467103,0.03774188116467103
190.964,0.022578522954691538,0.022578522954691538
190.965,0.01312765730534271,0.01312765730534271
190.966,0.01754999352782982,0.01754999352782982
190.967,0.038539061884123704,0.038539061884123704
190.968,0.07252032947070175,0.07252032947070175
190.969,0.11098536233949718,0.11098536233949718
190.97,0.1434457754237941,0.1434457754237941
190.971,0.1609664609282837,0.1609664609282837
190.972,0.15907024286609106,0.15907024286609106
190.973,0.139048025541052,0.139048025541052
190.974,0.10727370608920284,0.10727370608920284
190.975,0.07281718676448179,0.07281718676448179
190.976,0.044234201872762835,0.044234201872762835
190.977,0.026687820019420494,0.026687820019420494
190.978,0.020428045366533087,0.020428045366533087
190.979,0.021165967643611117,0.021165967643611117
190.98,0.022195455416987864,0.022195455416987864
190.981,0.017475487081572316,0.017475487081572316
190.982,0.0045155781700816355,0.0045155781700816355
190.983,0.014057976856029053,-0.014057976856029053
190.984,0.030937401903616824,-0.030937401903616824
190.985,0.036549844979855806,-0.036549844979855806
190.986,0.022706062559809448,-0.022706062559809448
190.987,0.013767526170334055,0.013767526170334055
190.988,0.06874983382069821,0.06874983382069821
190.989,0.13086093153409717,0.13086093153409717
190.99,0.18404396505635012,0.18404396505635012
190.991,0.21206924529146653,0.21206924529146653
190.992,0.20363930777780048,0.20363930777780048
190.993,0.15647522664985902,0.15647522664985902
190.994,0.07898248606016489,0.07898248606016489
190.995,0.01121892834211291,-0.01121892834211291
190.996,0.0916639782571882,-0.0916639782571882
190.997,0.14115440910543886,-0.14115440910543886
190.998,0.14586036288986104,-0.14586036288986104
190.999,0.10358759992042899,-0.10358759992042899
191.0,0.024875040337866916,-0.024875040337866916
191.001,0.06950293278918762,0.06950293278918762
191.002,0.15399786494181678,0.15399786494181678
191.003,0.2051983563433657,0.2051983563433657
191.004,0.20823881702397928,0.20823881702397928
191.005,0.16089267272386865,0.16089267272386865
191.006,0.0742082363706269,0.0742082363706269
191.007,0.03045703914471387,-0.03045703914471387
191.008,0.12712643211077324,-0.12712643211077324
191.009,0.1919967455217172,-0.1919967455217172
191.01,0.20945720708473903,-0.20945720708473903
191.011,0.17574650973204375,-0.17574650973204375
191.012,0.0993847826048585,-0.0993847826048585
191.013,0.0015549801282335185,0.0015549801282335185
191.014,0.10442065619283625,0.10442065619283625
191.015,0.18774941584047755,0.18774941584047755
191.016,0.23628890065247976,0.23628890065247976
191.017,0.24406786470360964,0.24406786470360964
191.018,0.21494267702740077,0.21494267702740077
191.019,0.16075671023841576,0.16075671023841576
191.02,0.0978318782533214,0.0978318782533214
191.021,0.04282147764405675,0.04282147764405675
191.022,0.008948861999368507,0.008948861999368507
191.023,0.003395736018440898,0.003395736018440898
191.024,0.026211367336564706,0.026211367336564706
191.025,0.07072780004951551,0.07072780004951551
191.026,0.12518850292189865,0.12518850292189865
191.027,0.17516672124708865,0.17516672124708865
191.028,0.2063393108075675,0.2063393108075675
191.029,0.20722888162089514,0.20722888162089514
191.03,0.17156994338403586,0.17156994338403586
191.031,0.09996641900117664,0.09996641900117664
191.032,0.000509273028602486,0.000509273028602486
191.033,0.11192979724551844,-0.11192979724551844
191.034,0.21786125583704608,-0.21786125583704608
191.035,0.2966520925405466,-0.2966520925405466
191.036,0.33080262318649867,-0.33080262318649867
191.037,0.31016919275193455,-0.31016919275193455
191.038,0.23508049260176545,-0.23508049260176545
191.039,0.11736872673215026,-0.11736872673215026
191.04,0.021273538592188945,0.021273538592188945
191.041,0.15355217733717397,0.15355217733717397
191.042,0.25264233017443405,0.25264233017443405
191.043,0.29864901320194126,0.29864901320194126
191.044,0.283759060139944,0.283759060139944
191.045,0.2145845080993498,0.2145845080993498
191.046,0.11086384567926566,0.11086384567926566
191.047,0.0006621156593391575,0.0006621156593391575
191.048,0.08678020211336279,-0.08678020211336279
191.049,0.1286643583113759,-0.1286643583113759
191.05,0.1146139023340248,-0.1146139023340248
191.051,0.0493126348791022,-0.0493126348791022
191.052,0.04898682514689612,0.04898682514689612
191.053,0.15368867173161482,0.15368867173161482
191.054,0.23732661488645546,0.23732661488645546
191.055,0.2791310593377274,0.2791310593377274
191.056,0.2705114395559891,0.2705114395559891
191.057,0.21690347887136396,0.21690347887136396
191.058,0.13552812590600682,0.13552812590600682
191.059,0.049837211754482746,0.049837211754482746
191.06,0.017599511337473617,-0.017599511337473617
191.061,0.051582992599851885,-0.051582992599851885
191.062,0.048217655671079496,-0.048217655671079496
191.063,0.015200992113710288,-0.015200992113710288
191.064,0.0314545600932683,0.0314545600932683
191.065,0.07308297526634133,0.07308297526634133
191.066,0.09451978175563336,0.09451978175563336
191.067,0.08877614193312655,0.08877614193312655
191.068,0.058804114944307706,0.058804114944307706
191.069,0.01591380174514656,0.01591380174514656
191.07,0.024497081778750762,-0.024497081778750762
191.071,0.04838862374402497,-0.04838862374402497
191.072,0.0478531448112266,-0.0478531448112266
191.073,0.023653482766809897,-0.023653482766809897
191.074,0.015252496475967936,0.015252496475967936
191.075,0.054955939585393576,0.054955939585393576
191.076,0.08144890703929164,0.08144890703929164
191.077,0.08541514934432981,0.08541514934432981
191.078,0.06534860400409426,0.06534860400409426
191.079,0.027980974969294303,0.027980974969294303
191.08,0.014080597674047124,-0.014080597674047124
191.081,0.046669522170910804,-0.046669522170910804
191.082,0.058852783564085964,-0.058852783564085964
191.083,0.04658589430567228,-0.04658589430567228
191.084,0.014015155480101349,-0.014015155480101349
191.085,0.027989307793759854,0.027989307793759854
191.086,0.06556057067405852,0.06556057067405852
191.087,0.08656657488603403,0.08656657488603403
191.088,0.08476689617647093,0.08476689617647093
191.089,0.06201318495707775,0.06201318495707775
191.09,0.027759987444122114,0.027759987444122114
191.091,0.003966538282824894,-0.003966538282824894
191.092,0.019169734346575318,-0.019169734346575318
191.093,0.008577380654221312,-0.008577380654221312
191.094,0.029071896814302667,0.029071896814302667
191.095,0.08620195585572521,0.08620195585572521
191.096,0.1483068058829471,0.1483068058829471
191.097,0.19801661342512222,0.19801661342512222
191.098,0.22008951724828885,0.22008951724828885
191.099,0.2058335476336186,0.2058335476336186
191.1,0.15566307690683967,0.15566307690683967
191.101,0.07908098125445151,0.07908098125445151
191.102,0.007842601252163406,-0.007842601252163406
191.103,0.08669671001652601,-0.08669671001652601
191.104,0.14140632617662774,-0.14140632617662774
191.105,0.1620431358052078,-0.1620431358052078
191.106,0.14678448084136275,-0.14678448084136275
191.107,0.10163378894193353,-0.10163378894193353
191.108,0.038184877142656615,-0.038184877142656615
191.109,0.02975603062552934,0.02975603062552934
191.11,0.0896343099885899,0.0896343099885899
191.111,0.13273837608412742,0.13273837608412742
191.112,0.15533867189104744,0.15533867189104744
191.113,0.15831050964714866,0.15831050964714866
191.114,0.14565383098787166,0.14565383098787166
191.115,0.12260901917216738,0.12260901917216738
191.116,0.0940852971134678,0.0940852971134678
191.117,0.06388380164285512,0.06388380164285512
191.118,0.034812342848801414,0.034812342848801414
191.119,0.009401019740615135,0.009401019740615135
191.12,0.009319969385255367,-0.009319969385255367
191.121,0.017537781832982935,-0.017537781832982935
191.122,0.011211211803591636,-0.011211211803591636
191.123,0.012568212182050065,0.012568212182050065
191.124,0.05382895220638351,0.05382895220638351
191.125,0.10826862135190418,0.10826862135190418
191.126,0.16680742880742705,0.16680742880742705
191.127,0.21661221130451036,0.21661221130451036
191.128,0.24361043809429495,0.24361043809429495
191.129,0.2359977480117299,0.2359977480117299
191.13,0.18782760930098408,0.18782760930098408
191.131,0.1016063675793597,0.1016063675793597
191.132,0.011020869002120182,-0.011020869002120182
191.133,0.1309408360086266,-0.1309408360086266
191.134,0.2353958306596896,-0.2353958306596896
191.135,0.303110780669987,-0.303110780669987
191.136,0.3194305185387436,-0.3194305185387436
191.137,0.28008168942091416,-0.28008168942091416
191.138,0.1924808223855874,-0.1924808223855874
191.139,0.07414591374295432,-0.07414591374295432
191.14,0.05144055516569801,0.05144055516569801
191.141,0.16045206894623343,0.16045206894623343
191.142,0.23432767115250508,0.23432767115250508
191.143,0.2638697710500788,0.2638697710500788
191.144,0.2507561434211656,0.2507561434211656
191.145,0.20613255532818076,0.20613255532818076
191.146,0.14678905661903507,0.14678905661903507
191.147,0.09010563121321824,0.09010563121321824
191.148,0.04927554885287422,0.04927554885287422
191.149,0.030180123360539435,0.030180123360539435
191.15,0.030740238945611287,0.030740238945611287
191.151,0.04278048800930967,0.04278048800930967
191.152,0.05565955093774466,0.05565955093774466
191.153,0.06039179493889413,0.06039179493889413
191.154,0.052875336321474675,0.052875336321474675
191.155,0.03518174939962071,0.03518174939962071
191.156,0.014537547304749543,0.014537547304749543
191.157,0.0004138503691288875,0.0004138503691288875
191.158,0.0007782134682290387,0.0007782134682290387
191.159,0.018840285278423297,0.018840285278423297
191.16,0.05144883992323046,0.05144883992323046
191.161,0.08973031520367014,0.08973031520367014
191.162,0.12178896061740274,0.12178896061740274
191.163,0.13657589619845245,0.13657589619845245
191.164,0.12762101006824134,0.12762101006824134
191.165,0.09535030956396118,0.09535030956396118
191.166,0.04717593011626953,0.04717593011626953
191.167,0.004707827982488588,-0.004707827982488588
191.168,0.04711286252004232,-0.04711286252004232
191.169,0.06997833615178173,-0.06997833615178173
191.17,0.0694514765324824,-0.0694514765324824
191.171,0.048899588468456434,-0.048899588468456434
191.172,0.01752114643387337,-0.01752114643387337
191.173,0.012962904678386344,0.012962904678386344
191.174,0.03240339574402862,0.03240339574402862
191.175,0.035699900376974014,0.035699900376974014
191.176,0.024467888236770374,0.024467888236770374
191.177,0.006323498756708679,0.006323498756708679
191.178,0.007967254345957242,-0.007967254345957242
191.179,0.008489396246990077,-0.008489396246990077
191.18,0.010059143939357362,0.010059143939357362
191.181,0.046162023956979104,0.046162023956979104
191.182,0.09162718021485139,0.09162718021485139
191.183,0.13406841030285555,0.13406841030285555
191.184,0.1609130967829986,0.1609130967829986
191.185,0.16359288033570807,0.16359288033570807
191.186,0.14049918711805653,0.14049918711805653
191.187,0.09769304712539606,0.09769304712539606
191.188,0.04711045595891905,0.04711045595891905
191.189,0.0028448554997702047,0.0028448554997702047
191.19,0.023268393259665676,-0.023268393259665676
191.191,0.025311776078260073,-0.025311776078260073
191.192,0.004996475926043575,-0.004996475926043575
191.193,0.02911068084575108,0.02911068084575108
191.194,0.0645496790616713,0.0645496790616713
191.195,0.08910564941631782,0.08910564941631782
191.196,0.09474143124605927,0.09474143124605927
191.197,0.08004293290639475,0.08004293290639475
191.198,0.050420853308812186,0.050420853308812186
191.199,0.016075395386050184,0.016075395386050184
191.2,0.011531197740317967,-0.011531197740317967
191.201,0.023483527271130122,-0.023483527271130122
191.202,0.016246492389152878,-0.016246492389152878
191.203,0.00735978468618792,0.00735978468618792
191.204,0.03927587275176281,0.03927587275176281
191.205,0.06894578956453157,0.06894578956453157
191.206,0.08671774589496195,0.08671774589496195
191.207,0.08678073882610726,0.08678073882610726
191.208,0.0687441904964583,0.0687441904964583
191.209,0.03747693357411541,0.03747693357411541
191.21,0.0014168739624145221,0.0014168739624145221
191.211,0.02996777929203398,-0.02996777929203398
191.212,0.04869318891226515,-0.04869318891226515
191.213,0.0500060950760447,-0.0500060950760447
191.214,0.032987617952024206,-0.032987617952024206
191.215,9.234607761077207e-05,-9.234607761077207e-05
191.216,0.04394597858371152,0.04394597858371152
191.217,0.0932828284587599,0.0932828284587599
191.218,0.14177221233790704,0.14177221233790704
191.219,0.18328697089310375,0.18328697089310375
191.22,0.21175130938742281,0.21175130938742281
191.221,0.22128894158992551,0.22128894158992551
191.222,0.20686335128432898,0.20686335128432898
191.223,0.16553141025735374,0.16553141025735374
191.224,0.09805168497314809,0.09805168497314809
191.225,0.01025183171506372,0.01025183171506372
191.226,0.0865699050868054,-0.0865699050868054
191.227,0.17676324866524895,-0.17676324866524895
191.228,0.24307063411338348,-0.24307063411338348
191.229,0.2705182146931986,-0.2705182146931986
191.23,0.2504593216166434,-0.2504593216166434
191.231,0.18354060635440284,-0.18354060635440284
191.232,0.0805255585635527,-0.0805255585635527
191.233,0.03953822459115419,0.03953822459115419
191.234,0.1535369862108431,0.1535369862108431
191.235,0.2398545463052566,0.2398545463052566
191.236,0.2837515471889509,0.2837515471889509
191.237,0.28099860017183054,0.28099860017183054
191.238,0.2386652600666732,0.2386652600666732
191.239,0.1727953384689449,0.1727953384689449
191.24,0.10363612934114319,0.10363612934114319
191.241,0.049834667926844434,0.049834667926844434
191.242,0.02332500008840155,0.02332500008840155
191.243,0.026402895102044965,0.026402895102044965
191.244,0.051790502039546604,0.051790502039546604
191.245,0.08555777949898435,0.08555777949898435
191.246,0.11189260038710902,0.11189260038710902
191.247,0.1181765720592225,0.1181765720592225
191.248,0.09879243681222838,0.09879243681222838
191.249,0.05655678615011861,0.05655678615011861
191.25,0.0014707877003465875,0.0014707877003465875
191.251,0.052659607645459405,-0.052659607645459405
191.252,0.09254509001632771,-0.09254509001632771
191.253,0.10926776378180125,-0.10926776378180125
191.254,0.10050899847410932,-0.10050899847410932
191.255,0.07059696457210751,-0.07059696457210751
191.256,0.028563416109760542,-0.028563416109760542
191.257,0.014977655332913287,0.014977655332913287
191.258,0.0510137898062204,0.0510137898062204
191.259,0.0743599132075623,0.0743599132075623
191.26,0.08433623084087238,0.08433623084087238
191.261,0.08389811889917476,0.08389811889917476
191.262,0.07774889619872227,0.07774889619872227
191.263,0.07025591151778943,0.07025591151778943
191.264,0.0639556749413217,0.0639556749413217
191.265,0.059115155681585874,0.059115155681585874
191.266,0.05435535980935802,0.05435535980935802
191.267,0.04792450141495186,0.04792450141495186
191.268,0.03898812015015585,0.03898812015015585
191.269,0.028353666164417035,0.028353666164417035
191.27,0.018330515518490964,0.018330515518490964
191.271,0.01181713508341753,0.01181713508341753
191.272,0.011042416193306925,0.011042416193306925
191.273,0.016533171943385883,0.016533171943385883
191.274,0.02677959284080278,0.02677959284080278
191.275,0.03877009501720163,0.03877009501720163
191.276,0.049191916502881794,0.049191916502881794
191.277,0.05579924713321671,0.05579924713321671
191.278,0.058359709224481415,0.058359709224481415
191.279,0.05874446429471947,0.05874446429471947
191.28,0.060070329748132645,0.060070329748132645
191.281,0.06519989160587092,0.06519989160587092
191.282,0.0751978902234669,0.0751978902234669
191.283,0.08840616416158342,0.08840616416158342
191.284,0.10059826675924732,0.10059826675924732
191.285,0.10627458747884266,0.10627458747884266
191.286,0.10070601430018788,0.10070601430018788
191.287,0.08200214115173576,0.08200214115173576
191.288,0.052403332802427594,0.052403332802427594
191.289,0.018218094699625542,0.018218094699625542
191.29,0.011718886499062497,-0.011718886499062497
191.291,0.02866311236063379,-0.02866311236063379
191.292,0.02683112553268141,-0.02683112553268141
191.293,0.005560764205306601,-0.005560764205306601
191.294,0.030016713569418707,0.030016713569418707
191.295,0.07010446187174879,0.07010446187174879
191.296,0.10289053737639553,0.10289053737639553
191.297,0.1179325343616262,0.1179325343616262
191.298,0.10923155513449334,0.10923155513449334
191.299,0.07703928390255199,0.07703928390255199
191.3,0.02784626767273557,0.02784626767273557
191.301,0.02741832830641877,-0.02741832830641877
191.302,0.07638320859372805,-0.07638320859372805
191.303,0.10848186032187934,-0.10848186032187934
191.304,0.11747208785289942,-0.11747208785289942
191.305,0.10253961782676457,-0.10253961782676457
191.306,0.06779660728535164,-0.06779660728535164
191.307,0.02051535578915653,-0.02051535578915653
191.308,0.031186464637219524,0.031186464637219524
191.309,0.08039205324455945,0.08039205324455945
191.31,0.12253955725687415,0.12253955725687415
191.311,0.1554601533618467,0.1554601533618467
191.312,0.1785239219461836,0.1785239219461836
191.313,0.19144332712424483,0.19144332712424483
191.314,0.1933711018921258,0.1933711018921258
191.315,0.182753900921085,0.182753900921085
191.316,0.1580423349461617,0.1580423349461617
191.317,0.11895852775071059,0.11895852775071059
191.318,0.06774376882474997,0.06774376882474997
191.319,0.009763242133797867,0.009763242133797867
191.32,0.04694552832610843,-0.04694552832610843
191.321,0.09320482521430806,-0.09320482521430806
191.322,0.12091095041524413,-0.12091095041524413
191.323,0.12523629130337222,-0.12523629130337222
191.324,0.10607258857683544,-0.10607258857683544
191.325,0.06818715554305954,-0.06818715554305954
191.326,0.01998105547227036,-0.01998105547227036
191.327,0.02879168644831287,0.02879168644831287
191.328,0.06962923253922648,0.06962923253922648
191.329,0.09738387706833551,0.09738387706833551
191.33,0.11120505257775326,0.11120505257775326
191.331,0.11406527845671954,0.11406527845671954
191.332,0.11109509102032789,0.11109509102032789
191.333,0.10735399424267289,0.10735399424267289
191.334,0.1058425570526711,0.1058425570526711
191.335,0.10645551677753873,0.10645551677753873
191.336,0.10622677977502515,0.10622677977502515
191.337,0.1007493795569534,0.1007493795569534
191.338,0.08623195012737694,0.08623195012737694
191.339,0.06142517721144802,0.06142517721144802
191.34,0.028694764252677807,0.028694764252677807
191.341,0.006185902314817526,-0.006185902314817526
191.342,0.03550516889256783,-0.03550516889256783
191.343,0.05188765239422277,-0.05188765239422277
191.344,0.050634319264709404,-0.050634319264709404
191.345,0.03135573912459688,-0.03135573912459688
191.346,0.0016496393226426154,0.0016496393226426154
191.347,0.04041832838785009,0.04041832838785009
191.348,0.07544803953638213,0.07544803953638213
191.349,0.09828896495842732,0.09828896495842732
191.35,0.103829931627337,0.103829931627337
191.351,0.09161953359934927,0.09161953359934927
191.352,0.06586879467299567,0.06586879467299567
191.353,0.034179274077133615,0.034179274077133615
191.354,0.005402288876879213,0.005402288876879213
191.355,0.012744593795598558,-0.012744593795598558
191.356,0.015651677787264395,-0.015651677787264395
191.357,0.002887616625103062,-0.002887616625103062
191.358,0.021850445667027207,0.021850445667027207
191.359,0.05181758702935091,0.05181758702935091
191.36,0.07899483561736353,0.07899483561736353
191.361,0.09608406868510277,0.09608406868510277
191.362,0.09824782379499664,0.09824782379499664
191.363,0.08422109651476473,0.08422109651476473
191.364,0.056589609786823036,0.056589609786823036
191.365,0.021213556190412985,0.021213556190412985
191.366,0.014058850988626026,-0.014058850988626026
191.367,0.041118083352419954,-0.041118083352419954
191.368,0.05341282252754831,-0.05341282252754831
191.369,0.047489320622359,-0.047489320622359
191.37,0.023909276667378854,-0.023909276667378854
191.371,0.012699830953011304,0.012699830953011304
191.372,0.0545486029812261,0.0545486029812261
191.373,0.092421988515351,0.092421988515351
191.374,0.1179060711773805,0.1179060711773805
191.375,0.12558850267692434,0.12558850267692434
191.376,0.1146481715140959,0.1146481715140959
191.377,0.08933517338561514,0.08933517338561514
191.378,0.05808713311289737,0.05808713311289737
191.379,0.031386992933968516,0.031386992933968516
191.38,0.01884763821610136,0.01884763821610136
191.381,0.026293293976078935,0.026293293976078935
191.382,0.053692437202278676,0.053692437202278676
191.383,0.09462906687868333,0.09462906687868333
191.384,0.13760220717245897,0.13760220717245897
191.385,0.16891936765309712,0.16891936765309712
191.386,0.17645265639709962,0.17645265639709962
191.387,0.15321618298968875,0.15321618298968875
191.388,0.099712379775446,0.099712379775446
191.389,0.02430586271042512,0.02430586271042512
191.39,0.05856362827432293,-0.05856362827432293
191.391,0.1318855352138829,-0.1318855352138829
191.392,0.18034061771293397,-0.18034061771293397
191.393,0.19412723501319085,-0.19412723501319085
191.394,0.1712840783695202,-0.1712840783695202
191.395,0.1178918502248476,-0.1178918502248476
191.396,0.04616948842452173,-0.04616948842452173
191.397,0.02890450364448638,0.02890450364448638
191.398,0.09341248981577577,0.09341248981577577
191.399,0.13765910711077756,0.13765910711077756
191.4,0.1578501435401225,0.1578501435401225
191.401,0.15598305516371647,0.15598305516371647
191.402,0.13821966818834697,0.13821966818834697
191.403,0.11245196224862175,0.11245196224862175
191.404,0.08593628028536693,0.08593628028536693
191.405,0.06372248227114108,0.06372248227114108
191.406,0.04821790080033184,0.04821790080033184
191.407,0.039759182861474285,0.039759182861474285
191.408,0.037698073483640515,0.037698073483640515
191.409,0.04137440432026729,0.04137440432026729
191.41,0.05049024845660166,0.05049024845660166
191.411,0.06474383534282935,0.06474383534282935
191.412,0.08297999921054133,0.08297999921054133
191.413,0.10239369978517221,0.10239369978517221
191.414,0.11835927630494125,0.11835927630494125
191.415,0.12522336644875787,0.12522336644875787
191.416,0.11797876359965409,0.11797876359965409
191.417,0.09429737318877529,0.09429737318877529
191.418,0.05612959275155349,0.05612959275155349
191.419,0.010107045878880339,0.010107045878880339
191.42,0.03366303906115742,-0.03366303906115742
191.421,0.06425617267472561,-0.06425617267472561
191.422,0.0733035068323793,-0.0733035068323793
191.423,0.05796852643127626,-0.05796852643127626
191.424,0.022418932281732307,-0.022418932281732307
191.425,0.022900662001843042,0.022900662001843042
191.426,0.06417738055877864,0.06417738055877864
191.427,0.08852623237921997,0.08852623237921997
191.428,0.08831668905320145,0.08831668905320145
191.429,0.06404288108577205,0.06404288108577205
191.43,0.024635027433872914,0.024635027433872914
191.431,0.015089334342640925,-0.015089334342640925
191.432,0.03917063769303786,-0.03917063769303786
191.433,0.035982843302383216,-0.035982843302383216
191.434,0.0026227647155236955,-0.0026227647155236955
191.435,0.053352342635529126,0.053352342635529126
191.436,0.11560371607027986,0.11560371607027986
191.437,0.1637649037939497,0.1637649037939497
191.438,0.17987780163677436,0.17987780163677436
191.439,0.154481541173503,0.154481541173503
191.44,0.09033594589097627,0.09033594589097627
191.441,0.0024435280770434,0.0024435280770434
191.442,0.0858147065182181,-0.0858147065182181
191.443,0.14936051461944055,-0.14936051461944055
191.444,0.16890300695787097,-0.16890300695787097
191.445,0.1368972601659767,-0.1368972601659767
191.446,0.06007919386996674,-0.06007919386996674
191.447,0.042269358770525844,0.042269358770525844
191.448,0.14383354842373564,0.14383354842373564
191.449,0.21887269841793566,0.21887269841793566
191.45,0.24958026032073044,0.24958026032073044
191.451,0.23094553070271595,0.23094553070271595
191.452,0.17167407093505505,0.17167407093505505
191.453,0.0909830217117813,0.0909830217117813
191.454,0.012385582684469432,0.012385582684469432
191.455,0.04350539527878683,-0.04350539527878683
191.456,0.06488165820299996,-0.06488165820299996
191.457,0.051572362337352295,-0.051572362337352295
191.458,0.014077116777253762,-0.014077116777253762
191.459,0.03068063393352105,0.03068063393352105
191.46,0.06532982003323484,0.06532982003323484
191.461,0.07772784574835412,0.07772784574835412
191.462,0.06451581926485228,0.06451581926485228
191.463,0.031532840539881146,0.031532840539881146
191.464,0.008830941906373457,-0.008830941906373457
191.465,0.0422471907716675,-0.0422471907716675
191.466,0.05734176495289567,-0.05734176495289567
191.467,0.04919573812895095,-0.04919573812895095
191.468,0.020372339876008172,-0.020372339876008172
191.469,0.020683077710373254,0.020683077710373254
191.47,0.06309270906832865,0.06309270906832865
191.471,0.09746575032575211,0.09746575032575211
191.472,0.11883269731306867,0.11883269731306867
191.473,0.1275960828483751,0.1275960828483751
191.474,0.12830024928205197,0.12830024928205197
191.475,0.12686199899248463,0.12686199899248463
191.476,0.12746975346205258,0.12746975346205258
191.477,0.13044736094490683,0.13044736094490683
191.478,0.13196645321991096,0.13196645321991096
191.479,0.12574110175876507,0.12574110175876507
191.48,0.10603764811267724,0.10603764811267724
191.481,0.0707856911379694,0.0707856911379694
191.482,0.023492928706481342,0.023492928706481342
191.483,0.026916030439951277,-0.026916030439951277
191.484,0.06844828614600085,-0.06844828614600085
191.485,0.08985276776244244,-0.08985276776244244
191.486,0.08457164974235531,-0.08457164974235531
191.487,0.053388870732948956,-0.053388870732948956
191.488,0.004736131890929918,-0.004736131890929918
191.489,0.04758437043394892,0.04758437043394892
191.49,0.08858856974781104,0.08858856974781104
191.491,0.1068393070234055,0.1068393070234055
191.492,0.09811419508718733,0.09811419508718733
191.493,0.06674281203410293,0.06674281203410293
191.494,0.024128149352792283,0.024128149352792283
191.495,0.015065922941906673,-0.015065922941906673
191.496,0.037770029091000024,-0.037770029091000024
191.497,0.03675195539929221,-0.03675195539929221
191.498,0.012804105358177997,-0.012804105358177997
191.499,0.025847542062261253,0.025847542062261253
191.5,0.06666220188304095,0.06666220188304095
191.501,0.09729466599483216,0.09729466599483216
191.502,0.10987879639922338,0.10987879639922338
191.503,0.10355914087512508,0.10355914087512508
191.504,0.08438412366847903,0.08438412366847903
191.505,0.06263215085547946,0.06263215085547946
191.506,0.04857802282068224,0.04857802282068224
191.507,0.04828475883884864,0.04828475883884864
191.508,0.06101356969175731,0.06101356969175731
191.509,0.07927210099843784,0.07927210099843784
191.51,0.09156563117695926,0.09156563117695926
191.511,0.08691503035444392,0.08691503035444392
191.512,0.059518290100124105,0.059518290100124105
191.513,0.01181331065756841,0.01181331065756841
191.514,0.045294633733637735,-0.045294633733637735
191.515,0.0953101843853762,-0.0953101843853762
191.516,0.12130086633241499,-0.12130086633241499
191.517,0.11165040260789327,-0.11165040260789327
191.518,0.06444687218540834,-0.06444687218540834
191.519,0.01107715692202671,0.01107715692202671
191.52,0.09669404134024595,0.09669404134024595
191.521,0.1703706528127953,0.1703706528127953
191.522,0.21290907194515984,0.21290907194515984
191.523,0.21391696920087977,0.21391696920087977
191.524,0.17515073455784713,0.17515073455784713
191.525,0.1100922558509767,0.1100922558509767
191.526,0.03982771239302085,0.03982771239302085
191.527,0.013502729629004562,-0.013502729629004562
191.528,0.03361865229732397,-0.03361865229732397
191.529,0.015182000132518692,-0.015182000132518692
191.53,0.03456359475280735,0.03456359475280735
191.531,0.0981066010554581,0.0981066010554581
191.532,0.15318336128556864,0.15318336128556864
191.533,0.17973569738857198,0.17973569738857198
191.534,0.1661168160438944,0.1661168160438944
191.535,0.11262562596852321,0.11262562596852321
191.536,0.03132914372748541,0.03132914372748541
191.537,0.057677941398826205,-0.057677941398826205
191.538,0.13231806826822945,-0.13231806826822945
191.539,0.17494566493044938,-0.17494566493044938
191.54,0.17715808226234042,-0.17715808226234042
191.541,0.14161484401950009,-0.14161484401950009
191.542,0.08047684200910754,-0.08047684200910754
191.543,0.01115117146076694,-0.01115117146076694
191.544,0.04917245376626833,0.04917245376626833
191.545,0.0884251542365313,0.0884251542365313
191.546,0.10253221345119967,0.10253221345119967
191.547,0.09553658299977874,0.09553658299977874
191.548,0.07718439897604967,0.07718439897604967
191.549,0.058982049476954845,0.058982049476954845
191.55,0.0501453631816271,0.0501453631816271
191.551,0.05477599218388152,0.05477599218388152
191.552,0.07107995304596426,0.07107995304596426
191.553,0.09269178883695894,0.09269178883695894
191.554,0.11145295050343829,0.11145295050343829
191.555,0.12055331412948811,0.12055331412948811
191.556,0.1169102021712487,0.1169102021712487
191.557,0.10201348194580606,0.10201348194580606
191.558,0.08105994617387591,0.08105994617387591
191.559,0.06081377252782283,0.06081377252782283
191.56,0.04704844288559551,0.04704844288559551
191.561,0.04251607833214921,0.04251607833214921
191.562,0.04614196392632475,0.04614196392632475
191.563,0.05366311777470578,0.05366311777470578
191.564,0.05940228484266963,0.05940228484266963
191.565,0.05848110386477545,0.05848110386477545
191.566,0.048656726431127506,0.048656726431127506
191.567,0.03114158268221745,0.03114158268221745
191.568,0.010157857576794882,0.010157857576794882
191.569,0.008563439634631353,-0.008563439634631353
191.57,0.019768896625797616,-0.019768896625797616
191.571,0.020443620052404743,-0.020443620052404743
191.572,0.01075029217410739,-0.01075029217410739
191.573,0.006134824762116242,0.006134824762116242
191.574,0.025176433943787435,0.025176433943787435
191.575,0.041182425849215276,0.041182425849215276
191.576,0.05045423433065066,0.05045423433065066
191.577,0.051844906097725296,0.051844906097725296
191.578,0.046922956638989044,0.046922956638989044
191.579,0.039261450535127196,0.039261450535127196
191.58,0.03315802018155711,0.03315802018155711
191.581,0.03224691672650137,0.03224691672650137
191.582,0.038447511085371255,0.038447511085371255
191.583,0.05152872981930279,0.05152872981930279
191.584,0.06933032860831867,0.06933032860831867
191.585,0.08846335001652728,0.08846335001652728
191.586,0.10518994576912499,0.10518994576912499
191.587,0.11618891283083843,0.11618891283083843
191.588,0.11902710715776954,0.11902710715776954
191.589,0.11231763822814322,0.11231763822814322
191.59,0.09567999652764558,0.09567999652764558
191.591,0.06966955517902096,0.06966955517902096
191.592,0.03579846021825639,0.03579846021825639
191.593,0.0033445778561729256,-0.0033445778561729256
191.594,0.04399227147563578,-0.04399227147563578
191.595,0.08130096798937736,-0.08130096798937736
191.596,0.10981770183861328,-0.10981770183861328
191.597,0.12435128403404172,-0.12435128403404172
191.598,0.12111230348146251,-0.12111230348146251
191.599,0.09882918349969383,-0.09882918349969383
191.6,0.059475506262625655,-0.059475506262625655
191.601,0.00829877246404076,-0.00829877246404076
191.602,0.04698222158929588,0.04698222158929588
191.603,0.09769660972253891,0.09769660972253891
191.604,0.13610559798211797,0.13610559798211797
191.605,0.15715627468318116,0.15715627468318116
191.606,0.15961403361674398,0.15961403361674398
191.607,0.14624062661218962,0.14624062661218962
191.608,0.1229514355594632,0.1229514355594632
191.609,0.09717851600615557,0.09717851600615557
191.61,0.07589386619227079,0.07589386619227079
191.611,0.06383978290652714,0.06383978290652714
191.612,0.06244342348283416,0.06244342348283416
191.613,0.06968553001002609,0.06968553001002609
191.614,0.08091519365053834,0.08091519365053834
191.615,0.09033897600891905,0.09033897600891905
191.616,0.09274022689354422,0.09274022689354422
191.617,0.08494752165801667,0.08494752165801667
191.618,0.06667085167596154,0.06667085167596154
191.619,0.04052151217313815,0.04052151217313815
191.62,0.011262969200844353,0.011262969200844353
191.621,0.015461303341334776,-0.015461303341334776
191.622,0.034560899506938525,-0.034560899506938525
191.623,0.04271806747882767,-0.04271806747882767
191.624,0.03910195003213068,-0.03910195003213068
191.625,0.025431277870440527,-0.025431277870440527
191.626,0.005406132925200757,-0.005406132925200757
191.627,0.016322402094760102,0.016322402094760102
191.628,0.035375507769601855,0.035375507769601855
191.629,0.04875654328707202,0.04875654328707202
191.63,0.055570504781469854,0.055570504781469854
191.631,0.05716428141105889,0.05716428141105889
191.632,0.056631630062431215,0.056631630062431215
191.633,0.05778146154398378,0.05778146154398378
191.634,0.06381516288242994,0.06381516288242994
191.635,0.07606356788716861,0.07606356788716861
191.636,0.09316296184901485,0.09316296184901485
191.637,0.11097907079520408,0.11097907079520408
191.638,0.12341729877767937,0.12341729877767937
191.639,0.12401546814590358,0.12401546814590358
191.64,0.10796047540056541,0.10796047540056541
191.641,0.0739790334002064,0.0739790334002064
191.642,0.025497786044160087,0.025497786044160087
191.643,0.029407261700039267,-0.029407261700039267
191.644,0.07945549741978741,-0.07945549741978741
191.645,0.11278167810284123,-0.11278167810284123
191.646,0.12011638404369218,-0.12011638404369218
191.647,0.09765184202358357,-0.09765184202358357
191.648,0.048696800716342414,-0.048696800716342414
191.649,0.016518133050399397,0.016518133050399397
191.65,0.08303324285087843,0.08303324285087843
191.651,0.13490549072636138,0.13490549072636138
191.652,0.159543189252499,0.159543189252499
191.653,0.1513944397634308,0.1513944397634308
191.654,0.11384258366405509,0.11384258366405509
191.655,0.058615151829927825,0.058615151829927825
191.656,0.0027189106738492175,0.0027189106738492175
191.657,0.036330645306283715,-0.036330645306283715
191.658,0.04564712426345141,-0.04564712426345141
191.659,0.020949488892505697,-0.020949488892505697
191.66,0.03187857428662011,0.03187857428662011
191.661,0.09822186342389405,0.09822186342389405
191.662,0.15884130392425866,0.15884130392425866
191.663,0.19550088391337117,0.19550088391337117
191.664,0.19644563988811892,0.19644563988811892
191.665,0.16004982041465277,0.16004982041465277
191.666,0.09546701473351749,0.09546701473351749
191.667,0.020010287545318972,0.020010287545318972
191.668,0.04599930365485727,-0.04599930365485727
191.669,0.08536867914820556,-0.08536867914820556
191.67,0.08926105914859939,-0.08926105914859939
191.671,0.05986610163214556,-0.05986610163214556
191.672,0.009629445087197652,-0.009629445087197652
191.673,0.042775199551190246,0.042775199551190246
191.674,0.07851481383335424,0.07851481383335424
191.675,0.08481626981734824,0.08481626981734824
191.676,0.059352663442908904,0.059352663442908904
191.677,0.011344245381884832,0.011344245381884832
191.678,0.04107722420044624,-0.04107722420044624
191.679,0.07652394370674998,-0.07652394370674998
191.68,0.07733809312975415,-0.07733809312975415
191.681,0.03574940336139387,-0.03574940336139387
191.682,0.042765642497689216,0.042765642497689216
191.683,0.14009052927785492,0.14009052927785492
191.684,0.23002846786730302,0.23002846786730302
191.685,0.28559782802306866,0.28559782802306866
191.686,0.28698260452605195,0.28698260452605195
191.687,0.22780044995790183,0.22780044995790183
191.688,0.11778506479191897,0.11778506479191897
191.689,0.019016545542943075,-0.019016545542943075
191.69,0.15014947601273043,-0.15014947601273043
191.691,0.24318997440758716,-0.24318997440758716
191.692,0.2744032808097858,-0.2744032808097858
191.693,0.23521611599533732,-0.23521611599533732
191.694,0.1346918840098984,-0.1346918840098984
191.695,0.0027004766935900815,0.0027004766935900815
191.696,0.1434340631220281,0.1434340631220281
191.697,0.2536690028145272,0.2536690028145272
191.698,0.3080296212076008,0.3080296212076008
191.699,0.29605788427274127,0.29605788427274127
191.7,0.2246398731824617,0.2246398731824617
191.701,0.11580856054190503,0.11580856054190503
191.702,0.000576820782589138,0.000576820782589138
191.703,0.08949244743512086,-0.08949244743512086
191.704,0.1306970528714303,-0.1306970528714303
191.705,0.1133519774359194,-0.1133519774359194
191.706,0.04409906905911398,-0.04409906905911398
191.707,0.05616922551845249,0.05616922551845249
191.708,0.1581370022606774,0.1581370022606774
191.709,0.23202726381043548,0.23202726381043548
191.71,0.2555526291575536,0.2555526291575536
191.711,0.21975627846060308,0.21975627846060308
191.712,0.1312480412848558,0.1312480412848558
191.713,0.01032599179769722,0.01032599179769722
191.714,0.11442775826386542,-0.11442775826386542
191.715,0.21357144552276042,-0.21357144552276042
191.716,0.2642476317499284,-0.2642476317499284
191.717,0.25569682298690843,-0.25569682298690843
191.718,0.19146211468684193,-0.19146211468684193
191.719,0.08783310032366876,-0.08783310032366876
191.72,0.030899733901639026,0.030899733901639026
191.721,0.13897179536555093,0.13897179536555093
191.722,0.21561950159287457,0.21561950159287457
191.723,0.2497675455058117,0.2497675455058117
191.724,0.2417704154113267,0.2417704154113267
191.725,0.20193421114028087,0.20193421114028087
191.726,0.14647295470378974,0.14647295470378974
191.727,0.09225523389713475,0.09225523389713475
191.728,0.05197163671721583,0.05197163671721583
191.729,0.031130218195538628,0.031130218195538628
191.73,0.02764618974426747,0.02764618974426747
191.731,0.03393954963131085,0.03393954963131085
191.732,0.04065990861279878,0.04065990861279878
191.733,0.04067014757387066,0.04067014757387066
191.734,0.03188993433042553,0.03188993433042553
191.735,0.018030144585326813,0.018030144585326813
191.736,0.006995163133537208,0.006995163133537208
191.737,0.0075446143900981255,0.0075446143900981255
191.738,0.025418986913107178,0.025418986913107178
191.739,0.06033966258275636,0.06033966258275636
191.74,0.10502098184075725,0.10502098184075725
191.741,0.1466665372682603,0.1466665372682603
191.742,0.17058197097518124,0.17058197097518124
191.743,0.16480116339508388,0.16480116339508388
191.744,0.12423965398220616,0.12423965398220616
191.745,0.0529919924576443,0.0529919924576443
191.746,0.03604821038743322,-0.03604821038743322
191.747,0.12422535440894833,-0.12422535440894833
191.748,0.19194960374881131,-0.19194960374881131
191.749,0.2238758620572865,-0.2238758620572865
191.75,0.21288338869605428,-0.21288338869605428
191.751,0.16169188232075193,-0.16169188232075193
191.752,0.0817041430080806,-0.0817041430080806
191.753,0.010463676601883742,0.010463676601883742
191.754,0.09760356243078983,0.09760356243078983
191.755,0.16622676116456803,0.16622676116456803
191.756,0.20928878738371615,0.20928878738371615
191.757,0.22664981023262953,0.22664981023262953
191.758,0.2233849032291817,0.2233849032291817
191.759,0.2067700052109016,0.2067700052109016
191.76,0.18315662340675098,0.18315662340675098
191.761,0.15588774955040274,0.15588774955040274
191.762,0.12493632968155688,0.12493632968155688
191.763,0.08824848036669208,0.08824848036669208
191.764,0.04410749558448912,0.04410749558448912
191.765,0.006553571086481358,-0.006553571086481358
191.766,0.05893300309906524,-0.05893300309906524
191.767,0.10484399424248536,-0.10484399424248536
191.768,0.13483660601769532,-0.13483660601769532
191.769,0.1412350019702463,-0.1412350019702463
191.77,0.12097134017802291,-0.12097134017802291
191.771,0.07711944736463039,-0.07711944736463039
191.772,0.018470447272539214,-0.018470447272539214
191.773,0.04280674105677296,0.04280674105677296
191.774,0.09467068055262162,0.09467068055262162
191.775,0.12868029903279332,0.12868029903279332
191.776,0.14221934943112347,0.14221934943112347
191.777,0.13868692491413825,0.13868692491413825
191.778,0.1255990319153173,0.1255990319153173
191.779,0.11131364052850823,0.11131364052850823
191.78,0.10161234588988788,0.10161234588988788
191.781,0.09744577525684783,0.09744577525684783
191.782,0.09473664247393221,0.09473664247393221
191.783,0.08637220826148662,0.08637220826148662
191.784,0.06567838887895228,0.06567838887895228
191.785,0.030060028654453674,0.030060028654453674
191.786,0.016649317335515335,-0.016649317335515335
191.787,0.06418713964351219,-0.06418713964351219
191.788,0.098455984770625,-0.098455984770625
191.789,0.10600395812374963,-0.10600395812374963
191.79,0.07893310154607192,-0.07893310154607192
191.791,0.018508499233272357,-0.018508499233272357
191.792,0.0639261623256333,0.0639261623256333
191.793,0.14927694431067584,0.14927694431067584
191.794,0.21574172420458337,0.21574172420458337
191.795,0.24508570909156102,0.24508570909156102
191.796,0.22818399607983997,0.22818399607983997
191.797,0.16802497041611564,0.16802497041611564
191.798,0.07913896191112246,0.07913896191112246
191.799,0.0164486277491096,-0.0164486277491096
191.8,0.09551704572257158,-0.09551704572257158
191.801,0.1402453348503453,-0.1402453348503453
191.802,0.1430492345202542,-0.1430492345202542
191.803,0.10818376306778521,-0.10818376306778521
191.804,0.04969436521205406,-0.04969436521205406
191.805,0.013515517665181997,0.013515517665181997
191.806,0.06381851347266454,0.06381851347266454
191.807,0.09017671669566996,0.09017671669566996
191.808,0.09095116696388295,0.09095116696388295
191.809,0.07341642319532182,0.07341642319532182
191.81,0.05032194301719439,0.05032194301719439
191.811,0.034825137985042165,0.034825137985042165
191.812,0.03562253948980665,0.03562253948980665
191.813,0.05396501388910879,0.05396501388910879
191.814,0.0835244823548098,0.0835244823548098
191.815,0.11304606576901799,0.11304606576901799
191.816,0.13073823882763946,0.13073823882763946
191.817,0.12876635507830314,0.12876635507830314
191.818,0.10621934553945644,0.10621934553945644
191.819,0.06950182812894057,0.06950182812894057
191.82,0.030047531154094198,0.030047531154094198
191.821,0.0002143059844619266,0.0002143059844619266
191.822,0.011136443835340626,-0.011136443835340626
191.823,0.0017760538194564468,-0.0017760538194564468
191.824,0.023163267461664194,0.023163267461664194
191.825,0.053119197471874546,0.053119197471874546
191.826,0.07598396644310235,0.07598396644310235
191.827,0.08254012355879481,0.08254012355879481
191.828,0.06985046540758533,0.06985046540758533
191.829,0.042380115196394286,0.042380115196394286
191.83,0.010436511333919096,0.010436511333919096
191.831,0.01353400532468818,-0.01353400532468818
191.832,0.019492611741224297,-0.019492611741224297
191.833,0.003593044895690567,-0.003593044895690567
191.834,0.03014137438150022,0.03014137438150022
191.835,0.07086877264111324,0.07086877264111324
191.836,0.10438732371826043,0.10438732371826043
191.837,0.11785268734016618,0.11785268734016618
191.838,0.10417297974677275,0.10417297974677275
191.839,0.0646064893114886,0.0646064893114886
191.84,0.008689669441376502,0.008689669441376502
191.841,0.048490228835035065,-0.048490228835035065
191.842,0.09079529960606691,-0.09079529960606691
191.843,0.10586693002678582,-0.10586693002678582
191.844,0.08876749320223953,-0.08876749320223953
191.845,0.043335121704427104,-0.043335121704427104
191.846,0.01908930221718874,0.01908930221718874
191.847,0.08306966881014244,0.08306966881014244
191.848,0.13348805825874122,0.13348805825874122
191.849,0.1595939191350515,0.1595939191350515
191.85,0.15752491742162467,0.15752491742162467
191.851,0.13069163355822577,0.13069163355822577
191.852,0.08811874015120469,0.08811874015120469
191.853,0.04144209468525739,0.04144209468525739
191.854,0.00158733600724692,0.00158733600724692
191.855,0.023875837870287575,-0.023875837870287575
191.856,0.032048718833876055,-0.032048718833876055
191.857,0.024532241866765614,-0.024532241866765614
191.858,0.00608795113331817,-0.00608795113331817
191.859,0.017254189525011565,0.017254189525011565
191.86,0.03998122424307349,0.03998122424307349
191.861,0.05829476395797517,0.05829476395797517
191.862,0.07053984393182233,0.07053984393182233
191.863,0.07697473957527823,0.07697473957527823
191.864,0.07916620978789757,0.07916620978789757
191.865,0.07931158598051535,0.07931158598051535
191.866,0.07967873009883308,0.07967873009883308
191.867,0.08219851818461765,0.08219851818461765
191.868,0.0881328076225667,0.0881328076225667
191.869,0.09773099585890965,0.09773099585890965
191.87,0.10987847964942832,0.10987847964942832
191.871,0.12187211742478787,0.12187211742478787
191.872,0.12954483609024137,0.12954483609024137
191.873,0.12793213017440164,0.12793213017440164
191.874,0.11250798693936392,0.11250798693936392
191.875,0.08076531606404802,0.08076531606404802
191.876,0.033678421762777466,0.033678421762777466
191.877,0.023521937625199496,-0.023521937625199496
191.878,0.08172797849948144,-0.08172797849948144
191.879,0.12964189929310166,-0.12964189929310166
191.88,0.15648394593005066,-0.15648394593005066
191.881,0.15502021772228503,-0.15502021772228503
191.882,0.12398128948513876,-0.12398128948513876
191.883,0.06901400912045752,-0.06901400912045752
191.884,0.0016912365319036171,-0.0016912365319036171
191.885,0.06330422308032402,0.06330422308032402
191.886,0.11209352341725998,0.11209352341725998
191.887,0.1354669283627674,0.1354669283627674
191.888,0.13148977368743098,0.13148977368743098
191.889,0.10597744082668203,0.10597744082668203
191.89,0.07061773733754406,0.07061773733754406
191.891,0.039275434684832744,0.039275434684832744
191.892,0.02362310172309212,0.02362310172309212
191.893,0.02949100927147974,0.02949100927147974
191.894,0.05511924498551801,0.05511924498551801
191.895,0.09188468513066872,0.09188468513066872
191.896,0.12726167222060414,0.12726167222060414
191.897,0.14903104178380833,0.14903104178380833
191.898,0.14933255140745905,0.14933255140745905
191.899,0.12720862891090268,0.12720862891090268
191.9,0.08879968413480621,0.08879968413480621
191.901,0.0451510015260943,0.0451510015260943
191.902,0.00840508261702122,0.00840508261702122
191.903,0.012299334495423642,-0.012299334495423642
191.904,0.01380937367556545,-0.01380937367556545
191.905,0.00019349202548624156,0.00019349202548624156
191.906,0.020745400292925265,0.020745400292925265
191.907,0.03698175072282761,0.03698175072282761
191.908,0.0401429934104478,0.0401429934104478
191.909,0.026788666641923253,0.026788666641923253
191.91,9.068339691054028e-05,9.068339691054028e-05
191.911,0.031241015395555682,-0.031241015395555682
191.912,0.0560109446538507,-0.0560109446538507
191.913,0.06448356940995803,-0.06448356940995803
191.914,0.05182668259695544,-0.05182668259695544
191.915,0.01984140388051947,-0.01984140388051947
191.916,0.023621327616092147,0.023621327616092147
191.917,0.06733715735895562,0.06733715735895562
191.918,0.10051811231556029,0.10051811231556029
191.919,0.11640101941049963,0.11640101941049963
191.92,0.11434742507467077,0.11434742507467077
191.921,0.0997259882219248,0.0997259882219248
191.922,0.08164437936644453,0.08164437936644453
191.923,0.06936785923793831,0.06936785923793831
191.924,0.06873160835152259,0.06873160835152259
191.925,0.0798562325141765,0.0798562325141765
191.926,0.09700971551892423,0.09700971551892423
191.927,0.11068997873129294,0.11068997873129294
191.928,0.11120327324497081,0.11120327324497081
191.929,0.0924686096411107,0.0924686096411107
191.93,0.0546811162623968,0.0546811162623968
191.931,0.004853021553913095,0.004853021553913095
191.932,0.04501527112091808,-0.04501527112091808
191.933,0.08155734100055667,-0.08155734100055667
191.934,0.0942535171443798,-0.0942535171443798
191.935,0.07882201526216315,-0.07882201526216315
191.936,0.03865408062119802,-0.03865408062119802
191.937,0.016175579331690892,0.016175579331690892
191.938,0.07197255625568166,0.07197255625568166
191.939,0.11552252627528214,0.11552252627528214
191.94,0.13786833617565342,0.13786833617565342
191.941,0.13655606045521362,0.13655606045521362
191.942,0.1157006008094581,0.1157006008094581
191.943,0.08398463128113809,0.08398463128113809
191.944,0.05140066482546102,0.05140066482546102
191.945,0.02593288291441831,0.02593288291441831
191.946,0.011326206079181,0.011326206079181
191.947,0.006635935628888312,0.006635935628888312
191.948,0.0075672489203462145,0.0075672489203462145
191.949,0.008953746722709433,0.008953746722709433
191.95,0.007328124649332857,0.007328124649332857
191.951,0.0025454594528866448,0.0025454594528866448
191.952,0.0021796389990954568,-0.0021796389990954568
191.953,0.0018214325518443042,-0.0018214325518443042
191.954,0.007959677003897214,0.007959677003897214
191.955,0.028400689071373275,0.028400689071373275
191.956,0.056329733827277684,0.056329733827277684
191.957,0.08460071500826682,0.08460071500826682
191.958,0.10424518418636919,0.10424518418636919
191.959,0.10764693924531787,0.10764693924531787
191.96,0.09160731076141881,0.09160731076141881
191.961,0.059134201302610157,0.059134201302610157
191.962,0.019182026867047508,0.019182026867047508
191.963,0.0157356835958542,-0.0157356835958542
191.964,0.03338391901490645,-0.03338391901490645
191.965,0.02586819759789738,-0.02586819759789738
191.966,0.007446549248298906,0.007446549248298906
191.967,0.05920064861605745,0.05920064861605745
191.968,0.11583345631858477,0.11583345631858477
191.969,0.1614196083433188,0.1614196083433188
191.97,0.18237329277115366,0.18237329277115366
191.971,0.17153833131137675,0.17153833131137675
191.972,0.1303625906938164,0.1303625906938164
191.973,0.06846751879512891,0.06846751879512891
191.974,0.0007640284867334035,0.0007640284867334035
191.975,0.056946150390213,-0.056946150390213
191.976,0.09247158462518112,-0.09247158462518112
191.977,0.10041976109728401,-0.10041976109728401
191.978,0.08312118069448404,-0.08312118069448404
191.979,0.049104580456616365,-0.049104580456616365
191.98,0.009749566110433538,-0.009749566110433538
191.981,0.024676419701578745,0.024676419701578745
191.982,0.04823050921325667,0.04823050921325667
191.983,0.060697619466549835,0.060697619466549835
191.984,0.06678719145994494,0.06678719145994494
191.985,0.0735090479700462,0.0735090479700462
191.986,0.08674814558424715,0.08674814558424715
191.987,0.10832758890568517,0.10832758890568517
191.988,0.13466550614617745,0.13466550614617745
191.989,0.15756141166774063,0.15756141166774063
191.99,0.16689007525774224,0.16689007525774224
191.991,0.1542968903052364,0.1542968903052364
191.992,0.11661294360689989,0.11661294360689989
191.993,0.057769355493206165,0.057769355493206165
191.994,0.011530480281487732,-0.011530480281487732
191.995,0.07638545914998085,-0.07638545914998085
191.996,0.12177446425923832,-0.12177446425923832
191.997,0.1368823785508061,-0.1368823785508061
191.998,0.1183148226541999,-0.1183148226541999
191.999,0.07117795263610105,-0.07117795263610105
192.0,0.007665937596976202,-0.007665937596976202
192.001,0.05642151639319226,0.05642151639319226
192.002,0.1061671759635252,0.1061671759635252
192.003,0.13166431273504586,0.13166431273504586
192.004,0.13054968180321547,0.13054968180321547
192.005,0.10821940231975113,0.10821940231975113
192.006,0.07573187493961853,0.07573187493961853
192.007,0.04610849558961205,0.04610849558961205
192.008,0.030209947802731785,0.030209947802731785
192.009,0.0334553330284344,0.0334553330284344
192.01,0.05434837267599324,0.05434837267599324
192.011,0.08518765788118898,0.08518765788118898
192.012,0.11465903278942258,0.11465903278942258
192.013,0.13145060014388954,0.13145060014388954
192.014,0.12776017677609475,0.12776017677609475
192.015,0.10165013114096011,0.10165013114096011
192.016,0.05760084098024376,0.05760084098024376
192.017,0.005183516247552866,0.005183516247552866
192.018,0.043667371318976245,-0.043667371318976245
192.019,0.07792111558631731,-0.07792111558631731
192.02,0.09029731199027302,-0.09029731199027302
192.021,0.07892406982441724,-0.07892406982441724
192.022,0.04744295750607941,-0.04744295750607941
192.023,0.0036708370228372145,-0.0036708370228372145
192.024,0.042673107283930145,0.042673107283930145
192.025,0.08245806001595901,0.08245806001595901
192.026,0.10915716429448508,0.10915716429448508
192.027,0.11991985458201126,0.11991985458201126
192.028,0.11556628258864499,0.11556628258864499
192.029,0.09969581539860117,0.09969581539860117
192.03,0.07732095252057647,0.07732095252057647
192.031,0.05349596422728209,0.05349596422728209
192.032,0.03231106658156335,0.03231106658156335
192.033,0.01642417807241725,0.01642417807241725
192.034,0.007086201809983539,0.007086201809983539
192.035,0.004460780469040193,0.004460780469040193
192.036,0.007992476857204167,0.007992476857204167
192.037,0.016639966629487857,0.016639966629487857
192.038,0.028922847291711573,0.028922847291711573
192.039,0.04286820851796502,0.04286820851796502
192.04,0.05602447490886009,0.05602447490886009
192.041,0.0656994030482112,0.0656994030482112
192.042,0.06947974538129609,0.06947974538129609
192.043,0.06594256145690558,0.06594256145690558
192.044,0.055334634072385036,0.055334634072385036
192.045,0.03993689388948929,0.03993689388948929
192.046,0.02387969129883971,0.02387969129883971
192.047,0.012326976401852097,0.012326976401852097
192.048,0.010157890991028484,0.010157890991028484
192.049,0.020472272707162453,0.020472272707162453
192.05,0.04335977722504891,0.04335977722504891
192.051,0.07535218740056626,0.07535218740056626
192.052,0.10981849656730214,0.10981849656730214
192.053,0.13830268744829266,0.13830268744829266
192.054,0.1525206335902578,0.1525206335902578
192.055,0.14651347176778318,0.14651347176778318
192.056,0.11837253274556181,0.11837253274556181
192.057,0.07103803807525155,0.07103803807525155
192.058,0.01191118426550819,0.01191118426550819
192.059,0.04865933266712219,-0.04865933266712219
192.06,0.09964368834367476,-0.09964368834367476
192.061,0.1317683971607202,-0.1317683971607202
192.062,0.13949906703407888,-0.13949906703407888
192.063,0.12207669475745409,-0.12207669475745409
192.064,0.08338688001601557,-0.08338688001601557
192.065,0.030767253862111432,-0.030767253862111432
192.066,0.026858740949025295,0.026858740949025295
192.067,0.08097675232696266,0.08097675232696266
192.068,0.12507164667951742,0.12507164667951742
192.069,0.155448305981996,0.155448305981996
192.07,0.17118501823072196,0.17118501823072196
192.071,0.17339673615359263,0.17339673615359263
192.072,0.16418114621068525,0.16418114621068525
192.073,0.14567675552861026,0.14567675552861026
192.074,0.11956716740674311,0.11956716740674311
192.075,0.08715840315290069,0.08715840315290069
192.076,0.04991275594326905,0.04991275594326905
192.077,0.010130610090378411,0.010130610090378411
192.078,0.02860022338333912,-0.02860022338333912
192.079,0.06149297623072625,-0.06149297623072625
192.08,0.08329595492665054,-0.08329595492665054
192.081,0.08952797145208602,-0.08952797145208602
192.082,0.07785359455658758,-0.07785359455658758
192.083,0.049133312591921996,-0.049133312591921996
192.084,0.007737318010830552,-0.007737318010830552
192.085,0.039087215527529695,0.039087215527529695
192.086,0.08271678172726293,0.08271678172726293
192.087,0.11515719851296469,0.11515719851296469
192.088,0.13100556222896054,0.13100556222896054
192.089,0.12879786811170435,0.12879786811170435
192.09,0.11132787997072402,0.11132787997072402
192.091,0.08481441257588163,0.08481441257588163
192.092,0.05713383176957176,0.05713383176957176
192.093,0.035617533324938,0.035617533324938
192.094,0.025051323314245977,0.025051323314245977
192.095,0.02645996863576272,0.02645996863576272
192.096,0.037029455080111795,0.037029455080111795
192.097,0.05118035741497806,0.05118035741497806
192.098,0.0624606974697699,0.0624606974697699
192.099,0.06568040795584063,0.06568040795584063
192.1,0.05863663866395319,0.05863663866395319
192.101,0.04290149321450398,0.04290149321450398
192.102,0.023424235280817607,0.023424235280817607
192.103,0.0070543019850835,0.0070543019850835
192.104,0.0004142044537622791,0.0004142044537622791
192.105,0.0077478162349655655,0.0077478162349655655
192.106,0.029383347249638092,0.029383347249638092
192.107,0.061279253806606704,0.061279253806606704
192.108,0.09581651726578522,0.09581651726578522
192.109,0.1236502276085032,0.1236502276085032
192.11,0.13613606881961093,0.13613606881961093
192.111,0.12768453937048974,0.12768453937048974
192.112,0.09740966254923755,0.09740966254923755
192.113,0.04962249422453002,0.04962249422453002
192.114,0.006979200597420965,-0.006979200597420965
192.115,0.061236439802668685,-0.061236439802668685
192.116,0.10209541168834724,-0.10209541168834724
192.117,0.12117834144775996,-0.12117834144775996
192.118,0.1147222352579581,-0.1147222352579581
192.119,0.08440798232953295,-0.08440798232953295
192.12,0.03687917553723963,-0.03687917553723963
192.121,0.017924334117331853,0.017924334117331853
192.122,0.06919845526483726,0.06919845526483726
192.123,0.10786102295955313,0.10786102295955313
192.124,0.12863974457894,0.12863974457894
192.125,0.13113197604993432,0.13113197604993432
192.126,0.11956577618346609,0.11956577618346609
192.127,0.10132729047467004,0.10132729047467004
192.128,0.08464873796991479,0.08464873796991479
192.129,0.0760883276337494,0.0760883276337494
192.13,0.0785105531420549,0.0785105531420549
192.131,0.09016187404747544,0.09016187404747544
192.132,0.10515106268740237,0.10515106268740237
192.133,0.11525279250002463,0.11525279250002463
192.134,0.11256024342028925,0.11256024342028925
192.135,0.09223064857597896,0.09223064857597896
192.136,0.054488296181536056,0.054488296181536056
192.137,0.005213043908385062,0.005213043908385062
192.138,0.04517931574324041,-0.04517931574324041
192.139,0.0843612901009203,-0.0843612901009203
192.14,0.10154398497871353,-0.10154398497871353
192.141,0.09076961784487558,-0.09076961784487558
192.142,0.05303508299938853,-0.05303508299938853
192.143,0.0034825956137010117,0.0034825956137010117
192.144,0.06529968731189739,0.06529968731189739
192.145,0.1171697792470372,0.1171697792470372
192.146,0.14632988343542652,0.14632988343542652
192.147,0.1462047903323962,0.1462047903323962
192.148,0.1184206125166476,0.1184206125166476
192.149,0.072438084497785,0.072438084497785
192.15,0.022818364905832222,0.022818364905832222
192.151,0.015129336983548458,-0.015129336983548458
192.152,0.030030446645850528,-0.030030446645850528
192.153,0.018012394496681128,-0.018012394496681128
192.154,0.01599551976618474,0.01599551976618474
192.155,0.05970894409763594,0.05970894409763594
192.156,0.09730694672683837,0.09730694672683837
192.157,0.11447887049016336,0.11447887049016336
192.158,0.10312585879010205,0.10312585879010205
192.159,0.06420381424705157,0.06420381424705157
192.16,0.0077452289966644106,0.0077452289966644106
192.161,0.0500229619662782,-0.0500229619662782
192.162,0.09161490358385016,-0.09161490358385016
192.163,0.10373996781065697,-0.10373996781065697
192.164,0.08153740283691624,-0.08153740283691624
192.165,0.030211284228184865,-0.030211284228184865
192.166,0.036497691970795776,0.036497691970795776
192.167,0.10054887108480637,0.10054887108480637
192.168,0.1452038005862326,0.1452038005862326
192.169,0.16018934183414246,0.16018934183414246
192.17,0.14474406818068175,0.14474406818068175
192.171,0.10755456059719126,0.10755456059719126
192.172,0.06361134431323556,0.06361134431323556
192.173,0.02903919021039636,0.02903919021039636
192.174,0.01563884060665499,0.01563884060665499
192.175,0.02698138988634624,0.02698138988634624
192.176,0.05737839914784404,0.05737839914784404
192.177,0.09407683568089587,0.09407683568089587
192.178,0.12192311548716717,0.12192311548716717
192.179,0.1288808822998837,0.1288808822998837
192.18,0.11047208333881797,0.11047208333881797
192.181,0.07155887162677299,0.07155887162677299
192.182,0.024787699090438098,0.024787699090438098
192.183,0.013824409703994789,-0.013824409703994789
192.184,0.030663779795573887,-0.030663779795573887
192.185,0.019636292164140978,-0.019636292164140978
192.186,0.01522183429743973,0.01522183429743973
192.187,0.06066631172160397,0.06066631172160397
192.188,0.09852391639401348,0.09852391639401348
192.189,0.1119703895388422,0.1119703895388422
192.19,0.09169803297978452,0.09169803297978452
192.191,0.039815798352841325,0.039815798352841325
192.192,0.02998257712599528,-0.02998257712599528
192.193,0.09622787385337428,-0.09622787385337428
192.194,0.13636258807773016,-0.13636258807773016
192.195,0.13418887306976446,-0.13418887306976446
192.196,0.08562360190522111,-0.08562360190522111
192.197,0.000783290158246297,-0.000783290158246297
192.198,0.0984286813336539,0.0984286813336539
192.199,0.18460577892602958,0.18460577892602958
192.2,0.2330849763868723,0.2330849763868723
192.201,0.22956813402086018,0.22956813402086018
192.202,0.17468449510842143,0.17468449510842143
192.203,0.08400959287590615,0.08400959287590615
192.204,0.01650507853394001,-0.01650507853394001
192.205,0.09827614695419595,-0.09827614695419595
192.206,0.13858458354011927,-0.13858458354011927
192.207,0.12717877959351276,-0.12717877959351276
192.208,0.06896716727787766,-0.06896716727787766
192.209,0.017948655673603264,0.017948655673603264
192.21,0.10816096005100939,0.10816096005100939
192.211,0.17680317910779886,0.17680317910779886
192.212,0.20683770599375206,0.20683770599375206
192.213,0.19353372213000908,0.19353372213000908
192.214,0.14487425695812273,0.14487425695812273
192.215,0.07799677252389325,0.07799677252389325
192.216,0.013050645144437656,0.013050645144437656
192.217,0.033372927476090664,-0.033372927476090664
192.218,0.05305771442393303,-0.05305771442393303
192.219,0.047748785964782936,-0.047748785964782936
192.22,0.027201028283723283,-0.027201028283723283
192.221,0.0046053842574652615,-0.0046053842574652615
192.222,0.00883403768089841,0.00883403768089841
192.223,0.008187533719503648,0.008187533719503648
192.224,0.003546527711092984,-0.003546527711092984
192.225,0.016928076800201808,-0.016928076800201808
192.226,0.020069015575111315,-0.020069015575111315
192.227,0.0036171078127164025,-0.0036171078127164025
192.228,0.03511485662930203,0.03511485662930203
192.229,0.09039011407998743,0.09039011407998743
192.23,0.14931824797596316,0.14931824797596316
192.231,0.19574086431233995,0.19574086431233995
192.232,0.21540744169961856,0.21540744169961856
192.233,0.2006794177107427,0.2006794177107427
192.234,0.15317863383861918,0.15317863383861918
192.235,0.08351272848537539,0.08351272848537539
192.236,0.008204303811796265,0.008204303811796265
192.237,0.055126277368565124,-0.055126277368565124
192.238,0.09273608942063771,-0.09273608942063771
192.239,0.09832022554230202,-0.09832022554230202
192.24,0.07412716292566535,-0.07412716292566535
192.241,0.029457578593109157,-0.029457578593109157
192.242,0.02275822531231375,0.02275822531231375
192.243,0.07003373493085108,0.07003373493085108
192.244,0.10367767861967603,0.10367767861967603
192.245,0.12042797476135436,0.12042797476135436
192.246,0.12206550857178566,0.12206550857178566
192.247,0.11344579380598097,0.11344579380598097
192.248,0.09990467021603311,0.09990467021603311
192.249,0.08511495732217922,0.08511495732217922
192.25,0.07017541023741969,0.07017541023741969
192.251,0.05413871680044702,0.05413871680044702
192.252,0.03556812370932527,0.03556812370932527
192.253,0.014295909793315076,0.014295909793315076
192.254,0.007500910219034651,-0.007500910219034651
192.255,0.0254774695075366,-0.0254774695075366
192.256,0.034565141295836654,-0.034565141295836654
192.257,0.031127571737328608,-0.031127571737328608
192.258,0.014920145697525422,-0.014920145697525422
192.259,0.010044678801596651,0.010044678801596651
192.26,0.0362421971343605,0.0362421971343605
192.261,0.0548927940029329,0.0548927940029329
192.262,0.05902034609693074,0.05902034609693074
192.263,0.046224891982890925,0.046224891982890925
192.264,0.02010049178559603,0.02010049178559603
192.265,0.01034920695780639,-0.01034920695780639
192.266,0.03325974343644822,-0.03325974343644822
192.267,0.03767359830163819,-0.03767359830163819
192.268,0.017308706645682848,-0.017308706645682848
192.269,0.026951269993732874,0.026951269993732874
192.27,0.08673973422428971,0.08673973422428971
192.271,0.14825417547829134,0.14825417547829134
192.272,0.19607577192297865,0.19607577192297865
192.273,0.21757801041988856,0.21757801041988856
192.274,0.20654381715194048,0.20654381715194048
192.275,0.16487470203204202,0.16487470203204202
192.276,0.10190590821336154,0.10190590821336154
192.277,0.03161845135231833,0.03161845135231833
192.278,0.03130431543158507,-0.03130431543158507
192.279,0.07530993485240423,-0.07530993485240423
192.28,0.09454977659648223,-0.09454977659648223
192.281,0.0895319282484629,-0.0895319282484629
192.282,0.06587238003065132,-0.06587238003065132
192.283,0.031783975368025796,-0.031783975368025796
192.284,0.004706106018016021,0.004706106018016021
192.285,0.037844196895944426,0.037844196895944426
192.286,0.06494308140275695,0.06494308140275695
192.287,0.08583008892394117,0.08583008892394117
192.288,0.10141888911853081,0.10141888911853081
192.289,0.11216720778901368,0.11216720778901368
192.29,0.11715309029495757,0.11715309029495757
192.291,0.11417910658369612,0.11417910658369612
192.292,0.10083890461820344,0.10083890461820344
192.293,0.0760498070649982,0.0760498070649982
192.294,0.04134143927459277,0.04134143927459277
192.295,0.00127625756272165,0.00127625756272165
192.296,0.03727500328563216,-0.03727500328563216
192.297,0.06681400081467759,-0.06681400081467759
192.298,0.08126718531436916,-0.08126718531436916
192.299,0.07766139710689834,-0.07766139710689834
192.3,0.056809470997624456,-0.056809470997624456
192.301,0.02277551951328205,-0.02277551951328205
192.302,0.018632427570880017,0.018632427570880017
192.303,0.06171459922723743,0.06171459922723743
192.304,0.10232321036287195,0.10232321036287195
192.305,0.13833065457603766,0.13833065457603766
192.306,0.16898430172629664,0.16898430172629664
192.307,0.1935119773750642,0.1935119773750642
192.308,0.209709642931583,0.209709642931583
192.309,0.2133134711729947,0.2133134711729947
192.31,0.19868232824860144,0.19868232824860144
192.311,0.16078157199436083,0.16078157199436083
192.312,0.09786384047210062,0.09786384047210062
192.313,0.013824878614763447,0.013824878614763447
192.314,0.08084160511157057,-0.08084160511157057
192.315,0.1701979830665431,-0.1701979830665431
192.316,0.23614314080064935,-0.23614314080064935
192.317,0.2630545305452956,-0.2630545305452956
192.318,0.2424360424657288,-0.2424360424657288
192.319,0.1760494661995865,-0.1760494661995865
192.32,0.07636027623976205,-0.07636027623976205
192.321,0.036085490240947315,0.036085490240947315
192.322,0.13776322996202195,0.13776322996202195
192.323,0.20832529713550385,0.20832529713550385
192.324,0.23597993033955755,0.23597993033955755
192.325,0.2204448082421926,0.2204448082421926
192.326,0.17255328350680466,0.17255328350680466
192.327,0.11063506020071912,0.11063506020071912
192.328,0.05481173620650548,0.05481173620650548
192.329,0.021001741485600744,0.021001741485600744
192.33,0.016498723167599927,0.016498723167599927
192.331,0.038448723545357,0.038448723545357
192.332,0.07558676774169526,0.07558676774169526
192.333,0.1125287534897288,0.1125287534897288
192.334,0.13510754276938952,0.13510754276938952
192.335,0.13495919743651008,0.13495919743651008
192.336,0.11189029300311315,0.11189029300311315
192.337,0.07336473918683706,0.07336473918683706
192.338,0.03144994920306843,0.03144994920306843
192.339,0.0015914604947347977,-0.0015914604947347977
192.34,0.017473781857061943,-0.017473781857061943
192.341,0.014396403637294775,-0.014396403637294775
192.342,0.002885771494305134,0.002885771494305134
192.343,0.025305748390999083,0.025305748390999083
192.344,0.043102460885403815,0.043102460885403815
192.345,0.049429046976270374,0.049429046976270374
192.346,0.0426391865698017,0.0426391865698017
192.347,0.026485424893250675,0.026485424893250675
192.348,0.008269552496079857,0.008269552496079857
192.349,0.004252128978026293,-0.004252128978026293
192.35,0.005967053290054869,-0.005967053290054869
192.351,0.0036928219006930885,0.0036928219006930885
192.352,0.02075359609225158,0.02075359609225158
192.353,0.03855558882057131,0.03855558882057131
192.354,0.050685996230233066,0.050685996230233066
192.355,0.05378825294438783,0.05378825294438783
192.356,0.04909084889610038,0.04909084889610038
192.357,0.04199158694898153,0.04199158694898153
192.358,0.03979278757074356,0.03979278757074356
192.359,0.048422646851118634,0.048422646851118634
192.36,0.06941601074494752,0.06941601074494752
192.361,0.0983915369019599,0.0983915369019599
192.362,0.1257531653963886,0.1257531653963886
192.363,0.13953935365549874,0.13953935365549874
192.364,0.1295336759984218,0.1295336759984218
192.365,0.0912329993283354,0.0912329993283354
192.366,0.028241582271408383,0.028241582271408383
192.367,0.04785553707251611,-0.04785553707251611
192.368,0.12024951330779365,-0.12024951330779365
192.369,0.17150504919212306,-0.17150504919212306
192.37,0.18856127134058964,-0.18856127134058964
192.371,0.16653436856985682,-0.16653436856985682
192.372,0.11009871635908819,-0.11009871635908819
192.373,0.032016524950932324,-0.032016524950932324
192.374,0.05067886088484608,0.05067886088484608
192.375,0.12158510899480923,0.12158510899480923
192.376,0.16933731951577569,0.16933731951577569
192.377,0.19015489375459071,0.19015489375459071
192.378,0.18783418810360963,0.18783418810360963
192.379,0.17137236489382457,0.17137236489382457
192.38,0.15119003327173774,0.15119003327173774
192.381,0.1353375916775974,0.1353375916775974
192.382,0.12699053892278434,0.12699053892278434
192.383,0.12400862804682489,0.12400862804682489
192.384,0.12055636398315484,0.12055636398315484
192.385,0.11004290820539664,0.11004290820539664
192.386,0.08820032826924895,0.08820032826924895
192.387,0.055126865336524444,0.055126865336524444
192.388,0.01555760657511307,0.01555760657511307
192.389,0.022684584264917707,-0.022684584264917707
192.39,0.05142078446736209,-0.05142078446736209
192.391,0.06496703916382274,-0.06496703916382274
192.392,0.06202402885701208,-0.06202402885701208
192.393,0.045913229255812094,-0.045913229255812094
192.394,0.02310876568572029,-0.02310876568572029
192.395,0.0006641983374773286,-0.0006641983374773286
192.396,0.016451744371706933,0.016451744371706933
192.397,0.027070613490081996,0.027070613490081996
192.398,0.033921615622271695,0.033921615622271695
192.399,0.042068524300020504,0.042068524300020504
192.4,0.056291466881215335,0.056291466881215335
192.401,0.0784442340401712,0.0784442340401712
192.402,0.10585906879931528,0.10585906879931528
192.403,0.13150777367058097,0.13150777367058097
192.404,0.14598884645235177,0.14598884645235177
192.405,0.14072598123118074,0.14072598123118074
192.406,0.11128317365666018,0.11128317365666018
192.407,0.05960386656133365,0.05960386656133365
192.408,0.00569178792605618,-0.00569178792605618
192.409,0.07117558167768934,-0.07117558167768934
192.41,0.12213456132921785,-0.12213456132921785
192.411,0.14666492117194685,-0.14666492117194685
192.412,0.1390416360520481,-0.1390416360520481
192.413,0.10129374046025819,-0.10129374046025819
192.414,0.04249792197797608,-0.04249792197797608
192.415,0.02395625794609013,0.02395625794609013
192.416,0.08422961400062445,0.08422961400062445
192.417,0.1277885743599516,0.1277885743599516
192.418,0.14989556797275805,0.14989556797275805
192.419,0.1521358699467259,0.1521358699467259
192.42,0.14095355872402227,0.14095355872402227
192.421,0.12482097820308535,0.12482097820308535
192.422,0.11107966299728345,0.11107966299728345
192.423,0.10353617908968049,0.10353617908968049
192.424,0.10157404592252162,0.10157404592252162
192.425,0.10097855998952499,0.10097855998952499
192.426,0.09606824954627013,0.09606824954627013
192.427,0.08229293748958955,0.08229293748958955
192.428,0.05833514576072463,0.05833514576072463
192.429,0.026967344112490244,0.026967344112490244
192.43,0.005616859952229714,-0.005616859952229714
192.431,0.03173519511307077,-0.03173519511307077
192.432,0.044718078362597447,-0.044718078362597447
192.433,0.04110731861989381,-0.04110731861989381
192.434,0.021809243536012768,-0.021809243536012768
192.435,0.008163729840819034,0.008163729840819034
192.436,0.041242823050831046,0.041242823050831046
192.437,0.06959777686729418,0.06959777686729418
192.438,0.08740610546922056,0.08740610546922056
192.439,0.09236840141595981,0.09236840141595981
192.44,0.08602343428435599,0.08602343428435599
192.441,0.07283213222533202,0.07283213222533202
192.442,0.05840326799810103,0.05840326799810103
192.443,0.047493126510531614,0.047493126510531614
192.444,0.04244960875789716,0.04244960875789716
192.445,0.04258869987795921,0.04258869987795921
192.446,0.04466071018152751,0.04466071018152751
192.447,0.04420113361875844,0.04420113361875844
192.448,0.03728463103159463,0.03728463103159463
192.449,0.02209277624624928,0.02209277624624928
192.45,0.0002103972460042458,-0.0002103972460042458
192.451,0.02556517115124568,-0.02556517115124568
192.452,0.04802989435960103,-0.04802989435960103
192.453,0.06140835408332801,-0.06140835408332801
192.454,0.06100721785457108,-0.06100721785457108
192.455,0.04501896942167394,-0.04501896942167394
192.456,0.015148354646387197,-0.015148354646387197
192.457,0.02367882772573382,0.02367882772573382
192.458,0.06443441121552618,0.06443441121552618
192.459,0.09963076227004719,0.09963076227004719
192.46,0.12306152184608643,0.12306152184608643
192.461,0.13120457752507297,0.13120457752507297
192.462,0.12395042838416592,0.12395042838416592
192.463,0.10449547558330763,0.10449547558330763
192.464,0.0784483140596226,0.0784483140596226
192.465,0.052388199717323225,0.052388199717323225
192.466,0.032244757165649895,0.032244757165649895
192.467,0.02190694952218153,0.02190694952218153
192.468,0.022407494798414307,0.022407494798414307
192.469,0.03187916536726121,0.03187916536726121
192.47,0.04627634707733197,0.04627634707733197
192.471,0.06064929059778956,0.06064929059778956
192.472,0.07060501741656067,0.07060501741656067
192.473,0.07353373605156799,0.07353373605156799
192.474,0.06924485189267138,0.06924485189267138
192.475,0.05983048062020546,0.05983048062020546
192.476,0.04881062885347398,0.04881062885347398
192.477,0.039842765311720596,0.039842765311720596
192.478,0.03542543235918627,0.03542543235918627
192.479,0.03603735607538838,0.03603735607538838
192.48,0.0400175223204533,0.0400175223204533
192.481,0.044244539345811296,0.044244539345811296
192.482,0.045393295174556814,0.045393295174556814
192.483,0.04132918478302794,0.04132918478302794
192.484,0.032126143240995386,0.032126143240995386
192.485,0.02030061446637932,0.02030061446637932
192.486,0.010113990180924626,0.010113990180924626
192.487,0.006128047568063177,0.006128047568063177
192.488,0.011486555052416136,0.011486555052416136
192.489,0.026533812266934298,0.026533812266934298
192.49,0.048306721584498336,0.048306721584498336
192.491,0.07116285136968314,0.07116285136968314
192.492,0.0884180243408148,0.0884180243408148
192.493,0.094495857218315,0.094495857218315
192.494,0.08687333468263492,0.08687333468263492
192.495,0.06712927749255138,0.06712927749255138
192.496,0.04067323236946718,0.04067323236946718
192.497,0.015168724923983135,0.015168724923983135
192.498,0.0018794015236780481,-0.0018794015236780481
192.499,0.005589827483627685,-0.005589827483627685
192.5,0.004615775522345933,0.004615775522345933
192.501,0.02471898531198069,0.02471898531198069
192.502,0.04734052492534757,0.04734052492534757
192.503,0.06412734597708858,0.06412734597708858
192.504,0.06850645005755251,0.06850645005755251
192.505,0.05787856661811963,0.05787856661811963
192.506,0.034503377354598186,0.034503377354598186
192.507,0.004771687323030349,0.004771687323030349
192.508,0.022883608183555837,-0.022883608183555837
192.509,0.04071315639504325,-0.04071315639504325
192.51,0.044070011248870666,-0.044070011248870666
192.511,0.032695131050763826,-0.032695131050763826
192.512,0.010456191336576048,-0.010456191336576048
192.513,0.01631175057277523,0.01631175057277523
192.514,0.04120952108002607,0.04120952108002607
192.515,0.060004434312464605,0.060004434312464605
192.516,0.07185230689005961,0.07185230689005961
192.517,0.07907189572556317,0.07907189572556317
192.518,0.08559981858232946,0.08559981858232946
192.519,0.09477756648859081,0.09477756648859081
192.52,0.10740000509351044,0.10740000509351044
192.521,0.12087276672006686,0.12087276672006686
192.522,0.12990446276809564,0.12990446276809564
192.523,0.12855023998678305,0.12855023998678305
192.524,0.11285580182451715,0.11285580182451715
192.525,0.0830494267130466,0.0830494267130466
192.526,0.04432582313239286,0.04432582313239286
192.527,0.005745724934045127,0.005745724934045127
192.528,0.022523062829277962,-0.022523062829277962
192.529,0.03272973732500717,-0.03272973732500717
192.53,0.022560382730504314,-0.022560382730504314
192.531,0.003537016849545882,0.003537016849545882
192.532,0.035378603792544094,0.035378603792544094
192.533,0.060256665018414424,0.060256665018414424
192.534,0.0673508581110771,0.0673508581110771
192.535,0.0518332328579485,0.0518332328579485
192.536,0.01715631321076838,0.01715631321076838
192.537,0.025443744606144625,-0.025443744606144625
192.538,0.060268594124315955,-0.060268594124315955
192.539,0.07234045966647096,-0.07234045966647096
192.54,0.05275974800177552,-0.05275974800177552
192.541,0.0023803196540667093,-0.0023803196540667093
192.542,0.06758332009562285,0.06758332009562285
192.543,0.13842228949231816,0.13842228949231816
192.544,0.1895075354891742,0.1895075354891742
192.545,0.2048435239214228,0.2048435239214228
192.546,0.17845966323094786,0.17845966323094786
192.547,0.11679734153263399,0.11679734153263399
192.548,0.03718532376136752,0.03718532376136752
192.549,0.03723243518236741,-0.03723243518236741
192.55,0.08456711820043528,-0.08456711820043528
192.551,0.09100775836179209,-0.09100775836179209
192.552,0.055188192777622214,-0.055188192777622214
192.553,0.011338629499081376,0.011338629499081376
192.554,0.08769994144113302,0.08769994144113302
192.555,0.1502319505777212,0.1502319505777212
192.556,0.1798417440556317,0.1798417440556317
192.557,0.16784437487358517,0.16784437487358517
192.558,0.11843195615334601,0.11843195615334601
192.559,0.04704684659152614,0.04704684659152614
192.56,0.024729813908070275,-0.024729813908070275
192.561,0.07604807302538108,-0.07604807302538108
192.562,0.09316787835102025,-0.09316787835102025
192.563,0.07332652320005095,-0.07332652320005095
192.564,0.024963150126912526,-0.024963150126912526
192.565,0.035599224605169066,0.035599224605169066
192.566,0.08976067747523486,0.08976067747523486
192.567,0.12259704027179885,0.12259704027179885
192.568,0.12720319757256804,0.12720319757256804
192.569,0.10611483382282616,0.10611483382282616
192.57,0.06954766997414574,0.06954766997414574
192.571,0.03127595162164298,0.03127595162164298
192.572,0.003713907238145353,0.003713907238145353
192.573,0.006073184812616317,-0.006073184812616317
192.574,0.0018561285495908297,0.0018561285495908297
192.575,0.021182729367269504,0.021182729367269504
192.576,0.04229909004870702,0.04229909004870702
192.577,0.056157299170217945,0.056157299170217945
192.578,0.05754206795020611,0.05754206795020611
192.579,0.04663610812060348,0.04663610812060348
192.58,0.028453227399288128,0.028453227399288128
192.581,0.01053075617573529,0.01053075617573529
192.582,0.00011000026441765343,-0.00011000026441765343
192.583,0.0004723395418155807,0.0004723395418155807
192.584,0.011987011459384522,0.011987011459384522
192.585,0.03049217660716974,0.03049217660716974
192.586,0.050326984410073994,0.050326984410073994
192.587,0.0664973769432784,0.0664973769432784
192.588,0.07648840959389425,0.07648840959389425
192.589,0.08077051092746368,0.08077051092746368
192.59,0.08185706659563419,0.08185706659563419
192.591,0.08241055647116058,0.08241055647116058
192.592,0.0833201218936741,0.0833201218936741
192.593,0.08270662884359026,0.08270662884359026
192.594,0.0764307826381665,0.0764307826381665
192.595,0.060031780709749016,0.060031780709749016
192.596,0.03136695399535583,0.03136695399535583
192.597,0.00717184780091229,-0.00717184780091229
192.598,0.04794444628012018,-0.04794444628012018
192.599,0.07943543681058163,-0.07943543681058163
192.6,0.08952019193310001,-0.08952019193310001
192.601,0.06965428670857943,-0.06965428670857943
192.602,0.018544961241051205,-0.018544961241051205
192.603,0.056104024016371046,0.056104024016371046
192.604,0.1386240692643912,0.1386240692643912
192.605,0.20912894607791754,0.20912894607791754
192.606,0.24896531803771538,0.24896531803771538
192.607,0.2462031944875558,0.2462031944875558
192.608,0.1993971702992854,0.1993971702992854
192.609,0.11834733262667707,0.11834733262667707
192.61,0.021535914642014875,0.021535914642014875
192.611,0.0690050646592395,-0.0690050646592395
192.612,0.1337986033862668,-0.1337986033862668
192.613,0.16109164466335302,-0.16109164466335302
192.614,0.1495070909897237,-0.1495070909897237
192.615,0.10745117953218974,-0.10745117953218974
192.616,0.04963143773449419,-0.04963143773449419
192.617,0.008022186332333536,0.008022186332333536
192.618,0.053269741598126474,0.053269741598126474
192.619,0.08069354350906943,0.08069354350906943
192.62,0.09213919778040713,0.09213919778040713
192.621,0.09454787201557702,0.09454787201557702
192.622,0.09618589000506494,0.09618589000506494
192.623,0.10280208997594076,0.10280208997594076
192.624,0.1151894826141382,0.1151894826141382
192.625,0.12902975891085466,0.12902975891085466
192.626,0.13698974887075188,0.13698974887075188
192.627,0.13216201948676343,0.13216201948676343
192.628,0.11142553943500588,0.11142553943500588
192.629,0.07733808682074983,0.07733808682074983
192.63,0.03774419400363027,0.03774419400363027
192.631,0.0031743688939349646,0.0031743688939349646
192.632,0.017014113150885968,-0.017014113150885968
192.633,0.01828030197492614,-0.01828030197492614
192.634,0.0028827507328735846,-0.0028827507328735846
192.635,0.020656084147824272,0.020656084147824272
192.636,0.04053224477240547,0.04053224477240547
192.637,0.046081975286414334,0.046081975286414334
192.638,0.03204488118313931,0.03204488118313931
192.639,0.0010551038928869882,0.0010551038928869882
192.64,0.036670941385594236,-0.036670941385594236
192.641,0.06649806907413525,-0.06649806907413525
192.642,0.07439670020985767,-0.07439670020985767
192.643,0.052120009859590755,-0.052120009859590755
192.644,0.0006961247361650935,-0.0006961247361650935
192.645,0.0690816074641265,0.0690816074641265
192.646,0.1394809070609453,0.1394809070609453
192.647,0.19114699034806604,0.19114699034806604
192.648,0.2092005178374856,0.2092005178374856
192.649,0.1880973396226766,0.1880973396226766
192.65,0.13360650904627813,0.13360650904627813
192.651,0.061204544182008824,0.061204544182008824
192.652,0.008627953629804619,-0.008627953629804619
192.653,0.0566913524643986,-0.0566913524643986
192.654,0.07089666862830712,-0.07089666862830712
192.655,0.04976552631583808,-0.04976552631583808
192.656,0.002512541257701284,-0.002512541257701284
192.657,0.05423975995447172,0.05423975995447172
192.658,0.1019625109233726,0.1019625109233726
192.659,0.12609358637924184,0.12609358637924184
192.66,0.1203743918059288,0.1203743918059288
192.661,0.08831572192811254,0.08831572192811254
192.662,0.04145567040102405,0.04145567040102405
192.663,0.004855276397497055,-0.004855276397497055
192.664,0.03662462267868083,-0.03662462267868083
192.665,0.045587499090594896,-0.045587499090594896
192.666,0.031382428041179744,-0.031382428041179744
192.667,0.0009555493978620211,-0.0009555493978620211
192.668,0.03441536262568157,0.03441536262568157
192.669,0.06330222561005994,0.06330222561005994
192.67,0.07800051571284072,0.07800051571284072
192.671,0.07678465237303844,0.07678465237303844
192.672,0.06387773722510248,0.06387773722510248
192.673,0.04730749801382039,0.04730749801382039
192.674,0.03555138741360864,0.03555138741360864
192.675,0.03424671199820417,0.03424671199820417
192.676,0.04414456917342391,0.04414456917342391
192.677,0.06097865211417686,0.06097865211417686
192.678,0.07720293542543866,0.07720293542543866
192.679,0.08489063432835309,0.08489063432835309
192.68,0.07871155930141338,0.07871155930141338
192.681,0.05793267684010539,0.05793267684010539
192.682,0.026784118674505697,0.026784118674505697
192.683,0.00686286183597995,-0.00686286183597995
192.684,0.03397520729203407,-0.03397520729203407
192.685,0.0471048585125845,-0.0471048585125845
192.686,0.04249042403039871,-0.04249042403039871
192.687,0.020896668609981295,-0.020896668609981295
192.688,0.012942859329398093,0.012942859329398093
192.689,0.05193495687322458,0.05193495687322458
192.69,0.08863834098753443,0.08863834098753443
192.691,0.11699277490425564,0.11699277490425564
192.692,0.13329752964298125,0.13329752964298125
192.693,0.13632827248465818,0.13632827248465818
192.694,0.12682276898155642,0.12682276898155642
192.695,0.10675457464157767,0.10675457464157767
192.696,0.07878775918634329,0.07878775918634329
192.697,0.04609800766933714,0.04609800766933714
192.698,0.012467098659883824,0.012467098659883824
192.699,0.017652563862144866,-0.017652563862144866
192.7,0.03944320587383976,-0.03944320587383976
192.701,0.04857288246967495,-0.04857288246967495
192.702,0.04247111308683804,-0.04247111308683804
192.703,0.021608799890692754,-0.021608799890692754
192.704,0.009792545571169153,0.009792545571169153
192.705,0.04411386327724487,0.04411386327724487
192.706,0.07192416624898978,0.07192416624898978
192.707,0.08451206884312668,0.08451206884312668
192.708,0.07665449877467934,0.07665449877467934
192.709,0.04870151512779519,0.04870151512779519
192.71,0.007163105570267225,0.007163105570267225
192.711,0.03659406059382431,-0.03659406059382431
192.712,0.06931988425816493,-0.06931988425816493
192.713,0.07970943185398993,-0.07970943185398993
192.714,0.06191218714268665,-0.06191218714268665
192.715,0.01756849373055902,-0.01756849373055902
192.716,0.04435994557744616,0.04435994557744616
192.717,0.11000371842896395,0.11000371842896395
192.718,0.1645410589795251,0.1645410589795251
192.719,0.19646165073564514,0.19646165073564514
192.72,0.20077644168212472,0.20077644168212472
192.721,0.18014087082655328,0.18014087082655328
192.722,0.1435458948958046,0.1435458948958046
192.723,0.10304569568486865,0.10304569568486865
192.724,0.06965330815050019,0.06965330815050019
192.725,0.04981351233808606,0.04981351233808606
192.726,0.04365435488102887,0.04365435488102887
192.727,0.045591394847306566,0.045591394847306566
192.728,0.04702699832786861,0.04702699832786861
192.729,0.04014033888072399,0.04014033888072399
192.73,0.021365911468904875,0.021365911468904875
192.731,0.006745849277111526,-0.006745849277111526
192.732,0.03602937140563767,-0.03602937140563767
192.733,0.055470556534100046,-0.055470556534100046
192.734,0.05531871371284891,-0.05531871371284891
192.735,0.03110275056912759,-0.03110275056912759
192.736,0.01391714679052547,0.01391714679052547
192.737,0.0688454047302045,0.0688454047302045
192.738,0.11793490889362124,0.11793490889362124
192.739,0.14528091680745603,0.14528091680745603
192.74,0.1399643193506248,0.1399643193506248
192.741,0.09997119226406737,0.09997119226406737
192.742,0.033552806822447545,0.033552806822447545
192.743,0.042526802416723464,-0.042526802416723464
192.744,0.10743201074726061,-0.10743201074726061
192.745,0.14210742988271474,-0.14210742988271474
192.746,0.13480510108612198,-0.13480510108612198
192.747,0.08463598215322754,-0.08463598215322754
192.748,0.0020887153745482445,-0.0020887153745482445
192.749,0.0936310424404232,0.0936310424404232
192.75,0.1796500771603471,0.1796500771603471
192.751,0.23539980115950687,0.23539980115950687
192.752,0.2478282907620497,0.2478282907620497
192.753,0.2144567034653233,0.2144567034653233
192.754,0.1435636388074375,0.1435636388074375
192.755,0.05162509795888748,0.05162509795888748
192.756,0.04111544958557389,-0.04111544958557389
192.757,0.11563597940126813,-0.11563597940126813
192.758,0.15834799468292082,-0.15834799468292082
192.759,0.16354929013976705,-0.16354929013976705
192.76,0.13372171552246337,-0.13372171552246337
192.761,0.0778990904206881,-0.0778990904206881
192.762,0.00879993714977978,-0.00879993714977978
192.763,0.06037645996819885,0.06037645996819885
192.764,0.11867027732390545,0.11867027732390545
192.765,0.1590642264382851,0.1590642264382851
192.766,0.1790067472300576,0.1790067472300576
192.767,0.1799196689346627,0.1799196689346627
192.768,0.16605162267369056,0.16605162267369056
192.769,0.14308140313315376,0.14308140313315376
192.77,0.11679862708058719,0.11679862708058719
192.771,0.09205927043097106,0.09205927043097106
192.772,0.0720966515919188,0.0720966515919188
192.773,0.05820132263244071,0.05820132263244071
192.774,0.049764440296672596,0.049764440296672596
192.775,0.04467718274549903,0.04467718274549903
192.776,0.0400554340751893,0.0400554340751893
192.777,0.03319393170000473,0.03319393170000473
192.778,0.022559703360071293,0.022559703360071293
192.779,0.00855356648396599,0.00855356648396599
192.78,0.006245292959160653,-0.006245292959160653
192.781,0.017545225531700126,-0.017545225531700126
192.782,0.020517245924853267,-0.020517245924853267
192.783,0.011429617291242478,-0.011429617291242478
192.784,0.010724714495826015,0.010724714495826015
192.785,0.04316856457354468,0.04316856457354468
192.786,0.07932088141928384,0.07932088141928384
192.787,0.11001751112647251,0.11001751112647251
192.788,0.12578690840386364,0.12578690840386364
192.789,0.11961541085051652,0.11961541085051652
192.79,0.08939618885349376,0.08939618885349376
192.791,0.03925429719195894,0.03925429719195894
192.792,0.020796276064082853,-0.020796276064082853
192.793,0.07694144855960738,-0.07694144855960738
192.794,0.11494701645090644,-0.11494701645090644
192.795,0.12394438603629754,-0.12394438603629754
192.796,0.09955327837084849,-0.09955327837084849
192.797,0.04540832758061186,-0.04540832758061186
192.798,0.027417129983957622,0.027417129983957622
192.799,0.10300255290483817,0.10300255290483817
192.8,0.16451676382786617,0.16451676382786617
192.801,0.1984368317380154,0.1984368317380154
192.802,0.19790429503126838,0.19790429503126838
192.803,0.16432507471123525,0.16432507471123525
192.804,0.10682395813380041,0.10682395813380041
192.805,0.0397657642765743,0.0397657642765743
192.806,0.020927894124449842,-0.020927894124449842
192.807,0.061652650503688955,-0.061652650503688955
192.808,0.07418931370101878,-0.07418931370101878
192.809,0.057260201727330484,-0.057260201727330484
192.81,0.01632673322174294,-0.01632673322174294
192.811,0.038142395381204564,0.038142395381204564
192.812,0.09334747334550397,0.09334747334550397
192.813,0.13704449736936541,0.13704449736936541
192.814,0.15997698051455989,0.15997698051455989
192.815,0.1574156603326815,0.1574156603326815
192.816,0.12965846607911158,0.12965846607911158
192.817,0.08159521299366057,0.08159521299366057
192.818,0.02159158408221251,0.02159158408221251
192.819,0.0400177616749835,-0.0400177616749835
192.82,0.09258248573218031,-0.09258248573218031
192.821,0.12675992041171424,-0.12675992041171424
192.822,0.13597197569578812,-0.13597197569578812
192.823,0.11755112027327452,-0.11755112027327452
192.824,0.07339508865472155,-0.07339508865472155
192.825,0.009934137177582847,-0.009934137177582847
192.826,0.06273117477924761,0.06273117477924761
192.827,0.1325163454701459,0.1325163454701459
192.828,0.18763951815602908,0.18763951815602908
192.829,0.21906075136586112,0.21906075136586112
192.83,0.22248636152029766,0.22248636152029766
192.831,0.1993701875024423,0.1993701875024423
192.832,0.1565512101342721,0.1565512101342721
192.833,0.10452411387401073,0.10452411387401073
192.834,0.054745268372274,0.054745268372274
192.835,0.01669822542628685,0.01669822542628685
192.836,0.004439013649385037,-0.004439013649385037
192.837,0.008827806953173645,-0.008827806953173645
192.838,0.001387690791798124,-0.001387690791798124
192.839,0.010211044334156316,0.010211044334156316
192.84,0.018327543722509887,0.018327543722509887
192.841,0.017985897799947193,0.017985897799947193
192.842,0.008485520429220239,0.008485520429220239
192.843,0.006555594179571633,-0.006555594179571633
192.844,0.020731832386474358,-0.020731832386474358
192.845,0.027409857727543563,-0.027409857727543563
192.846,0.022395489200909502,-0.022395489200909502
192.847,0.005724301655833375,-0.005724301655833375
192.848,0.018119131032657387,0.018119131032657387
192.849,0.04169910437931246,0.04169910437931246
192.85,0.05736404215275237,0.05736404215275237
192.851,0.06025818178300146,0.06025818178300146
192.852,0.050490964787044845,0.050490964787044845
192.853,0.03358393199126963,0.03358393199126963
192.854,0.01888547388640638,0.01888547388640638
192.855,0.01636143886582664,0.01636143886582664
192.856,0.032788212491235535,0.032788212491235535
192.857,0.0686705180684597,0.0686705180684597
192.858,0.11705631931747695,0.11705631931747695
192.859,0.1648519057229907,0.1648519057229907
192.86,0.19642386864453476,0.19642386864453476
192.861,0.1984770244695302,0.1984770244695302
192.862,0.16469069790826296,0.16469069790826296
192.863,0.09856655429817684,0.09856655429817684
192.864,0.013423447770853025,0.013423447770853025
192.865,0.07066687056495335,-0.07066687056495335
192.866,0.13224041705381295,-0.13224041705381295
192.867,0.15456741709168154,-0.15456741709168154
192.868,0.13070326143537558,-0.13070326143537558
192.869,0.06588402523986903,-0.06588402523986903
192.87,0.023547407576407497,0.023547407576407497
192.871,0.11445904051711597,0.11445904051711597
192.872,0.18327545986157312,0.18327545986157312
192.873,0.2125062814495502,0.2125062814495502
192.874,0.19554352919228513,0.19554352919228513
192.875,0.1383302606967034,0.1383302606967034
192.876,0.05744333113479283,0.05744333113479283
192.877,0.024794811109690063,-0.024794811109690063
192.878,0.08668892806754958,-0.08668892806754958
192.879,0.11313639569899892,-0.11313639569899892
192.88,0.099469034486237,-0.099469034486237
192.881,0.05214438869942317,-0.05214438869942317
192.882,0.01376444478674288,0.01376444478674288
192.883,0.07937788360294462,0.07937788360294462
192.884,0.12757691691750095,0.12757691691750095
192.885,0.14764754589463758,0.14764754589463758
192.886,0.13770127583794212,0.13770127583794212
192.887,0.10432540260011525,0.10432540260011525
192.888,0.05979314490989851,0.05979314490989851
192.889,0.017881102494622825,0.017881102494622825
192.89,0.010315080422284795,-0.010315080422284795
192.891,0.01929113329522736,-0.01929113329522736
192.892,0.010002163682539922,-0.010002163682539922
192.893,0.011369075000133622,0.011369075000133622
192.894,0.03612799954413415,0.03612799954413415
192.895,0.05623217557472859,0.05623217557472859
192.896,0.06681848212094788,0.06681848212094788
192.897,0.06731996638296267,0.06731996638296267
192.898,0.0609422431365112,0.0609422431365112
192.899,0.05284743379560686,0.05284743379560686
192.9,0.04781057940685529,0.04781057940685529
192.901,0.048239523860921674,0.048239523860921674
192.902,0.053260503977500484,0.053260503977500484
192.903,0.05915169994160818,0.05915169994160818
192.904,0.06091258131836885,0.06091258131836885
192.905,0.054361017376786336,0.054361017376786336
192.906,0.0379827817397238,0.0379827817397238
192.907,0.01386487036920614,0.01386487036920614
192.908,0.012624399939707653,-0.012624399939707653
192.909,0.0343115921099183,-0.0343115921099183
192.91,0.044367471182999774,-0.044367471182999774
192.911,0.038433713907721656,-0.038433713907721656
192.912,0.01605374681507843,-0.01605374681507843
192.913,0.019027705692659325,0.019027705692659325
192.914,0.059767435764315646,0.059767435764315646
192.915,0.09763313257711426,0.09763313257711426
192.916,0.12476998215328017,0.12476998215328017
192.917,0.13590539447407868,0.13590539447407868
192.918,0.1294928483413964,0.1294928483413964
192.919,0.10785125392839778,0.10785125392839778
192.92,0.07635558370786022,0.07635558370786022
192.921,0.04198305318468587,0.04198305318468587
192.922,0.011649729995730773,0.011649729995730773
192.923,0.009236154085302761,-0.009236154085302761
192.924,0.017700610887606216,-0.017700610887606216
192.925,0.013487009075845213,-0.013487009075845213
192.926,0.001252308800737234,0.001252308800737234
192.927,0.02268341529622231,0.02268341529622231
192.928,0.04621779584038754,0.04621779584038754
192.929,0.06743681999723017,0.06743681999723017
192.93,0.08286474736548288,0.08286474736548288
192.931,0.09049962848089588,0.09049962848089588
192.932,0.09005542777783226,0.09005542777783226
192.933,0.08289646951730689,0.08289646951730689
192.934,0.07166905906019228,0.07166905906019228
192.935,0.059670337308880494,0.059670337308880494
192.936,0.05004765105582476,0.05004765105582476
192.937,0.044983165705990036,0.044983165705990036
192.938,0.04506329073939597,0.04506329073939597
192.939,0.049031059649737196,0.049031059649737196
192.94,0.05405223065798648,0.05405223065798648
192.941,0.05649580781654984,0.05649580781654984
192.942,0.05306779355056945,0.05306779355056945
192.943,0.04199490815643325,0.04199490815643325
192.944,0.02388814399014838,0.02388814399014838
192.945,0.001962162552777924,0.001962162552777924
192.946,0.018551611028911674,-0.018551611028911674
192.947,0.03172141606165668,-0.03172141606165668
192.948,0.03263953689497101,-0.03263953689497101
192.949,0.019064342863583383,-0.019064342863583383
192.95,0.0075383335605996304,0.0075383335605996304
192.951,0.04193713793352161,0.04193713793352161
192.952,0.07617388501366884,0.07617388501366884
192.953,0.1014865308322066,0.1014865308322066
192.954,0.1106219999828395,0.1106219999828395
192.955,0.09989829835485442,0.09989829835485442
192.956,0.07041714340619665,0.07041714340619665
192.957,0.028051794076077385,0.028051794076077385
192.958,0.017824445172155867,-0.017824445172155867
192.959,0.05654789737234012,-0.05654789737234012
192.96,0.07872844093634657,-0.07872844093634657
192.961,0.07849223100598124,-0.07849223100598124
192.962,0.05483140869118586,-0.05483140869118586
192.963,0.011750752987103597,-0.011750752987103597
192.964,0.04276343194700871,0.04276343194700871
192.965,0.09862103474206996,0.09862103474206996
192.966,0.1458324757058196,0.1458324757058196
192.967,0.17649267273249802,0.17649267273249802
192.968,0.18612290254295338,0.18612290254295338
192.969,0.1741700583198309,0.1741700583198309
192.97,0.14369998880923984,0.14369998880923984
192.971,0.10050052396083453,0.10050052396083453
192.972,0.05188706727136361,0.05188706727136361
192.973,0.005478396725480561,0.005478396725480561
192.974,0.03188098343603085,-0.03188098343603085
192.975,0.05497825080251473,-0.05497825080251473
192.976,0.06086151314868793,-0.06086151314868793
192.977,0.04924034305906777,-0.04924034305906777
192.978,0.022618856845103008,-0.022618856845103008
192.979,0.013921746231892351,0.013921746231892351
192.98,0.05337866498623001,0.05337866498623001
192.981,0.08794356581301854,0.08794356581301854
192.982,0.11047189794737111,0.11047189794737111
192.983,0.11604394567318055,0.11604394567318055
192.984,0.10324136138003404,0.10324136138003404
192.985,0.07474900321612599,0.07474900321612599
192.986,0.03701073552730905,0.03701073552730905
192.987,0.0010962063520001397,-0.0010962063520001397
192.988,0.03031458529589648,-0.03031458529589648
192.989,0.043286052464711844,-0.043286052464711844
192.99,0.0364367886710244,-0.0364367886710244
192.991,0.010921024584481298,-0.010921024584481298
192.992,0.027676198296584076,0.027676198296584076
192.993,0.0708149726490801,0.0708149726490801
192.994,0.10923546784730576,0.10923546784730576
192.995,0.13529709850421345,0.13529709850421345
192.996,0.14473812034515188,0.14473812034515188
192.997,0.1373646341429975,0.1373646341429975
192.998,0.11653187124963948,0.11653187124963948
192.999,0.08767685749019982,0.08767685749019982
193.0,0.05646339557778601,0.05646339557778601
193.001,0.02720144895150245,0.02720144895150245
193.002,0.0020667393746347518,0.0020667393746347518
193.003,0.018678986625678906,-0.018678986625678906
193.004,0.03566261945588556,-0.03566261945588556
193.005,0.049084309017970784,-0.049084309017970784
193.006,0.05774699063176081,-0.05774699063176081
193.007,0.05893407872921719,-0.05893407872921719
193.008,0.04929634408052741,-0.04929634408052741
193.009,0.026479068280864437,-0.026479068280864437
193.01,0.009134254189908875,0.009134254189908875
193.011,0.053321269894642365,0.053321269894642365
193.012,0.09816957428497353,0.09816957428497353
193.013,0.13367319755471518,0.13367319755471518
193.014,0.15044405941017303,0.15044405941017303
193.015,0.14273984855054067,0.14273984855054067
193.016,0.11078733629287596,0.11078733629287596
193.017,0.06150423941200445,0.06150423941200445
193.018,0.007179161187830241,0.007179161187830241
193.019,0.037676380254217934,-0.037676380254217934
193.02,0.06045142606699072,-0.06045142606699072
193.021,0.054283149170352596,-0.054283149170352596
193.022,0.02037218609031477,-0.02037218609031477
193.023,0.03207344095845732,0.03207344095845732
193.024,0.08838100923017422,0.08838100923017422
193.025,0.13275328718420876,0.13275328718420876
193.026,0.15309807585829094,0.15309807585829094
193.027,0.14482105558826497,0.14482105558826497
193.028,0.11232996644390592,0.11232996644390592
193.029,0.06769398812458705,0.06769398812458705
193.03,0.026806071855698388,0.026806071855698388
193.031,0.004217297834416822,0.004217297834416822
193.032,0.008278261214591964,0.008278261214591964
193.033,0.03816951032700766,0.03816951032700766
193.034,0.08383433916247607,0.08383433916247607
193.035,0.12891570931948992,0.12891570931948992
193.036,0.15583402146997072,0.15583402146997072
193.037,0.15143632435761667,0.15143632435761667
193.038,0.11143351398767654,0.11143351398767654
193.039,0.04219631989598649,0.04219631989598649
193.04,0.04070420574402611,-0.04070420574402611
193.041,0.11680824029315418,-0.11680824029315418
193.042,0.1666316481874932,-0.1666316481874932
193.043,0.1772968911981999,-0.1772968911981999
193.044,0.14621958152931414,-0.14621958152931414
193.045,0.08175147903184177,-0.08175147903184177
193.046,0.0006294774528078362,-0.0006294774528078362
193.047,0.07693879627352196,0.07693879627352196
