Czas,AbsSum,Sum
206.221,0.2345056388764677,0.2345056388764677
206.222,0.2539473314575864,0.2539473314575864
206.223,0.2531439455601652,0.2531439455601652
206.224,0.2296284315433612,0.2296284315433612
206.225,0.18634193752935935,0.18634193752935935
206.226,0.1309896395127197,0.1309896395127197
206.227,0.07411658418490896,0.07411658418490896
206.228,0.026472703922629348,0.026472703922629348
206.229,0.0035880880420761097,-0.0035880880420761097
206.23,0.011979778315198697,-0.011979778315198697
206.231,0.0004215768211448534,0.0004215768211448534
206.232,0.02835453740694227,0.02835453740694227
206.233,0.06376151287923926,0.06376151287923926
206.234,0.09788727934425578,0.09788727934425578
206.235,0.1233056099459362,0.1233056099459362
206.236,0.13538572046841724,0.13538572046841724
206.237,0.13292539835652417,0.13292539835652417
206.238,0.11793537258771591,0.11793537258771591
206.239,0.09477757618147797,0.09477757618147797
206.24,0.06898056307171574,0.06898056307171574
206.241,0.04606037132686702,0.04606037132686702
206.242,0.03058668467931769,0.03058668467931769
206.243,0.025601232871738988,0.025601232871738988
206.244,0.03237288881038691,0.03237288881038691
206.245,0.050402192177802396,0.050402192177802396
206.246,0.07758010072992616,0.07758010072992616
206.247,0.11044631205823796,0.11044631205823796
206.248,0.14454762505630292,0.14454762505630292
206.249,0.17493019218527106,0.17493019218527106
206.25,0.19678817913202962,0.19678817913202962
206.251,0.2062351455433331,0.2062351455433331
206.252,0.20108588219534473,0.20108588219534473
206.253,0.18147129433750164,0.18147129433750164
206.254,0.15009171779920538,0.15009171779920538
206.255,0.1119637812518266,0.1119637812518266
206.256,0.0736275426895523,0.0736275426895523
206.257,0.04192534609426435,0.04192534609426435
206.258,0.02259805114983693,0.02259805114983693
206.259,0.01902387191845678,0.01902387191845678
206.26,0.03142016864550601,0.03142016864550601
206.261,0.05673380216338875,0.05673380216338875
206.262,0.08928260600199689,0.08928260600199689
206.263,0.12202157993062146,0.12202157993062146
206.264,0.14814360309635677,0.14814360309635677
206.265,0.16263084805585537,0.16263084805585537
206.266,0.1633761294639593,0.1633761294639593
206.267,0.15159402948651435,0.15159402948651435
206.268,0.1314152112975766,0.1314152112975766
206.269,0.10876055196517864,0.10876055196517864
206.27,0.08977379836126365,0.08977379836126365
206.271,0.07920670458815082,0.07920670458815082
206.272,0.07916945468114434,0.07916945468114434
206.273,0.08857503683059731,0.08857503683059731
206.274,0.10343722467796201,0.10343722467796201
206.275,0.11796695968224213,0.11796695968224213
206.276,0.12620275326800212,0.12620275326800212
206.277,0.12375983282953795,0.12375983282953795
206.278,0.1092314193611108,0.1092314193611108
206.279,0.0848429320991051,0.0848429320991051
206.28,0.05613655464673739,0.05613655464673739
206.281,0.030710950552455873,0.030710950552455873
206.282,0.016298502052761288,0.016298502052761288
206.283,0.018661555822115483,0.018661555822115483
206.284,0.03987066107875137,0.03987066107875137
206.285,0.0774596205023299,0.0774596205023299
206.286,0.12474142648448105,0.12474142648448105
206.287,0.17226425093004627,0.17226425093004627
206.288,0.2100675769379039,0.2100675769379039
206.289,0.23015638005332129,0.23015638005332129
206.29,0.22852196674380942,0.22852196674380942
206.291,0.20613814146878862,0.20613814146878862
206.292,0.16863311456065877,0.16863311456065877
206.293,0.12470996555708336,0.12470996555708336
206.294,0.08375492462917089,0.08375492462917089
206.295,0.05332159247122825,0.05332159247122825
206.296,0.0372285567237145,0.0372285567237145
206.297,0.034833389697635386,0.034833389697635386
206.298,0.04169251770509752,0.04169251770509752
206.299,0.05138770364001766,0.05138770364001766
206.3,0.05792868960868325,0.05792868960868325
206.301,0.05794845819052763,0.05794845819052763
206.302,0.051961126404602265,0.051961126404602265
206.303,0.0442442600780526,0.0442442600780526
206.304,0.041351047235577365,0.041351047235577365
206.305,0.04971377432441937,0.04971377432441937
206.306,0.0731192715317841,0.0731192715317841
206.307,0.11090950504823627,0.11090950504823627
206.308,0.15755357382452306,0.15755357382452306
206.309,0.20380942990927742,0.20380942990927742
206.31,0.2391783337942779,0.2391783337942779
206.311,0.2549195973894751,0.2549195973894751
206.312,0.24668386877094184,0.24668386877094184
206.313,0.21591603066401355,0.21591603066401355
206.314,0.1695517417932526,0.1695517417932526
206.315,0.11806920096414508,0.11806920096414508
206.316,0.07248664878350852,0.07248664878350852
206.317,0.041241897114552284,0.041241897114552284
206.318,0.02793524882713072,0.02793524882713072
206.319,0.030641674664177998,0.030641674664177998
206.32,0.04298863647670581,0.04298863647670581
206.321,0.056618611929017515,0.056618611929017515
206.322,0.06420151142731068,0.06420151142731068
206.323,0.06198436048292244,0.06198436048292244
206.324,0.0510256262677089,0.0510256262677089
206.325,0.036708155932328124,0.036708155932328124
206.326,0.026709363901499472,0.026709363901499472
206.327,0.028133336360346206,0.028133336360346206
206.328,0.04479816153180449,0.04479816153180449
206.329,0.07562326669896557,0.07562326669896557
206.33,0.11468994038545977,0.11468994038545977
206.331,0.1529779584022375,0.1529779584022375
206.332,0.18120573335337786,0.18120573335337786
206.333,0.19281763123445295,0.19281763123445295
206.334,0.18610311041334526,0.18610311041334526
206.335,0.16472101432166553,0.16472101432166553
206.336,0.13644241981442073,0.13644241981442073
206.337,0.11053339846714505,0.11053339846714505
206.338,0.09466640693056472,0.09466640693056472
206.339,0.09241386118736439,0.09241386118736439
206.34,0.10218063805265176,0.10218063805265176
206.341,0.11793882806271516,0.11793882806271516
206.342,0.13150601828988395,0.13150601828988395
206.343,0.13557165664427662,0.13557165664427662
206.344,0.1264111249826978,0.1264111249826978
206.345,0.10532835586145861,0.10532835586145861
206.346,0.0783038059191512,0.0783038059191512
206.347,0.053947816847309094,0.053947816847309094
206.348,0.040455875653087725,0.040455875653087725
206.349,0.04262477362969763,0.04262477362969763
206.35,0.05998822792728764,0.05998822792728764
206.351,0.08676191125278265,0.08676191125278265
206.352,0.11367266856575031,0.11367266856575031
206.353,0.13109312770720427,0.13109312770720427
206.354,0.13243509679994903,0.13243509679994903
206.355,0.11663663081481812,0.11663663081481812
206.356,0.08885481139704243,0.08885481139704243
206.357,0.059061323994632486,0.059061323994632486
206.358,0.038937510923841456,0.038937510923841456
206.359,0.038045588259684626,0.038045588259684626
206.36,0.060517081065658784,0.060517081065658784
206.361,0.10335658360863142,0.10335658360863142
206.362,0.15695259268702566,0.15695259268702566
206.363,0.2076823892364954,0.2076823892364954
206.364,0.24182566439717834,0.24182566439717834
206.365,0.24958151531372552,0.24958151531372552
206.366,0.22795116739041754,0.22795116739041754
206.367,0.18161155765186487,0.18161155765186487
206.368,0.12154069035360826,0.12154069035360826
206.369,0.061855261334434086,0.061855261334434086
206.37,0.015858596069661335,0.015858596069661335
206.371,0.00749533699512317,-0.00749533699512317
206.372,0.00569414628897158,-0.00569414628897158
206.373,0.01721952561894624,0.01721952561894624
206.374,0.052411816305434344,0.052411816305434344
206.375,0.08922766277834393,0.08922766277834393
206.376,0.11837275626796506,0.11837275626796506
206.377,0.13432646887403998,0.13432646887403998
206.378,0.13632953990257457,0.13632953990257457
206.379,0.12780018559345852,0.12780018559345852
206.38,0.11454721398706824,0.11454721398706824
206.381,0.10249834392528978,0.10249834392528978
206.382,0.09574271694604364,0.09574271694604364
206.383,0.09549313477344734,0.09549313477344734
206.384,0.10019439181708956,0.10019439181708956
206.385,0.1065851914089253,0.1065851914089253
206.386,0.11121142410120788,0.11121142410120788
206.387,0.11178730962204586,0.11178730962204586
206.388,0.10792573509115422,0.10792573509115422
206.389,0.10104516093234328,0.10104516093234328
206.39,0.09358910424645339,0.09358910424645339
206.391,0.08793996898401568,0.08793996898401568
206.392,0.08548638143459009,0.08548638143459009
206.393,0.08619629350990898,0.08619629350990898
206.394,0.08881263378588122,0.08881263378588122
206.395,0.09152632398502436,0.09152632398502436
206.396,0.09279962002418074,0.09279962002418074
206.397,0.09197993559136086,0.09197993559136086
206.398,0.08946583754713533,0.08946583754713533
206.399,0.08640414887976733,0.08640414887976733
206.4,0.08411284732339186,0.08411284732339186
206.401,0.08354350674785516,0.08354350674785516
206.402,0.08506595572906828,0.08506595572906828
206.403,0.08868797412222929,0.08868797412222929
206.404,0.09458720166131473,0.09458720166131473
206.405,0.10363698001907751,0.10363698001907751
206.406,0.11754820704492852,0.11754820704492852
206.407,0.138369446905656,0.138369446905656
206.408,0.1673573789609324,0.1673573789609324
206.409,0.20355106796519862,0.20355106796519862
206.41,0.24262442278149665,0.24262442278149665
206.411,0.2766357834632689,0.2766357834632689
206.412,0.2950902875436838,0.2950902875436838
206.413,0.28731926444122635,0.28731926444122635
206.414,0.24568680258132347,0.24568680258132347
206.415,0.1687294018462686,0.1687294018462686
206.416,0.06318069048085251,0.06318069048085251
206.417,0.0559818902849365,-0.0559818902849365
206.418,0.16782947630965694,-0.16782947630965694
206.419,0.24978905241672467,-0.24978905241672467
206.42,0.28298171226088253,-0.28298171226088253
206.421,0.25719141659068423,-0.25719141659068423
206.422,0.17404378898833106,-0.17404378898833106
206.423,0.047385529136635074,-0.047385529136635074
206.424,0.099405299923506,0.099405299923506
206.425,0.23859143748286038,0.23859143748286038
206.426,0.34442816967449397,0.34442816967449397
206.427,0.39903664544648865,0.39903664544648865
206.428,0.39626017058579976,0.39626017058579976
206.429,0.34252732128005525,0.34252732128005525
206.43,0.2545834414183399,0.2545834414183399
206.431,0.15481380788189547,0.15481380788189547
206.432,0.06551195090018158,0.06551195090018158
206.433,0.003665581418544228,0.003665581418544228
206.434,0.022408996991138075,-0.022408996991138075
206.435,0.013862283502988904,-0.013862283502988904
206.436,0.020409386559733234,0.020409386559733234
206.437,0.06724740177920863,0.06724740177920863
206.438,0.11330358711015154,0.11330358711015154
206.439,0.14849391543372126,0.14849391543372126
206.44,0.16795272716626486,0.16795272716626486
206.441,0.17216262342227062,0.17216262342227062
206.442,0.1655237659109523,0.1655237659109523
206.443,0.15405983215645858,0.15405983215645858
206.444,0.14311637552729617,0.14311637552729617
206.445,0.13577265949646078,0.13577265949646078
206.446,0.13234070143474552,0.13234070143474552
206.447,0.13090797353978578,0.13090797353978578
206.448,0.12854284706433905,0.12854284706433905
206.449,0.12262861508357714,0.12262861508357714
206.45,0.11184916512828535,0.11184916512828535
206.451,0.09656440221732576,0.09656440221732576
206.452,0.07858244010492599,0.07858244010492599
206.453,0.06054788136805889,0.06054788136805889
206.454,0.045247505188981796,0.045247505188981796
206.455,0.03507511208469838,0.03507511208469838
206.456,0.031746128116647565,0.031746128116647565
206.457,0.03619493471751567,0.03619493471751567
206.458,0.04850441268221006,0.04850441268221006
206.459,0.06774783350440305,0.06774783350440305
206.46,0.09174940607748638,0.09174940607748638
206.461,0.1169223653217426,0.1169223653217426
206.462,0.13843364038911843,0.13843364038911843
206.463,0.15090440412673045,0.15090440412673045
206.464,0.1496742465504024,0.1496742465504024
206.465,0.13238916283087954,0.13238916283087954
206.466,0.10042723926860986,0.10042723926860986
206.467,0.05956920649362818,0.05956920649362818
206.468,0.019433824204074357,0.019433824204074357
206.469,0.008467462016039984,-0.008467462016039984
206.47,0.013733812947310353,-0.013733812947310353
206.471,0.009633221998306851,0.009633221998306851
206.472,0.06067211131325623,0.06067211131325623
206.473,0.13059577543558087,0.13059577543558087
206.474,0.20416812472707146,0.20416812472707146
206.475,0.26321784741421106,0.26321784741421106
206.476,0.2914775710952857,0.2914775710952857
206.477,0.2794125559999334,0.2794125559999334
206.478,0.22755853473466425,0.22755853473466425
206.479,0.14720899486529304,0.14720899486529304
206.48,0.05801456524115811,0.05801456524115811
206.481,0.01702161653029166,-0.01702161653029166
206.482,0.057832217109678785,-0.057832217109678785
206.483,0.05306037883947923,-0.05306037883947923
206.484,0.003579932757216575,-0.003579932757216575
206.485,0.07737923042472539,0.07737923042472539
206.486,0.16766110195481376,0.16766110195481376
206.487,0.24226302069581318,0.24226302069581318
206.488,0.28033766094116275,0.28033766094116275
206.489,0.2710780013344054,0.2710780013344054
206.49,0.2167508247297607,0.2167508247297607
206.491,0.13198272354133,0.13198272354133
206.492,0.03952030037201726,0.03952030037201726
206.493,0.03626155627418248,-0.03626155627418248
206.494,0.07616902818777327,-0.07616902818777327
206.495,0.07131687047554136,-0.07131687047554136
206.496,0.02512018490546819,-0.02512018490546819
206.497,0.0483237875019733,0.0483237875019733
206.498,0.1288360544480005,0.1288360544480005
206.499,0.19623186553310346,0.19623186553310346
206.5,0.23597924880824772,0.23597924880824772
206.501,0.24276041561231199,0.24276041561231199
206.502,0.2209844003092596,0.2209844003092596
206.503,0.18229544634078487,0.18229544634078487
206.504,0.14106103880157517,0.14106103880157517
206.505,0.10940948823268237,0.10940948823268237
206.506,0.09344597620020867,0.09344597620020867
206.507,0.09180971921900416,0.09180971921900416
206.508,0.09691433917521586,0.09691433917521586
206.509,0.09831776809504178,0.09831776809504178
206.51,0.08699003560261187,0.08699003560261187
206.511,0.05899823992541542,0.05899823992541542
206.512,0.017371632369638235,0.017371632369638235
206.513,0.028452619345500807,-0.028452619345500807
206.514,0.06539321149950894,-0.06539321149950894
206.515,0.08077610006023128,-0.08077610006023128
206.516,0.06636196391444626,-0.06636196391444626
206.517,0.021082117575724424,-0.021082117575724424
206.518,0.048341241723689476,0.048341241723689476
206.519,0.12903210256303832,0.12903210256303832
206.52,0.20530369951364746,0.20530369951364746
206.521,0.2626713084874799,0.2626713084874799
206.522,0.29136027242525997,0.29136027242525997
206.523,0.2883623383915215,0.2883623383915215
206.524,0.25758854767420014,0.25758854767420014
206.525,0.20825438201823676,0.20825438201823676
206.526,0.15212305457946806,0.15212305457946806
206.527,0.1004844175568762,0.1004844175568762
206.528,0.06170836196057361,0.06170836196057361
206.529,0.03992912905946899,0.03992912905946899
206.53,0.035009634186823124,0.035009634186823124
206.531,0.04354721708209208,0.04354721708209208
206.532,0.060433140420881326,0.060433140420881326
206.533,0.08042417889860931,0.08042417889860931
206.534,0.09930860410984854,0.09930860410984854
206.535,0.11447579825661136,0.11447579825661136
206.536,0.12493047971080018,0.12493047971080018
206.537,0.13094672087030612,0.13094672087030612
206.538,0.13359538611152577,0.13359538611152577
206.539,0.13431551597606162,0.13431551597606162
206.54,0.1345889147431003,0.1345889147431003
206.541,0.13568275249938622,0.13568275249938622
206.542,0.13839423859500455,0.13839423859500455
206.543,0.14277351708393726,0.14277351708393726
206.544,0.14788543918001862,0.14788543918001862
206.545,0.15174362816631093,0.15174362816631093
206.546,0.15155977671138499,0.15155977671138499
206.547,0.1443739999331084,0.1443739999331084
206.548,0.12798647374518812,0.12798647374518812
206.549,0.1019517204197411,0.1019517204197411
206.55,0.06829576943690885,0.06829576943690885
206.551,0.03163012233748619,0.03163012233748619
206.552,0.0015180440188340416,-0.0015180440188340416
206.553,0.02409758444561827,-0.02409758444561827
206.554,0.03032417449402225,-0.03032417449402225
206.555,0.017363164465152403,-0.017363164465152403
206.556,0.013632824489236306,0.013632824489236306
206.557,0.05751738810589346,0.05751738810589346
206.558,0.10626321968765118,0.10626321968765118
206.559,0.15093036155203166,0.15093036155203166
206.56,0.18393606661477224,0.18393606661477224
206.561,0.2009485336873107,0.2009485336873107
206.562,0.20182008063168455,0.20182008063168455
206.563,0.19026501804689233,0.19026501804689233
206.564,0.1723843480854017,0.1723843480854017
206.565,0.15451409194725252,0.15451409194725252
206.566,0.1411003176036536,0.1411003176036536
206.567,0.13330212924118845,0.13330212924118845
206.568,0.1287893618621958,0.1287893618621958
206.569,0.12280819537628762,0.12280819537628762
206.57,0.11016389537490667,0.11016389537490667
206.571,0.0874561932920197,0.0874561932920197
206.572,0.05480520091502994,0.05480520091502994
206.573,0.01645907838147953,0.01645907838147953
206.574,0.019969270464624156,-0.019969270464624156
206.575,0.04544598065827832,-0.04544598065827832
206.576,0.052064206026377624,-0.052064206026377624
206.577,0.03541736205634727,-0.03541736205634727
206.578,0.003935438331289065,0.003935438331289065
206.579,0.060366428565142405,0.060366428565142405
206.58,0.1244737086325669,0.1244737086325669
206.581,0.18538295281653494,0.18538295281653494
206.582,0.23337023891769193,0.23337023891769193
206.583,0.2620443321832766,0.2620443321832766
206.584,0.2694891890884046,0.2694891890884046
206.585,0.2581091013655292,0.2581091013655292
206.586,0.23332555397473054,0.23332555397473054
206.587,0.20161550858620814,0.20161550858620814
206.588,0.16855043699582284,0.16855043699582284
206.589,0.13744783998576326,0.13744783998576326
206.59,0.10900739019471328,0.10900739019471328
206.591,0.08195777500364199,0.08195777500364199
206.592,0.054403668659128934,0.054403668659128934
206.593,0.02534281005062189,0.02534281005062189
206.594,0.004213500547493254,-0.004213500547493254
206.595,0.03093260758188887,-0.03093260758188887
206.596,0.04979902728878316,-0.04979902728878316
206.597,0.05551320434006912,-0.05551320434006912
206.598,0.0442100226204829,-0.0442100226204829
206.599,0.014945503509878444,-0.014945503509878444
206.6,0.0295371667156632,0.0295371667156632
206.601,0.0830385086990244,0.0830385086990244
206.602,0.1371123552249156,0.1371123552249156
206.603,0.18294947062433642,0.18294947062433642
206.604,0.21343509846186337,0.21343509846186337
206.605,0.22482934342292626,0.22482934342292626
206.606,0.21762225398870583,0.21762225398870583
206.607,0.19633855791478827,0.19633855791478827
206.608,0.1683452310072513,0.1683452310072513
206.609,0.1419722002105277,0.1419722002105277
206.61,0.12442613902197164,0.12442613902197164
206.611,0.12001965906685186,0.12001965906685186
206.612,0.12914809488934087,0.12914809488934087
206.613,0.14825174471094082,0.14825174471094082
206.614,0.1707550453165354,0.1707550453165354
206.615,0.188737590708149,0.188737590708149
206.616,0.19492147151309802,0.19492147151309802
206.617,0.1844931899881892,0.1844931899881892
206.618,0.15632852944406816,0.15632852944406816
206.619,0.1133398854841221,0.1133398854841221
206.62,0.061879371776017544,0.061879371776017544
206.621,0.010355503147451373,0.010355503147451373
206.622,0.03259707475640816,-0.03259707475640816
206.623,0.05995907151287072,-0.05995907151287072
206.624,0.06775421665679515,-0.06775421665679515
206.625,0.055750995948340765,-0.055750995948340765
206.626,0.02731143163033445,-0.02731143163033445
206.627,0.011530912747716116,0.011530912747716116
206.628,0.053501837943600306,0.053501837943600306
206.629,0.09165937291710757,0.09165937291710757
206.63,0.12073539823549018,0.12073539823549018
206.631,0.13796217464749394,0.13796217464749394
206.632,0.1432552769857911,0.1432552769857911
206.633,0.13879884000331288,0.13879884000331288
206.634,0.12822239236138788,0.12822239236138788
206.635,0.11563286416652696,0.11563286416652696
206.636,0.10475593519688875,0.10475593519688875
206.637,0.09836008207531433,0.09836008207531433
206.638,0.09801855272470528,0.09801855272470528
206.639,0.10415241157212751,0.10415241157212751
206.64,0.11622910569730438,0.11622910569730438
206.641,0.13298421181918352,0.13298421181918352
206.642,0.15258306703751723,0.15258306703751723
206.643,0.17271660504695996,0.17271660504695996
206.644,0.19069473868851228,0.19069473868851228
206.645,0.20362888994158546,0.20362888994158546
206.646,0.20876856322465365,0.20876856322465365
206.647,0.20398486435968755,0.20398486435968755
206.648,0.1883066449777122,0.1883066449777122
206.649,0.16235116788331094,0.16235116788331094
206.65,0.12848248606759216,0.12848248606759216
206.651,0.09058829807889968,0.09058829807889968
206.652,0.05347481451450253,0.05347481451450253
206.653,0.022002240247554816,0.022002240247554816
206.654,0.0001754715332891177,0.0001754715332891177
206.655,0.009570896249003868,-0.009570896249003868
206.656,0.006709849668423806,-0.006709849668423806
206.657,0.007483196414166393,0.007483196414166393
206.658,0.030402887372214193,0.030402887372214193
206.659,0.05876893761205704,0.05876893761205704
206.66,0.08924029431515845,0.08924029431515845
206.661,0.1188120536974624,0.1188120536974624
206.662,0.1449321349256405,0.1449321349256405
206.663,0.16540832125547555,0.16540832125547555
206.664,0.17827405483153247,0.17827405483153247
206.665,0.18179978128752383,0.18179978128752383
206.666,0.1747631621866026,0.1747631621866026
206.667,0.15695179172700557,0.15695179172700557
206.668,0.1297222944498473,0.1297222944498473
206.669,0.0963457736774247,0.0963457736774247
206.67,0.061881050403379545,0.061881050403379545
206.671,0.03244530155159486,0.03244530155159486
206.672,0.013961276713648996,0.013961276713648996
206.673,0.01067865606503915,0.01067865606503915
206.674,0.023909287733233198,0.023909287733233198
206.675,0.05141652422177656,0.05141652422177656
206.676,0.08773901392552919,0.08773901392552919
206.677,0.12544904691165937,0.12544904691165937
206.678,0.15703395557135535,0.15703395557135535
206.679,0.17685543561119332,0.17685543561119332
206.68,0.1825767228322388,0.1825767228322388
206.681,0.17558851274296616,0.17558851274296616
206.682,0.16027708326255263,0.16027708326255263
206.683,0.14236367759533275,0.14236367759533275
206.684,0.1268710594234881,0.1268710594234881
206.685,0.11642173576684223,0.11642173576684223
206.686,0.11047930714503362,0.11047930714503362
206.687,0.10582897298554839,0.10582897298554839
206.688,0.09815536546182901,0.09815536546182901
206.689,0.08416530734284744,0.08416530734284744
206.69,0.0634685262547996,0.0634685262547996
206.691,0.039465378693722464,0.039465378693722464
206.692,0.01880087499514449,0.01880087499514449
206.693,0.00943511230568328,0.00943511230568328
206.694,0.017888588037620057,0.017888588037620057
206.695,0.04656821212886819,0.04656821212886819
206.696,0.0921340102180408,0.0921340102180408
206.697,0.1455903440514692,0.1455903440514692
206.698,0.19425432171755297,0.19425432171755297
206.699,0.22513490428077954,0.22513490428077954
206.7,0.2287541403545721,0.2287541403545721
206.701,0.20223154667494803,0.20223154667494803
206.702,0.15061739192313106,0.15061739192313106
206.703,0.0859616400382004,0.0859616400382004
206.704,0.024290769098565423,0.024290769098565423
206.705,0.018682136186565335,-0.018682136186565335
206.706,0.03187855247252114,-0.03187855247252114
206.707,0.011939487313144426,-0.011939487313144426
206.708,0.035833378374689806,0.035833378374689806
206.709,0.09894895013853655,0.09894895013853655
206.71,0.16116265867059765,0.16116265867059765
206.711,0.2068605672203392,0.2068605672203392
206.712,0.22512777133203166,0.22512777133203166
206.713,0.21237856810417166,0.21237856810417166
206.714,0.17289733192247247,0.17289733192247247
206.715,0.1172791128839763,0.1172791128839763
206.716,0.05935997349184685,0.05935997349184685
206.717,0.012605245042913271,0.012605245042913271
206.718,0.01302126494775624,-0.01302126494775624
206.719,0.01294122773625761,-0.01294122773625761
206.72,0.011710030339056265,0.011710030339056265
206.721,0.05513142369765456,0.05513142369765456
206.722,0.1087422733247001,0.1087422733247001
206.723,0.16324190620327528,0.16324190620327528
206.724,0.21029031894068728,0.21029031894068728
206.725,0.2435308781556682,0.2435308781556682
206.726,0.2589813684191242,0.2589813684191242
206.727,0.25503134709731556,0.25503134709731556
206.728,0.2323283804216265,0.2323283804216265
206.729,0.19371843582698234,0.19371843582698234
206.73,0.1442036732829921,0.1442036732829921
206.731,0.09070767273499736,0.09070767273499736
206.732,0.04139336496217472,0.04139336496217472
206.733,0.004403642197675861,0.004403642197675861
206.734,0.013849402257985699,-0.013849402257985699
206.735,0.010438706417093102,-0.010438706417093102
206.736,0.012864655552252025,0.012864655552252025
206.737,0.04947290920230696,0.04947290920230696
206.738,0.08924435772258632,0.08924435772258632
206.739,0.12097919355933073,0.12097919355933073
206.74,0.135540700116777,0.135540700116777
206.741,0.1286830579862186,0.1286830579862186
206.742,0.10264035693598439,0.10264035693598439
206.743,0.0658340321389006,0.0658340321389006
206.744,0.030615680114161936,0.030615680114161936
206.745,0.009606750012221221,0.009606750012221221
206.746,0.011708230861054991,0.011708230861054991
206.747,0.03904412864314022,0.03904412864314022
206.748,0.08588299729377757,0.08588299729377757
206.749,0.13999938435184123,0.13999938435184123
206.75,0.1861670329188545,0.1861670329188545
206.751,0.21076704867011165,0.21076704867011165
206.752,0.2060872430077869,0.2060872430077869
206.753,0.17293209885647043,0.17293209885647043
206.754,0.12065891763315695,0.12065891763315695
206.755,0.0645555137026046,0.0645555137026046
206.756,0.02132332016734151,0.02132332016734151
206.757,0.004049437593754757,0.004049437593754757
206.758,0.018234758742522228,0.018234758742522228
206.759,0.0601265420109649,0.0601265420109649
206.76,0.1178813750455765,0.1178813750455765
206.761,0.1751907377757531,0.1751907377757531
206.762,0.21622590184520596,0.21622590184520596
206.763,0.23035247944414938,0.23035247944414938
206.764,0.2151565784515681,0.2151565784515681
206.765,0.17687947939603954,0.17687947939603954
206.766,0.12819046696634184,0.12819046696634184
206.767,0.08406470377950792,0.08406470377950792
206.768,0.05710542846713662,0.05710542846713662
206.769,0.05378036023483057,0.05378036023483057
206.77,0.07270255705318784,0.07270255705318784
206.771,0.10540140249168783,0.10540140249168783
206.772,0.13923284230595012,0.13923284230595012
206.773,0.16142957045564765,0.16142957045564765
206.774,0.16299210091029326,0.16299210091029326
206.775,0.14124796812994256,0.14124796812994256
206.776,0.10039327455436653,0.10039327455436653
206.777,0.04999927272898885,0.04999927272898885
206.778,0.0020894950409788837,0.0020894950409788837
206.779,0.0322265000255193,-0.0322265000255193
206.78,0.045540821052919345,-0.045540821052919345
206.781,0.03562359015171257,-0.03562359015171257
206.782,0.005343278788220052,-0.005343278788220052
206.783,0.03870784137349492,0.03870784137349492
206.784,0.08826832051115452,0.08826832051115452
206.785,0.13542618337334944,0.13542618337334944
206.786,0.1740386535571119,0.1740386535571119
206.787,0.2003090172628892,0.2003090172628892
206.788,0.212623287180139,0.212623287180139
206.789,0.210990542761905,0.210990542761905
206.79,0.19648843914592296,0.19648843914592296
206.791,0.170991042913321,0.170991042913321
206.792,0.13722435777524833,0.13722435777524833
206.793,0.09896820606088519,0.09896820606088519
206.794,0.061104421051037416,0.061104421051037416
206.795,0.02925219869611939,0.02925219869611939
206.796,0.008912876920589952,0.008912876920589952
206.797,0.004288252892347133,0.004288252892347133
206.798,0.01713185101476955,0.01713185101476955
206.799,0.04605208727444454,0.04605208727444454
206.8,0.08657565093643238,0.08657565093643238
206.801,0.13203399442733454,0.13203399442733454
206.802,0.17504750423397053,0.17504750423397053
206.803,0.20916316547864588,0.20916316547864588
206.804,0.23014059607980464,0.23014059607980464
206.805,0.23650654831482232,0.23650654831482232
206.806,0.22926517498916454,0.22926517498916454
206.807,0.21095966441679548,0.21095966441679548
206.808,0.18451115209360625,0.18451115209360625
206.809,0.15232215697347895,0.15232215697347895
206.81,0.11599772856291501,0.11599772856291501
206.811,0.07675810961364093,0.07675810961364093
206.812,0.036301074962351576,0.036301074962351576
206.813,0.002352725926245247,-0.002352725926245247
206.814,0.03453614567820984,-0.03453614567820984
206.815,0.05446334872849201,-0.05446334872849201
206.816,0.05660710949397063,-0.05660710949397063
206.817,0.037556181527441224,-0.037556181527441224
206.818,0.002278175075919542,0.002278175075919542
206.819,0.05778315228775499,0.05778315228775499
206.82,0.11956450747530756,0.11956450747530756
206.821,0.17573814712886549,0.17573814712886549
206.822,0.2147025833023628,0.2147025833023628
206.823,0.22813583168564522,0.22813583168564522
206.824,0.21332518305580805,0.21332518305580805
206.825,0.17409182397236878,0.17409182397236878
206.826,0.11997422179968731,0.11997422179968731
206.827,0.0638578306395845,0.0638578306395845
206.828,0.01871346203908053,0.01871346203908053
206.829,0.0056234739323824945,-0.0056234739323824945
206.83,0.004723729837880053,-0.004723729837880053
206.831,0.019718075568794458,0.019718075568794458
206.832,0.06083655988479686,0.06083655988479686
206.833,0.10883371651131668,0.10883371651131668
206.834,0.1537572675826453,0.1537572675826453
206.835,0.1879690753086034,0.1879690753086034
206.836,0.20762248167637942,0.20762248167637942
206.837,0.21283925265491788,0.21283925265491788
206.838,0.2067159762754167,0.2067159762754167
206.839,0.19364637307283528,0.19364637307283528
206.84,0.17760774586317796,0.17760774586317796
206.841,0.1609886213185272,0.1609886213185272
206.842,0.1442752214393166,0.1442752214393166
206.843,0.1265732374554036,0.1265732374554036
206.844,0.10664504154429455,0.10664504154429455
206.845,0.08399131758131095,0.08399131758131095
206.846,0.05954030267582988,0.05954030267582988
206.847,0.0356974892459605,0.0356974892459605
206.848,0.015770061212294184,0.015770061212294184
206.849,0.003011074921355439,0.003011074921355439
206.85,0.00035329879467838055,-0.00035329879467838055
206.851,0.006223528480243212,0.006223528480243212
206.852,0.021467271765961637,0.021467271765961637
206.853,0.04264726185021428,0.04264726185021428
206.854,0.06627330070127746,0.06627330070127746
206.855,0.0888729004619675,0.0888729004619675
206.856,0.10762484609615086,0.10762484609615086
206.857,0.12073073008543944,0.12073073008543944
206.858,0.12753115884812716,0.12753115884812716
206.859,0.12845758226434945,0.12845758226434945
206.86,0.12491976111509473,0.12491976111509473
206.861,0.11916908795551562,0.11916908795551562
206.862,0.11409235094482661,0.11409235094482661
206.863,0.11283755854731359,0.11283755854731359
206.864,0.11819777369228746,0.11819777369228746
206.865,0.13178707746232887,0.13178707746232887
206.866,0.15319529246623742,0.15319529246623742
206.867,0.1794325765324527,0.1794325765324527
206.868,0.20499632678578994,0.20499632678578994
206.869,0.22276835840364773,0.22276835840364773
206.87,0.22569520203764504,0.22569520203764504
206.871,0.2088949823311208,0.2088949823311208
206.872,0.17158585125978498,0.17158585125978498
206.873,0.11815543608369006,0.11815543608369006
206.874,0.05785104017848397,0.05785104017848397
206.875,0.0029476513117812075,0.0029476513117812075
206.876,0.03425918709867948,-0.03425918709867948
206.877,0.04484703687316394,-0.04484703687316394
206.878,0.02602916299927327,-0.02602916299927327
206.879,0.017641511378475583,0.017641511378475583
206.88,0.07514200792455195,0.07514200792455195
206.881,0.1318126008894438,0.1318126008894438
206.882,0.1734024562190195,0.1734024562190195
206.883,0.1901355584941875,0.1901355584941875
206.884,0.1795295720158201,0.1795295720158201
206.885,0.14704002515280945,0.14704002515280945
206.886,0.10426689087272245,0.10426689087272245
206.887,0.06524327951591591,0.06524327951591591
206.888,0.041968130453351904,0.041968130453351904
206.889,0.04062355757425751,0.04062355757425751
206.89,0.05972425884520938,0.05972425884520938
206.891,0.09082938387050743,0.09082938387050743
206.892,0.12160129786884943,0.12160129786884943
206.893,0.1402006226110688,0.1402006226110688
206.894,0.13953430587141646,0.13953430587141646
206.895,0.1198928987298229,0.1198928987298229
206.896,0.08903110797113012,0.08903110797113012
206.897,0.05959843720353697,0.05959843720353697
206.898,0.044732344254278855,0.044732344254278855
206.899,0.05327807330644574,0.05327807330644574
206.9,0.08626992838448522,0.08626992838448522
206.901,0.13592968485744938,0.13592968485744938
206.902,0.18762555634720046,0.18762555634720046
206.903,0.22425469658566954,0.22425469658566954
206.904,0.23168960090555868,0.23168960090555868
206.905,0.20354140329715764,0.20354140329715764
206.906,0.14367568682806553,0.14367568682806553
206.907,0.06561460648132034,0.06561460648132034
206.908,0.011053487587021849,-0.011053487587021849
206.909,0.06618204917377546,-0.06618204917377546
206.91,0.08480862081995921,-0.08480862081995921
206.911,0.06138115999010696,-0.06138115999010696
206.912,0.0012093753172240929,-0.0012093753172240929
206.913,0.08123546691633843,0.08123546691633843
206.914,0.16656737579226188,0.16656737579226188
206.915,0.23591252899268556,0.23591252899268556
206.916,0.2758464636798852,0.2758464636798852
206.917,0.28140870795536554,0.28140870795536554
206.918,0.2564407105935771,0.2564407105935771
206.919,0.21137368392943645,0.21137368392943645
206.92,0.15937940903000758,0.15937940903000758
206.921,0.11223746350030406,0.11223746350030406
206.922,0.07724232255945229,0.07724232255945229
206.923,0.05601261136119806,0.05601261136119806
206.924,0.04535452171038079,0.04535452171038079
206.925,0.039628074981996386,0.039628074981996386
206.926,0.03360715685460547,0.03360715685460547
206.927,0.024752019379184365,0.024752019379184365
206.928,0.014124138324062674,0.014124138324062674
206.929,0.005732002125102609,0.005732002125102609
206.93,0.004687698018029707,0.004687698018029707
206.931,0.014964406721679202,0.014964406721679202
206.932,0.03763781778302322,0.03763781778302322
206.933,0.07025606596672151,0.07025606596672151
206.934,0.10752042241969484,0.10752042241969484
206.935,0.14295646420030272,0.14295646420030272
206.936,0.17090221414368023,0.17090221414368023
206.937,0.1880607215241965,0.1880607215241965
206.938,0.19407643273708453,0.19407643273708453
206.939,0.19100375055217045,0.19100375055217045
206.94,0.18197720321528466,0.18197720321528466
206.941,0.16969350241501457,0.16969350241501457
206.942,0.15536286552380574,0.15536286552380574
206.943,0.13856726575484601,0.13856726575484601
206.944,0.11806753862803943,0.11806753862803943
206.945,0.09318808503955811,0.09318808503955811
206.946,0.06514229042713393,0.06514229042713393
206.947,0.03765184568573243,0.03765184568573243
206.948,0.016468553314316958,0.016468553314316958
206.949,0.00783479008330934,0.00783479008330934
206.95,0.016357124473618256,0.016357124473618256
206.951,0.043047259189346265,0.043047259189346265
206.952,0.08429193066790197,0.08429193066790197
206.953,0.1322344241934268,0.1322344241934268
206.954,0.17657706839425802,0.17657706839425802
206.955,0.2073126778742942,0.2073126778742942
206.956,0.21754394954412914,0.21754394954412914
206.957,0.2054825494172552,0.2054825494172552
206.958,0.174964594088294,0.174964594088294
206.959,0.13429624638413418,0.13429624638413418
206.96,0.09378914735956223,0.09378914735956223
206.961,0.06277216036908762,0.06277216036908762
206.962,0.04702672791805784,0.04702672791805784
206.963,0.04743468973283904,0.04743468973283904
206.964,0.06020797265753197,0.06020797265753197
206.965,0.07853755184913092,0.07853755184913092
206.966,0.09503967356843512,0.09503967356843512
206.967,0.10414662923818563,0.10414662923818563
206.968,0.10365978232388895,0.10365978232388895
206.969,0.09501875883483413,0.09501875883483413
206.97,0.08231450109636285,0.08231450109636285
206.971,0.07051194441834507,0.07051194441834507
206.972,0.06359516979798863,0.06359516979798863
206.973,0.0633223872361166,0.0633223872361166
206.974,0.06899996759240112,0.06899996759240112
206.975,0.07826613325506915,0.07826613325506915
206.976,0.08847737901515607,0.08847737901515607
206.977,0.09806478173611533,0.09806478173611533
206.978,0.10725695439500216,0.10725695439500216
206.979,0.11783800626736651,0.11783800626736651
206.98,0.13201697617073527,0.13201697617073527
206.981,0.15087166876190938,0.15087166876190938
206.982,0.1730428019144239,0.1730428019144239
206.983,0.19430524658795822,0.19430524658795822
206.984,0.20834059724880305,0.20834059724880305
206.985,0.20858399739593492,0.20858399739593492
206.986,0.1905820841681296,0.1905820841681296
206.987,0.15404262601807983,0.15404262601807983
206.988,0.10378478524968715,0.10378478524968715
206.989,0.04911743265353974,0.04911743265353974
206.99,0.001682827719296176,0.001682827719296176
206.991,0.027666489366502733,-0.027666489366502733
206.992,0.03202292782034177,-0.03202292782034177
206.993,0.010607128360786922,-0.010607128360786922
206.994,0.03076141201050331,0.03076141201050331
206.995,0.08112828515450321,0.08112828515450321
206.996,0.1274160518367713,0.1274160518367713
206.997,0.15809829299442524,0.15809829299442524
206.998,0.1664262376649448,0.1664262376649448
206.999,0.15222648699519614,0.15222648699519614
207.0,0.12172973236398588,0.12172973236398588
207.001,0.08550354191679754,0.08550354191679754
207.002,0.05514983441548571,0.05514983441548571
207.003,0.03980138597979321,0.03980138597979321
207.004,0.043494323278969516,0.043494323278969516
207.005,0.0641962123664368,0.0641962123664368
207.006,0.0947330421781456,0.0947330421781456
207.007,0.12525917445191248,0.12525917445191248
207.008,0.14644457276868272,0.14644457276868272
207.009,0.1523592318643443,0.1523592318643443
207.01,0.14216899516108583,0.14216899516108583
207.011,0.12016590339078204,0.12016590339078204
207.012,0.09419942206769916,0.09419942206769916
207.013,0.07307382952160069,0.07307382952160069
207.014,0.06377434032829421,0.06377434032829421
207.015,0.06939424002173,0.06939424002173
207.016,0.08836796678044223,0.08836796678044223
207.017,0.11517028884411884,0.11517028884411884
207.018,0.14217178179225254,0.14217178179225254
207.019,0.16199852883055255,0.16199852883055255
207.02,0.16963256775085278,0.16963256775085278
207.021,0.1636311084742732,0.1636311084742732
207.022,0.1461744530037261,0.1461744530037261
207.023,0.12205281372095422,0.12205281372095422
207.024,0.097033002998693,0.097033002998693
207.025,0.07620081460556127,0.07620081460556127
207.026,0.06281341112877326,0.06281341112877326
207.027,0.05795456910576591,0.05795456910576591
207.028,0.060961562143786674,0.060961562143786674
207.029,0.07030776366423419,0.07030776366423419
207.03,0.08448256747609428,0.08448256747609428
207.031,0.10245763762991489,0.10245763762991489
207.032,0.1235423256515229,0.1235423256515229
207.033,0.1467259466921682,0.1467259466921682
207.034,0.1698642902038494,0.1698642902038494
207.035,0.18918731940394284,0.18918731940394284
207.036,0.199529287694711,0.199529287694711
207.037,0.1954275203479181,0.1954275203479181
207.038,0.17288604298474475,0.17288604298474475
207.039,0.13128017914776002,0.13128017914776002
207.04,0.07471170725325416,0.07471170725325416
207.041,0.012189360469183397,0.012189360469183397
207.042,0.04369092711270517,-0.04369092711270517
207.043,0.0794362917539081,-0.0794362917539081
207.044,0.08411578085622318,-0.08411578085622318
207.045,0.05265310075642482,-0.05265310075642482
207.046,0.012051441715330347,0.012051441715330347
207.047,0.09893461463664366,0.09893461463664366
207.048,0.19078343417215837,0.19078343417215837
207.049,0.2680853080803227,0.2680853080803227
207.05,0.3137850824814068,0.3137850824814068
207.051,0.31768811176116785,0.31768811176116785
207.052,0.27926974706334473,0.27926974706334473
207.053,0.20803877230516132,0.20803877230516132
207.054,0.12125828624937385,0.12125828624937385
207.055,0.03956932212494313,0.03956932212494313
207.056,0.01832648251460134,-0.01832648251460134
207.057,0.040474007442411475,-0.040474007442411475
207.058,0.024628442386690264,-0.024628442386690264
207.059,0.021450636850488314,0.021450636850488314
207.06,0.08244708934015188,0.08244708934015188
207.061,0.1399668728235055,0.1399668728235055
207.062,0.17775543347919576,0.17775543347919576
207.063,0.1861568986249078,0.1861568986249078
207.064,0.16455274964140543,0.16455274964140543
207.065,0.12112309302328095,0.12112309302328095
207.066,0.07006899066406747,0.07006899066406747
207.067,0.027180444186633457,0.027180444186633457
207.068,0.005107048906246581,0.005107048906246581
207.069,0.00974613515409506,0.00974613515409506
207.07,0.03879272348392493,0.03879272348392493
207.071,0.08281475324739795,0.08281475324739795
207.072,0.12843866921477165,0.12843866921477165
207.073,0.16259594220088647,0.16259594220088647
207.074,0.17648484638286477,0.17648484638286477
207.075,0.1680305094864032,0.1680305094864032
207.076,0.14213225555112685,0.14213225555112685
207.077,0.10870461487450656,0.10870461487450656
207.078,0.07921638983799317,0.07921638983799317
207.079,0.06288943861973162,0.06288943861973162
207.08,0.06379394148710826,0.06379394148710826
207.081,0.07975295870924182,0.07975295870924182
207.082,0.10335786035010441,0.10335786035010441
207.083,0.12470064691805871,0.12470064691805871
207.084,0.13487657243923445,0.13487657243923445
207.085,0.12907826546975487,0.12907826546975487
207.086,0.10826101185696868,0.10826101185696868
207.087,0.07884944396959592,0.07884944396959592
207.088,0.05061190622554901,0.05061190622554901
207.089,0.033431603162297874,0.033431603162297874
207.09,0.03405540213677383,0.03405540213677383
207.091,0.0538898445182967,0.0538898445182967
207.092,0.08854936260915358,0.08854936260915358
207.093,0.1292707586123769,0.1292707586123769
207.094,0.16569081554776122,0.16569081554776122
207.095,0.18904623654524877,0.18904623654524877
207.096,0.19473955192466352,0.19473955192466352
207.097,0.1834537897517281,0.1834537897517281
207.098,0.16050573464193607,0.16050573464193607
207.099,0.13372701408371168,0.13372701408371168
207.1,0.1106501735583807,0.1106501735583807
207.101,0.09599019550242827,0.09599019550242827
207.102,0.09028279450957322,0.09028279450957322
207.103,0.09011862759435796,0.09011862759435796
207.104,0.08984570084648502,0.08984570084648502
207.105,0.08409677156589002,0.08409677156589002
207.106,0.07021104735677342,0.07021104735677342
207.107,0.04965730469047758,0.04965730469047758
207.108,0.027914309901878598,0.027914309901878598
207.109,0.012803726946299498,0.012803726946299498
207.11,0.011815668023479997,0.011815668023479997
207.111,0.029331367844042777,0.029331367844042777
207.112,0.06470639599367733,0.06470639599367733
207.113,0.1119099608539984,0.1119099608539984
207.114,0.1609098034327212,0.1609098034327212
207.115,0.20041622524898273,0.20041622524898273
207.116,0.22114422177375115,0.22114422177375115
207.117,0.21856994764919424,0.21856994764919424
207.118,0.19430689174724303,0.19430689174724303
207.119,0.15565891115704478,0.15565891115704478
207.12,0.11348046427756353,0.11348046427756353
207.121,0.07900331561486951,0.07900331561486951
207.122,0.060604738318410734,0.060604738318410734
207.123,0.06149724322848149,0.06149724322848149
207.124,0.07901805346954505,0.07901805346954505
207.125,0.10568981088555507,0.10568981088555507
207.126,0.13167695208226937,0.13167695208226937
207.127,0.14784762536168516,0.14784762536168516
207.128,0.14849442390700762,0.14849442390700762
207.129,0.1329083309085084,0.1329083309085084
207.13,0.105383588075596,0.105383588075596
207.131,0.07372729940438338,0.07372729940438338
207.132,0.04679731109584839,0.04679731109584839
207.133,0.0318580927630574,0.0318580927630574
207.134,0.03255412648829781,0.03255412648829781
207.135,0.04806492471665336,0.04806492471665336
207.136,0.0736125633956366,0.0736125633956366
207.137,0.10207313087750336,0.10207313087750336
207.138,0.12612950446439797,0.12612950446439797
207.139,0.14028463574015437,0.14028463574015437
207.14,0.1421548631362819,0.1421548631362819
207.141,0.13273413297171488,0.13273413297171488
207.142,0.11566419744458689,0.11566419744458689
207.143,0.0958486089060735,0.0958486089060735
207.144,0.07791682757141905,0.07791682757141905
207.145,0.06503586195221378,0.06503586195221378
207.146,0.05839761364714513,0.05839761364714513
207.147,0.05744829232348825,0.05744829232348825
207.148,0.060665306680505626,0.060665306680505626
207.149,0.06651410541673908,0.06651410541673908
207.15,0.07418551704286935,0.07418551704286935
207.151,0.08382653989016475,0.08382653989016475
207.152,0.09618920843171885,0.09618920843171885
207.153,0.11185639986859375,0.11185639986859375
207.154,0.13037801450578357,0.13037801450578357
207.155,0.14970503271208457,0.14970503271208457
207.156,0.16622238235225062,0.16622238235225062
207.157,0.17548088550157792,0.17548088550157792
207.158,0.1734782847119969,0.1734782847119969
207.159,0.15812153234405213,0.15812153234405213
207.16,0.13039113225980237,0.13039113225980237
207.161,0.09476607590078778,0.09476607590078778
207.162,0.05865244273698056,0.05865244273698056
207.163,0.03084205341570634,0.03084205341570634
207.164,0.019329066361796654,0.019329066361796654
207.165,0.029041730657804354,0.029041730657804354
207.166,0.06012985342263333,0.06012985342263333
207.167,0.10735103866589313,0.10735103866589313
207.168,0.1608364052277338,0.1608364052277338
207.169,0.2081539788786,0.2081539788786
207.17,0.237222447742232,0.237222447742232
207.171,0.23936291864703896,0.23936291864703896
207.172,0.21169221183479858,0.21169221183479858
207.173,0.15819154038102812,0.15819154038102812
207.174,0.08910372860090732,0.08910372860090732
207.175,0.018740587885907045,0.018740587885907045
207.176,0.037794337302772485,-0.037794337302772485
207.177,0.06816091730778151,-0.06816091730778151
207.178,0.06571637610656589,-0.06571637610656589
207.179,0.031076715611435213,-0.031076715611435213
207.18,0.02809346889398978,0.02809346889398978
207.181,0.09899936653519181,0.09899936653519181
207.182,0.16683305654691494,0.16683305654691494
207.183,0.21827370642317234,0.21827370642317234
207.184,0.2444732324243628,0.2444732324243628
207.185,0.24279234519537263,0.24279234519537263
207.186,0.2169093758146059,0.2169093758146059
207.187,0.17537185210785844,0.17537185210785844
207.188,0.12906986814685606,0.12906986814685606
207.189,0.08836691420586318,0.08836691420586318
207.19,0.06066230742603396,0.06066230742603396
207.191,0.048980522608760735,0.048980522608760735
207.192,0.051851359653828366,0.051851359653828366
207.193,0.06436740652594297,0.06436740652594297
207.194,0.07999510448466562,0.07999510448466562
207.195,0.09255795003422462,0.09255795003422462
207.196,0.09783688388996015,0.09783688388996015
207.197,0.0944161014081446,0.0944161014081446
207.198,0.08366859269366111,0.08366859269366111
207.199,0.06903251331371973,0.06903251331371973
207.2,0.05489848373248152,0.05489848373248152
207.201,0.04546933128587605,0.04546933128587605
207.202,0.04387626164156311,0.04387626164156311
207.203,0.051687757703781756,0.051687757703781756
207.204,0.068796321139587,0.068796321139587
207.205,0.0935708419979413,0.0935708419979413
207.206,0.12314534255034437,0.12314534255034437
207.207,0.15376578400555885,0.15376578400555885
207.208,0.1811930216751214,0.1811930216751214
207.209,0.2012101068511012,0.2012101068511012
207.21,0.21026964548376648,0.21026964548376648
207.211,0.2062388343822974,0.2062388343822974
207.212,0.1890898130662737,0.1890898130662737
207.213,0.16129841394336308,0.16129841394336308
207.214,0.1277113894169446,0.1277113894169446
207.215,0.094749022583962,0.094749022583962
207.216,0.0690098607198355,0.0690098607198355
207.217,0.055575442491591076,0.055575442491591076
207.218,0.05648802203480585,0.05648802203480585
207.219,0.06991282723015568,0.06991282723015568
207.22,0.09035796920535755,0.09035796920535755
207.221,0.11003117440627808,0.11003117440627808
207.222,0.12104614510355072,0.12104614510355072
207.223,0.11787353089552477,0.11787353089552477
207.224,0.09928038135731754,0.09928038135731754
207.225,0.06908927925967911,0.06908927925967911
207.226,0.03540881729841239,0.03540881729841239
207.227,0.00845314896149385,0.00845314896149385
207.228,0.00246565450320535,-0.00246565450320535
207.229,0.008120129881278748,0.008120129881278748
207.23,0.03988675081580695,0.03988675081580695
207.231,0.08643290627717448,0.08643290627717448
207.232,0.1368265399839439,0.1368265399839439
207.233,0.17858400592750656,0.17858400592750656
207.234,0.20121554355154814,0.20121554355154814
207.235,0.19926862177004523,0.19926862177004523
207.236,0.1739351422124258,0.1739351422124258
207.237,0.13272321311098034,0.13272321311098034
207.238,0.08729215489973918,0.08729215489973918
207.239,0.05011735854237065,0.05011735854237065
207.24,0.031004704003287475,0.031004704003287475
207.241,0.03449850555904943,0.03449850555904943
207.242,0.05891827118409276,0.05891827118409276
207.243,0.09722506805129072,0.09722506805129072
207.244,0.1393393712712132,0.1393393712712132
207.245,0.17510195524256633,0.17510195524256633
207.246,0.19692581020965605,0.19692581020965605
207.247,0.2013665338769275,0.2013665338769275
207.248,0.18926475300550671,0.18926475300550671
207.249,0.16462678371662332,0.16462678371662332
207.25,0.13282364899863097,0.13282364899863097
207.251,0.0988601413829222,0.0988601413829222
207.252,0.06634415075934741,0.06634415075934741
207.253,0.03743116573612704,0.03743116573612704
207.254,0.013575405509083982,0.013575405509083982
207.255,0.0034355750413448405,-0.0034355750413448405
207.256,0.01081036762409937,-0.01081036762409937
207.257,0.004937142182846355,-0.004937142182846355
207.258,0.01747052893247325,0.01747052893247325
207.259,0.05761392779862917,0.05761392779862917
207.26,0.11293304218918832,0.11293304218918832
207.261,0.17630338373441123,0.17630338373441123
207.262,0.23667290657688067,0.23667290657688067
207.263,0.2812307818474049,0.2812307818474049
207.264,0.2986324527220634,0.2986324527220634
207.265,0.28235204571856287,0.28235204571856287
207.266,0.2330704853266028,0.2330704853266028
207.267,0.15921680600344246,0.15921680600344246
207.268,0.0753131728680061,0.0753131728680061
207.269,0.0015347346301103348,-0.0015347346301103348
207.27,0.05604048823128405,-0.05604048823128405
207.271,0.07873754596621318,-0.07873754596621318
207.272,0.06835927406877629,-0.06835927406877629
207.273,0.031855782875719774,-0.031855782875719774
207.274,0.017966965021700254,0.017966965021700254
207.275,0.06645521724982495,0.06645521724982495
207.276,0.1015145244294593,0.1015145244294593
207.277,0.11704906197034659,0.11704906197034659
207.278,0.11438653342188898,0.11438653342188898
207.279,0.10129557801218003,0.10129557801218003
207.28,0.08897444676515365,0.08897444676515365
207.281,0.08802749133908061,0.08802749133908061
207.282,0.10474474553491975,0.10474474553491975
207.283,0.13886950918519836,0.13886950918519836
207.284,0.1835320335821773,0.1835320335821773
207.285,0.22731881387488073,0.22731881387488073
207.286,0.2577720388939262,0.2577720388939262
207.287,0.2651886972230868,0.2651886972230868
207.288,0.24553986523632565,0.24553986523632565
207.289,0.20165577862736828,0.20165577862736828
207.29,0.14239767369155398,0.14239767369155398
207.291,0.08016474942341079,0.08016474942341079
207.292,0.02756092267398147,0.02756092267398147
207.293,0.005768720775849778,-0.005768720775849778
207.294,0.015262462825915701,-0.015262462825915701
207.295,0.002050127418880332,-0.002050127418880332
207.296,0.027939027316319365,0.027939027316319365
207.297,0.06592602993457763,0.06592602993457763
207.298,0.10261489922061817,0.10261489922061817
207.299,0.13024386582203396,0.13024386582203396
207.3,0.1439022798516949,0.1439022798516949
207.301,0.1419690616366276,0.1419690616366276
207.302,0.12581135195790627,0.12581135195790627
207.303,0.09904502472268373,0.09904502472268373
207.304,0.06666891255331575,0.06666891255331575
207.305,0.03427492769056495,0.03427492769056495
207.306,0.007384103787545948,0.007384103787545948
207.307,0.009152102812927332,-0.009152102812927332
207.308,0.011762234042307695,-0.011762234042307695
207.309,0.001224020330131026,0.001224020330131026
207.31,0.0290666033440794,0.0290666033440794
207.311,0.06842975244435401,0.06842975244435401
207.312,0.11372450305969828,0.11372450305969828
207.313,0.1580562230605691,0.1580562230605691
207.314,0.1946444744291871,0.1946444744291871
207.315,0.21837101790642066,0.21837101790642066
207.316,0.22699361701774778,0.22699361701774778
207.317,0.22160592998203077,0.22160592998203077
207.318,0.20613496620570015,0.20613496620570015
207.319,0.18598576403979394,0.18598576403979394
207.32,0.1662557233524915,0.1662557233524915
207.321,0.15012608834712737,0.15012608834712737
207.322,0.1380114354032964,0.1380114354032964
207.323,0.12780070943664112,0.12780070943664112
207.324,0.1161312140242976,0.1161312140242976
207.325,0.10023791729415965,0.10023791729415965
207.326,0.07966600883811115,0.07966600883811115
207.327,0.05713288037464026,0.05713288037464026
207.328,0.03809691175002805,0.03809691175002805
207.329,0.029053378935789187,0.029053378935789187
207.33,0.03507330283868271,0.03507330283868271
207.331,0.05744635109477492,0.05744635109477492
207.332,0.09234391962744071,0.09234391962744071
207.333,0.13114023329964608,0.13114023329964608
207.334,0.16249343022858231,0.16249343022858231
207.335,0.17566908582507623,0.17566908582507623
207.336,0.16410051444488194,0.16410051444488194
207.337,0.12800482120082912,0.12800482120082912
207.338,0.07509265638233398,0.07509265638233398
207.339,0.018971283773228542,0.018971283773228542
207.34,0.024427802222115158,-0.024427802222115158
207.341,0.04140257076674814,-0.04140257076674814
207.342,0.0246519586652858,-0.0246519586652858
207.343,0.024240460550609244,0.024240460550609244
207.344,0.09483649234151637,0.09483649234151637
207.345,0.17045659674410052,0.17045659674410052
207.346,0.23265243452465234,0.23265243452465234
207.347,0.26623808283863193,0.26623808283863193
207.348,0.2634047275898108,0.2634047275898108
207.349,0.2257258457283069,0.2257258457283069
207.35,0.1635060524439207,0.1635060524439207
207.351,0.09272844791023571,0.09272844791023571
207.352,0.030558343646659436,0.030558343646659436
207.353,0.00925035070983915,-0.00925035070983915
207.354,0.019734924661452435,-0.019734924661452435
207.355,0.0020074936787413122,-0.0020074936787413122
207.356,0.03577065503961396,0.03577065503961396
207.357,0.0812485912698544,0.0812485912698544
207.358,0.12160976897099296,0.12160976897099296
207.359,0.14702934171645476,0.14702934171645476
207.36,0.1529256209954577,0.1529256209954577
207.361,0.1405198989905334,0.1405198989905334
207.362,0.11576609036011232,0.11576609036011232
207.363,0.08717207826313289,0.08717207826313289
207.364,0.06327538156161272,0.06327538156161272
207.365,0.05051104429383546,0.05051104429383546
207.366,0.05196664808474405,0.05196664808474405
207.367,0.06717108381695791,0.06717108381695791
207.368,0.09274169920109676,0.09274169920109676
207.369,0.12351988778957024,0.12351988778957024
207.37,0.15379682946184547,0.15379682946184547
207.371,0.1783399162234005,0.1783399162234005
207.372,0.19310079091255417,0.19310079091255417
207.373,0.19563260242303837,0.19563260242303837
207.374,0.18530876737964808,0.18530876737964808
207.375,0.16340864398796762,0.16340864398796762
207.376,0.13305500567353312,0.13305500567353312
207.377,0.09891741724084091,0.09891741724084091
207.378,0.06659088049248219,0.06659088049248219
207.379,0.0416413375311242,0.0416413375311242
207.38,0.028452504973069948,0.028452504973069948
207.381,0.029148567933312997,0.029148567933312997
207.382,0.04293149257532547,0.04293149257532547
207.383,0.06611128410671818,0.06611128410671818
207.384,0.09292285397273914,0.09292285397273914
207.385,0.11696920699199898,0.11696920699199898
207.386,0.1328989329429653,0.1328989329429653
207.387,0.1378097265729159,0.1378097265729159
207.388,0.13192561611125253,0.13192561611125253
207.389,0.11831800830386818,0.11831800830386818
207.39,0.1017588166192882,0.1017588166192882
207.391,0.08709541973376012,0.08709541973376012
207.392,0.07770914131154738,0.07770914131154738
207.393,0.07459171990618207,0.07459171990618207
207.394,0.07635050190752657,0.07635050190752657
207.395,0.0801101457360589,0.0801101457360589
207.396,0.08294201666666168,0.08294201666666168
207.397,0.0832498145609466,0.0832498145609466
207.398,0.081552225436198,0.081552225436198
207.399,0.08033198536946995,0.08033198536946995
207.4,0.0829842769543725,0.0829842769543725
207.401,0.09225981826181195,0.09225981826181195
207.402,0.1088189536163966,0.1088189536163966
207.403,0.13050145930550694,0.13050145930550694
207.404,0.15266765697043994,0.15266765697043994
207.405,0.16956598566963788,0.16956598566963788
207.406,0.17627823335404313,0.17627823335404313
207.407,0.17054142797777194,0.17054142797777194
207.408,0.15374866726094716,0.15374866726094716
207.409,0.13070060595019584,0.13070060595019584
207.41,0.10812485621734003,0.10812485621734003
207.411,0.09244158708757677,0.09244158708757677
207.412,0.08755697750126967,0.08755697750126967
207.413,0.09349100914634634,0.09349100914634634
207.414,0.10637126802138885,0.10637126802138885
207.415,0.11984031369895431,0.11984031369895431
207.416,0.12740293029133332,0.12740293029133332
207.417,0.12487385187375688,0.12487385187375688
207.418,0.11201843929531119,0.11201843929531119
207.419,0.0927450975704589,0.0927450975704589
207.42,0.07372309856275261,0.07372309856275261
207.421,0.061881825459589423,0.061881825459589423
207.422,0.06168455979264653,0.06168455979264653
207.423,0.07319475297956646,0.07319475297956646
207.424,0.09170690383724978,0.09170690383724978
207.425,0.10917310189252083,0.10917310189252083
207.426,0.11700604908209078,0.11700604908209078
207.427,0.10931246002732098,0.10931246002732098
207.428,0.08540316522633296,0.08540316522633296
207.429,0.05062538944829864,0.05062538944829864
207.43,0.015112528559866556,0.015112528559866556
207.431,0.009236141778481644,-0.009236141778481644
207.432,0.012597729073424824,-0.012597729073424824
207.433,0.009385370200250431,0.009385370200250431
207.434,0.05383992672600235,0.05383992672600235
207.435,0.111176736439619,0.111176736439619
207.436,0.1677904613035901,0.1677904613035901
207.437,0.21011193367994863,0.21011193367994863
207.438,0.22871235673811574,0.22871235673811574
207.439,0.22112385600403006,0.22112385600403006
207.44,0.19245533515121527,0.19245533515121527
207.441,0.15360857680157625,0.15360857680157625
207.442,0.11769165960039518,0.11769165960039518
207.443,0.09581683137786334,0.09581683137786334
207.444,0.0936593639524852,0.0936593639524852
207.445,0.10988166420180168,0.10988166420180168
207.446,0.13688981558854807,0.13688981558854807
207.447,0.16360766820592976,0.16360766820592976
207.448,0.17929274947858964,0.17929274947858964
207.449,0.177099194465977,0.177099194465977
207.45,0.15621574965673424,0.15621574965673424
207.451,0.12191942180216331,0.12191942180216331
207.452,0.08360399021496234,0.08360399021496234
207.453,0.05151852513349331,0.05151852513349331
207.454,0.03335698770068585,0.03335698770068585
207.455,0.03184745449681503,0.03184745449681503
207.456,0.04410981734193187,0.04410981734193187
207.457,0.06292660375482151,0.06292660375482151
207.458,0.07942339562226364,0.07942339562226364
207.459,0.08620323097659677,0.08620323097659677
207.46,0.07986758491955759,0.07986758491955759
207.461,0.062107323627045075,0.062107323627045075
207.462,0.039058641755169266,0.039058641755169266
207.463,0.01920639454084916,0.01920639454084916
207.464,0.010579660720150708,0.010579660720150708
207.465,0.01817480394182125,0.01817480394182125
207.466,0.042413529527798755,0.042413529527798755
207.467,0.07906148680706382,0.07906148680706382
207.468,0.12054176687968332,0.12054176687968332
207.469,0.15814757297555615,0.15814757297555615
207.47,0.18442491880970824,0.18442491880970824
207.471,0.19501656326270456,0.19501656326270456
207.472,0.18949872168889526,0.18949872168889526
207.473,0.17109828303218166,0.17109828303218166
207.474,0.14551947896021455,0.14551947896021455
207.475,0.11932652609054806,0.11932652609054806
207.476,0.0983719153204532,0.0983719153204532
207.477,0.0866464169660921,0.0866464169660921
207.478,0.08572641666426772,0.08572641666426772
207.479,0.09479491875966084,0.09479491875966084
207.48,0.11108363028776602,0.11108363028776602
207.481,0.13055057981289409,0.13055057981289409
207.482,0.14864929102640478,0.14864929102640478
207.483,0.16111052428740846,0.16111052428740846
207.484,0.1646943935451286,0.1646943935451286
207.485,0.15785421423204582,0.15785421423204582
207.486,0.14119796736217394,0.14119796736217394
207.487,0.1175848082674138,0.1175848082674138
207.488,0.09170615320063447,0.09170615320063447
207.489,0.06910455236754065,0.06910455236754065
207.49,0.05476552608880847,0.05476552608880847
207.491,0.05161782858840902,0.05161782858840902
207.492,0.059409508311143666,0.059409508311143666
207.493,0.07441284913632895,0.07441284913632895
207.494,0.09021900618117606,0.09021900618117606
207.495,0.09954958502885014,0.09954958502885014
207.496,0.0966391867338976,0.0966391867338976
207.497,0.0794654705640907,0.0794654705640907
207.498,0.051041673215980854,0.051041673215980854
207.499,0.019196363424892393,0.019196363424892393
207.5,0.005292142447118731,-0.005292142447118731
207.501,0.011793405601963514,-0.011793405601963514
207.502,0.006725594259379575,0.006725594259379575
207.503,0.05099370831200911,0.05099370831200911
207.504,0.11442859764256319,0.11442859764256319
207.505,0.1843118688726042,0.1843118688726042
207.506,0.24495269301609346,0.24495269301609346
207.507,0.28198423975722764,0.28198423975722764
207.508,0.28651509532320163,0.28651509532320163
207.509,0.257832799419875,0.257832799419875
207.51,0.20375888874737713,0.20375888874737713
207.511,0.13847032966592931,0.13847032966592931
207.512,0.07840535883973154,0.07840535883973154
207.513,0.037498296886089744,0.037498296886089744
207.514,0.02322415017496371,0.02322415017496371
207.515,0.034691305419430885,0.034691305419430885
207.516,0.0633698595154999,0.0633698595154999
207.517,0.09619345151266212,0.09619345151266212
207.518,0.12000369593306193,0.12000369593306193
207.519,0.12587487661459873,0.12587487661459873
207.52,0.11190806377853835,0.11190806377853835
207.521,0.08360245411794853,0.08360245411794853
207.522,0.051724355898221885,0.051724355898221885
207.523,0.028428292091825735,0.028428292091825735
207.524,0.02296043324044672,0.02296043324044672
207.525,0.038400024719328574,0.038400024719328574
207.526,0.07053047352680908,0.07053047352680908
207.527,0.10920470381487313,0.10920470381487313
207.528,0.14172741247096932,0.14172741247096932
207.529,0.15710467478352164,0.15710467478352164
207.53,0.1497332445409565,0.1497332445409565
207.531,0.12130619038112189,0.12130619038112189
207.532,0.0803222932215446,0.0803222932215446
207.533,0.03939184263751394,0.03939184263751394
207.534,0.011257069552239152,0.011257069552239152
207.535,0.004849512219688545,0.004849512219688545
207.536,0.022660805281686347,0.022660805281686347
207.537,0.060234138984518903,0.060234138984518903
207.538,0.10785966196852503,0.10785966196852503
207.539,0.15382865069736984,0.15382865069736984
207.54,0.18811307805353183,0.18811307805353183
207.541,0.20524555440031067,0.20524555440031067
207.542,0.20549677754008733,0.20549677754008733
207.543,0.19406026779699714,0.19406026779699714
207.544,0.17863967666522163,0.17863967666522163
207.545,0.1663575703749911,0.1663575703749911
207.546,0.16109480622230476,0.16109480622230476
207.547,0.16217435748321773,0.16217435748321773
207.548,0.16480348286337643,0.16480348286337643
207.549,0.16206478352855624,0.16206478352855624
207.55,0.14771638506915474,0.14771638506915474
207.551,0.11880095928506096,0.11880095928506096
207.552,0.07715122164831545,0.07715122164831545
207.553,0.029273811161984797,0.029273811161984797
207.554,0.015349552458960303,-0.015349552458960303
207.555,0.04697748763877718,-0.04697748763877718
207.556,0.05845177268101731,-0.05845177268101731
207.557,0.047258553805758385,-0.047258553805758385
207.558,0.016176321614661204,-0.016176321614661204
207.559,0.02764992753369855,0.02764992753369855
207.56,0.07486615594276191,0.07486615594276191
207.561,0.11658540195007938,0.11658540195007938
207.562,0.14674268343476404,0.14674268343476404
207.563,0.16343268711881875,0.16343268711881875
207.564,0.1688875550458051,0.1688875550458051
207.565,0.16819108418304274,0.16819108418304274
207.566,0.16720814833010245,0.16720814833010245
207.567,0.1704198612637151,0.1704198612637151
207.568,0.17934312191698032,0.17934312191698032
207.569,0.19199746408395546,0.19199746408395546
207.57,0.20354220074256246,0.20354220074256246
207.571,0.20785233331648856,0.20785233331648856
207.572,0.19953648581798822,0.19953648581798822
207.573,0.1757926136274235,0.1757926136274235
207.574,0.1375647991554012,0.1375647991554012
207.575,0.08967477066226226,0.08967477066226226
207.576,0.03988796815458384,0.03988796815458384
207.577,0.0028433520310406912,-0.0028433520310406912
207.578,0.030508614344065266,-0.030508614344065266
207.579,0.03799835390928463,-0.03799835390928463
207.58,0.024398571706407135,-0.024398571706407135
207.581,0.006713222065541036,0.006713222065541036
207.582,0.04806231794342519,0.04806231794342519
207.583,0.09038828818602274,0.09038828818602274
207.584,0.12467032924007726,0.12467032924007726
207.585,0.1443217625513311,0.1443217625513311
207.586,0.1467942451591593,0.1467942451591593
207.587,0.13415688372607804,0.13415688372607804
207.588,0.11246040312746008,0.11246040312746008
207.589,0.09001006500459474,0.09001006500459474
207.59,0.07497639744514362,0.07497639744514362
207.591,0.0729849214529934,0.0729849214529934
207.592,0.08537477662003279,0.08537477662003279
207.593,0.1086697523170268,0.1086697523170268
207.594,0.13548640483745467,0.13548640483745467
207.595,0.15669086371343233,0.15669086371343233
207.596,0.1642252723682891,0.1642252723682891
207.597,0.1537793214243517,0.1537793214243517
207.598,0.12647182292307546,0.12647182292307546
207.599,0.08895553793805644,0.08895553793805644
207.6,0.051808463658939985,0.051808463658939985
207.601,0.02659937620130326,0.02659937620130326
207.602,0.02245287915235128,0.02245287915235128
207.603,0.04314369934045548,0.04314369934045548
207.604,0.08564110917597123,0.08564110917597123
207.605,0.14061858533256721,0.14061858533256721
207.606,0.19485544572891866,0.19485544572891866
207.607,0.23486647382292047,0.23486647382292047
207.608,0.250692430330582,0.250692430330582
207.609,0.23870597711520403,0.23870597711520403
207.61,0.20257011726436858,0.20257011726436858
207.611,0.1520489336427524,0.1520489336427524
207.612,0.10003791549399654,0.10003791549399654
207.613,0.05873921732273901,0.05873921732273901
207.614,0.0361729344432129,0.0361729344432129
207.615,0.03409932852012587,0.03409932852012587
207.616,0.04796445678647876,0.04796445678647876
207.617,0.06882367420810986,0.06882367420810986
207.618,0.08656086773291105,0.08656086773291105
207.619,0.09331653441565413,0.09331653441565413
207.62,0.08599783651547965,0.08599783651547965
207.621,0.06707846746425039,0.06707846746425039
207.622,0.04348880741102268,0.04348880741102268
207.623,0.024043857087142628,0.024043857087142628
207.624,0.016337238932927933,0.016337238932927933
207.625,0.02418244360887556,0.02418244360887556
207.626,0.04646021186670435,0.04646021186670435
207.627,0.07771647180969654,0.07771647180969654
207.628,0.11023231849361292,0.11023231849361292
207.629,0.13677590843673948,0.13677590843673948
207.63,0.15302452388490484,0.15302452388490484
207.631,0.15878842210139577,0.15878842210139577
207.632,0.1576217091426193,0.1576217091426193
207.633,0.15500471732106513,0.15500471732106513
207.634,0.15581120555505756,0.15581120555505756
207.635,0.16204147038552863,0.16204147038552863
207.636,0.1717115910300282,0.1717115910300282
207.637,0.17936995414920642,0.17936995414920642
207.638,0.1781129403965387,0.1781129403965387
207.639,0.16240583787230634,0.16240583787230634
207.64,0.13068658275337053,0.13068658275337053
207.641,0.08676084479508517,0.08676084479508517
207.642,0.03938383995351491,0.03938383995351491
207.643,3.843989635710088e-05,3.843989635710088e-05
207.644,0.020449114720755834,-0.020449114720755834
207.645,0.01538383465690596,-0.01538383465690596
207.646,0.01538311404366044,0.01538311404366044
207.647,0.06494187774590965,0.06494187774590965
207.648,0.12096154931616399,0.12096154931616399
207.649,0.16903856201195255,0.16903856201195255
207.65,0.19676304693496816,0.19676304693496816
207.651,0.19727191868190008,0.19727191868190008
207.652,0.17121018915974973,0.17121018915974973
207.653,0.12651348615519442,0.12651348615519442
207.654,0.0760935577400097,0.0760935577400097
207.655,0.03413969693823993,0.03413969693823993
207.656,0.01214553876809843,0.01214553876809843
207.657,0.015816834440702587,0.015816834440702587
207.658,0.04371129623104908,0.04371129623104908
207.659,0.08791648481978687,0.08791648481978687
207.66,0.13646554267754385,0.13646554267754385
207.661,0.1767111870077398,0.1767111870077398
207.662,0.1986616112416093,0.1986616112416093
207.663,0.1973723107371197,0.1973723107371197
207.664,0.1738316295658764,0.1738316295658764
207.665,0.13424857163040205,0.13424857163040205
207.666,0.08809676947003164,0.08809676947003164
207.667,0.04556092949271773,0.04556092949271773
207.668,0.015106254297121868,0.015106254297121868
207.669,0.0017570027625704032,0.0017570027625704032
207.67,0.006398868751496645,0.006398868751496645
207.671,0.02611229898396905,0.02611229898396905
207.672,0.05529370280541457,0.05529370280541457
207.673,0.08718577357594803,0.08718577357594803
207.674,0.11542607619661238,0.11542607619661238
207.675,0.13530367851878955,0.13530367851878955
207.676,0.14453647763205635,0.14453647763205635
207.677,0.14350084540712804,0.14350084540712804
207.678,0.1349351029745962,0.1349351029745962
207.679,0.12319857834124903,0.12319857834124903
207.68,0.11321366904134811,0.11321366904134811
207.681,0.1092643216832021,0.1092643216832021
207.682,0.11387146664037107,0.11387146664037107
207.683,0.126996242951962,0.126996242951962
207.684,0.1458058961126505,0.1458058961126505
207.685,0.16515045424919284,0.16515045424919284
207.686,0.1787385960347332,0.1787385960347332
207.687,0.18079898990386023,0.18079898990386023
207.688,0.1678281330260838,0.1678281330260838
207.689,0.13992744590598338,0.13992744590598338
207.69,0.1012752845146303,0.1012752845146303
207.691,0.059476859374904434,0.059476859374904434
207.692,0.023846331562747958,0.023846331562747958
207.693,0.0030128006751504177,0.0030128006751504177
207.694,0.002495811441386886,0.002495811441386886
207.695,0.022971587394366555,0.022971587394366555
207.696,0.059804041555775234,0.059804041555775234
207.697,0.10407152718527724,0.10407152718527724
207.698,0.14487659160797905,0.14487659160797905
207.699,0.17231835961083108,0.17231835961083108
207.7,0.1802700428152193,0.1802700428152193
207.701,0.1681239876437446,0.1681239876437446
207.702,0.14095042478426922,0.14095042478426922
207.703,0.10798444443052513,0.10798444443052513
207.704,0.07986607973396853,0.07986607973396853
207.705,0.0654495733114484,0.0654495733114484
207.706,0.06914272253278653,0.06914272253278653
207.707,0.08958497517899477,0.08958497517899477
207.708,0.12006760179198461,0.12006760179198461
207.709,0.1505663934116832,0.1505663934116832
207.71,0.17076418542123228,0.17076418542123228
207.711,0.1731420806763737,0.1731420806763737
207.712,0.15520721408955107,0.15520721408955107
207.713,0.12020203447964084,0.12020203447964084
207.714,0.0761147522706127,0.0761147522706127
207.715,0.03333098043620297,0.03333098043620297
207.716,0.0016692246307896674,0.0016692246307896674
207.717,0.012294871199155177,-0.012294871199155177
207.718,0.006832388595935379,-0.006832388595935379
207.719,0.014831361793901543,0.014831361793901543
207.72,0.045854806164582707,0.045854806164582707
207.721,0.07807330848273653,0.07807330848273653
207.722,0.104489698558075,0.104489698558075
207.723,0.12118452955180281,0.12118452955180281
207.724,0.1280920166216606,0.1280920166216606
207.725,0.12847353183304966,0.12847353183304966
207.726,0.12734065389418525,0.12734065389418525
207.727,0.12940100538190502,0.12940100538190502
207.728,0.13722632596617057,0.13722632596617057
207.729,0.15024245368308708,0.15024245368308708
207.73,0.16485573247027863,0.16485573247027863
207.731,0.17565595776792087,0.17565595776792087
207.732,0.1772916748337663,0.1772916748337663
207.733,0.16640449842644212,0.16640449842644212
207.734,0.14299477567296415,0.14299477567296415
207.735,0.11076996533125949,0.11076996533125949
207.736,0.07634049134927601,0.07634049134927601
207.737,0.047478925929035354,0.047478925929035354
207.738,0.030942802539625225,0.030942802539625225
207.739,0.030497338138481656,0.030497338138481656
207.74,0.04572481040045284,0.04572481040045284
207.741,0.07198858822970489,0.07198858822970489
207.742,0.1015950527202969,0.1015950527202969
207.743,0.12585723370239865,0.12585723370239865
207.744,0.13750406692314399,0.13750406692314399
207.745,0.13277051287852615,0.13277051287852615
207.746,0.11257712573122758,0.11257712573122758
207.747,0.08244501976962182,0.08244501976962182
207.748,0.05113153642734747,0.05113153642734747
207.749,0.028323143133154982,0.028323143133154982
207.75,0.021990173905111376,0.021990173905111376
207.751,0.03611796162477021,0.03611796162477021
207.752,0.06944625491957424,0.06944625491957424
207.753,0.1155903003542913,0.1155903003542913
207.754,0.1645480810658444,0.1645480810658444
207.755,0.20521736620761488,0.20521736620761488
207.756,0.2282590687823578,0.2282590687823578
207.757,0.22853344164772693,0.22853344164772693
207.758,0.20643942636965318,0.20643942636965318
207.759,0.16778182159183852,0.16778182159183852
207.76,0.12219683326172026,0.12219683326172026
207.761,0.08056984527392386,0.08056984527392386
207.762,0.05216300003024843,0.05216300003024843
207.763,0.04224968108564231,0.04224968108564231
207.764,0.05090245896634649,0.05090245896634649
207.765,0.07324334827016643,0.07324334827016643
207.766,0.10104046905194108,0.10104046905194108
207.767,0.12515103807608874,0.12515103807608874
207.768,0.13808271159049434,0.13808271159049434
207.769,0.13594074602851758,0.13594074602851758
207.77,0.11924401400340634,0.11924401400340634
207.771,0.09245591077303517,0.09245591077303517
207.772,0.062468119318116466,0.062468119318116466
207.773,0.03657086649577179,0.03657086649577179
207.774,0.02055229689004534,0.02055229689004534
207.775,0.01746610902677448,0.01746610902677448
207.776,0.02733707924561468,0.02733707924561468
207.777,0.04773984111928509,0.04773984111928509
207.778,0.07490693583983976,0.07490693583983976
207.779,0.1048928661601154,0.1048928661601154
207.78,0.1343785600572167,0.1343785600572167
207.781,0.16091144789217005,0.16091144789217005
207.782,0.1826494102837739,0.1826494102837739
207.783,0.19789930986674498,0.19789930986674498
207.784,0.20482147030234477,0.20482147030234477
207.785,0.20157665447733408,0.20157665447733408
207.786,0.18696006210293326,0.18696006210293326
207.787,0.16129442944989858,0.16129442944989858
207.788,0.12716006296859828,0.12716006296859828
207.789,0.08951698144953713,0.08951698144953713
207.79,0.05495211506633768,0.05495211506633768
207.791,0.03011082176386415,0.03011082176386415
207.792,0.019728806852572722,0.019728806852572722
207.793,0.024925229187509945,0.024925229187509945
207.794,0.0424372138657807,0.0424372138657807
207.795,0.0652333469824038,0.0652333469824038
207.796,0.08449965104276669,0.08449965104276669
207.797,0.09248988784704193,0.09248988784704193
207.798,0.08535312800255701,0.08535312800255701
207.799,0.06494813323900561,0.06494813323900561
207.8,0.03889273149616157,0.03889273149616157
207.801,0.01862583766542114,0.01862583766542114
207.802,0.015920300154221856,0.015920300154221856
207.803,0.038856868874758366,0.038856868874758366
207.804,0.08854767095445948,0.08854767095445948
207.805,0.15776316099305432,0.15776316099305432
207.806,0.23208516636429044,0.23208516636429044
207.807,0.29343266067101204,0.29343266067101204
207.808,0.32503047284628517,0.32503047284628517
207.809,0.31637165999183314,0.31637165999183314
207.81,0.2666455459459929,0.2666455459459929
207.811,0.18551060004833708,0.18551060004833708
207.812,0.09087064671140221,0.09087064671140221
207.813,0.0042246527572877834,0.0042246527572877834
207.814,0.05508477128848177,-0.05508477128848177
207.815,0.07504514279743935,-0.07504514279743935
207.816,0.05405587940980727,-0.05405587940980727
207.817,0.0010380046209993443,-0.0010380046209993443
207.818,0.0674055134545064,0.0674055134545064
207.819,0.13187178600715543,0.13187178600715543
207.82,0.17558837792644422,0.17558837792644422
207.821,0.1887876832987987,0.1887876832987987
207.822,0.17080970759040603,0.17080970759040603
207.823,0.12946636828072933,0.12946636828072933
207.824,0.07805764587545316,0.07805764587545316
207.825,0.03111767422103151,0.03111767422103151
207.826,0.0002752646233168399,0.0002752646233168399
207.827,0.008539403164072978,-0.008539403164072978
207.828,0.0041549613862004176,0.0041549613862004176
207.829,0.03266326933962116,0.03266326933962116
207.83,0.06873929205804097,0.06873929205804097
207.831,0.10452392651773024,0.10452392651773024
207.832,0.1347719450758853,0.1347719450758853
207.833,0.15770880566582135,0.15770880566582135
207.834,0.17442243842315963,0.17442243842315963
207.835,0.18724179406468822,0.18724179406468822
207.836,0.19788914064263996,0.19788914064263996
207.837,0.20620853005451423,0.20620853005451423
207.838,0.20998223052715925,0.20998223052715925
207.839,0.20587535077472596,0.20587535077472596
207.84,0.19108267097852916,0.19108267097852916
207.841,0.1649677385447652,0.1649677385447652
207.842,0.1299852906684804,0.1299852906684804
207.843,0.09145696619097499,0.09145696619097499
207.844,0.056215950251557345,0.056215950251557345
207.845,0.030577297353060473,0.030577297353060473
207.846,0.018360472489326485,0.018360472489326485
207.847,0.019688692955135645,0.019688692955135645
207.848,0.03101770364465417,0.03101770364465417
207.849,0.046406229661638765,0.046406229661638765
207.85,0.05959387633623314,0.05959387633623314
207.851,0.06616234529671638,0.06616234529671638
207.852,0.06502607744098543,0.06502607744098543
207.853,0.05873671660664592,0.05873671660664592
207.854,0.05250338640214158,0.05250338640214158
207.855,0.05227652547228456,0.05227652547228456
207.856,0.06255930531964382,0.06255930531964382
207.857,0.08469014296205568,0.08469014296205568
207.858,0.11616239292859665,0.11616239292859665
207.859,0.15118417785813154,0.15118417785813154
207.86,0.18226603523499008,0.18226603523499008
207.861,0.20230204171988175,0.20230204171988175
207.862,0.20648602042508224,0.20648602042508224
207.863,0.19350692181731977,0.19350692181731977
207.864,0.16574312172712813,0.16574312172712813
207.865,0.12851344233500095,0.12851344233500095
207.866,0.0887194810211156,0.0887194810211156
207.867,0.05333941065052494,0.05333941065052494
207.868,0.028182824138913265,0.028182824138913265
207.869,0.01713384328301193,0.01713384328301193
207.87,0.0218865589374031,0.0218865589374031
207.871,0.0420104561847634,0.0420104561847634
207.872,0.07513730191237245,0.07513730191237245
207.873,0.1171395702613518,0.1171395702613518
207.874,0.16231995696027646,0.16231995696027646
207.875,0.20376490608320408,0.20376490608320408
207.876,0.2340517890924647,0.2340517890924647
207.877,0.24640255653597665,0.24640255653597665
207.878,0.23617246563051175,0.23617246563051175
207.879,0.20233289062739557,0.20233289062739557
207.88,0.14845854147197657,0.14845854147197657
207.881,0.08274815734810925,0.08274815734810925
207.882,0.016821565834873375,0.016821565834873375
207.883,0.03660420007987042,-0.03660420007987042
207.884,0.06666548973933006,-0.06666548973933006
207.885,0.06715281949529917,-0.06715281949529917
207.886,0.03832849649996162,-0.03832849649996162
207.887,0.01285828068839856,0.01285828068839856
207.888,0.0743409730374931,0.0743409730374931
207.889,0.1319414221769728,0.1319414221769728
207.89,0.17301000553838541,0.17301000553838541
207.891,0.18967611551148833,0.18967611551148833
207.892,0.18077542739235075,0.18077542739235075
207.893,0.1519037781485344,0.1519037781485344
207.894,0.11360551193799773,0.11360551193799773
207.895,0.07825932527970947,0.07825932527970947
207.896,0.05659958935707721,0.05659958935707721
207.897,0.054888484299270734,0.054888484299270734
207.898,0.07351586216594819,0.07351586216594819
207.899,0.10733533389243988,0.10733533389243988
207.9,0.14750543026135898,0.14750543026135898
207.901,0.1841701874429249,0.1841701874429249
207.902,0.20911803314942645,0.20911803314942645
207.903,0.2176491685800359,0.2176491685800359
207.904,0.2092090933232975,0.2092090933232975
207.905,0.18678274920400306,0.18678274920400306
207.906,0.15543499979393038,0.15543499979393038
207.907,0.1206011130004987,0.1206011130004987
207.908,0.08671809897071103,0.08671809897071103
207.909,0.05657251935159202,0.05657251935159202
207.91,0.031420754823877406,0.031420754823877406
207.911,0.011640934841426587,0.011640934841426587
207.912,0.002490517117351043,-0.002490517117351043
207.913,0.01029095696448612,-0.01029095696448612
207.914,0.010654733482521994,-0.010654733482521994
207.915,0.0025044849851801887,-0.0025044849851801887
207.916,0.01452764758621905,0.01452764758621905
207.917,0.039525744013180875,0.039525744013180875
207.918,0.07010825549465194,0.07010825549465194
207.919,0.1027521225179282,0.1027521225179282
207.92,0.13352154704086194,0.13352154704086194
207.921,0.15893456274307205,0.15893456274307205
207.922,0.17665253875479503,0.17665253875479503
207.923,0.1857638615676087,0.1857638615676087
207.924,0.1866124290256419,0.1866124290256419
207.925,0.18031416652237864,0.18031416652237864
207.926,0.16822563478352848,0.16822563478352848
207.927,0.1516246719216614,0.1516246719216614
207.928,0.13173557705168215,0.13173557705168215
207.929,0.11003752148637092,0.11003752148637092
207.93,0.08862356859027809,0.08862356859027809
207.931,0.07031208519299903,0.07031208519299903
207.932,0.058293117907836756,0.058293117907836756
207.933,0.05529718834407582,0.05529718834407582
207.934,0.06252279300729335,0.06252279300729335
207.935,0.07874362514450683,0.07874362514450683
207.936,0.10004494330921765,0.10004494330921765
207.937,0.12047462454412261,0.12047462454412261
207.938,0.13357896272850223,0.13357896272850223
207.939,0.13443441700539283,0.13443441700539283
207.94,0.12152290371997321,0.12152290371997321
207.941,0.09774665160320173,0.09774665160320173
207.942,0.07008616428406866,0.07008616428406866
207.943,0.04782413930755958,0.04782413930755958
207.944,0.039757245368273075,0.039757245368273075
207.945,0.05122222246715724,0.05122222246715724
207.946,0.08191776456755884,0.08191776456755884
207.947,0.12533152511976997,0.12533152511976997
207.948,0.17011590275481958,0.17011590275481958
207.949,0.2031367528520529,0.2031367528520529
207.95,0.21334825815383618,0.21334825815383618
207.951,0.1953219251662175,0.1953219251662175
207.952,0.151300538384727,0.151300538384727
207.953,0.09106122155807528,0.09106122155807528
207.954,0.029532623379931344,0.029532623379931344
207.955,0.017190039229284526,-0.017190039229284526
207.956,0.036278888946049914,-0.036278888946049914
207.957,0.021750703859959253,-0.021750703859959253
207.958,0.02386181968173484,0.02386181968173484
207.959,0.0902127579960672,0.0902127579960672
207.96,0.16196961778669294,0.16196961778669294
207.961,0.2228909042784566,0.2228909042784566
207.962,0.259948532824287,0.259948532824287
207.963,0.2663409046986127,0.2663409046986127
207.964,0.24264476546249059,0.24264476546249059
207.965,0.1959588864623285,0.1959588864623285
207.966,0.13749346662591244,0.13749346662591244
207.967,0.07946309080470115,0.07946309080470115
207.968,0.03223411229579698,0.03223411229579698
207.969,0.002458953802199515,0.002458953802199515
207.97,0.007493911285301191,-0.007493911285301191
207.971,0.0010335175264584162,0.0010335175264584162
207.972,0.02422122821642736,0.02422122821642736
207.973,0.0570778408211392,0.0570778408211392
207.974,0.09437548914642035,0.09437548914642035
207.975,0.13105965179751333,0.13105965179751333
207.976,0.16228809902978392,0.16228809902978392
207.977,0.1834404204150144,0.1834404204150144
207.978,0.19042985311730298,0.19042985311730298
207.979,0.18045298536444543,0.18045298536444543
207.98,0.15302245819014448,0.15302245819014448
207.981,0.11087779749741533,0.11087779749741533
207.982,0.06028145429277809,0.06028145429277809
207.983,0.010338182716093103,0.010338182716093103
207.984,0.028706944816065616,-0.028706944816065616
207.985,0.04784661892572761,-0.04784661892572761
207.986,0.04170889004469913,-0.04170889004469913
207.987,0.010215960185401607,-0.010215960185401607
207.988,0.041088494488561667,0.041088494488561667
207.989,0.10224429790628076,0.10224429790628076
207.99,0.16132372949780915,0.16132372949780915
207.991,0.2074209724791487,0.2074209724791487
207.992,0.23328834806689924,0.23328834806689924
207.993,0.2368342857629644,0.2368342857629644
207.994,0.22107308182722551,0.22107308182722551
207.995,0.1926289864355557,0.1926289864355557
207.996,0.15936712376471052,0.15936712376471052
207.997,0.12798569964216933,0.12798569964216933
207.998,0.10236751229007957,0.10236751229007957
207.999,0.0831721311942919,0.0831721311942919
208.0,0.0686734497546706,0.0686734497546706
208.001,0.056388470462524154,0.056388470462524154
208.002,0.044771587341013275,0.044771587341013275
208.003,0.0342622596683364,0.0342622596683364
208.004,0.027262766823557882,0.027262766823557882
208.005,0.027072460484826033,0.027072460484826033
208.006,0.036240254089676016,0.036240254089676016
208.007,0.0550479759765059,0.0550479759765059
208.008,0.08080380084764838,0.08080380084764838
208.009,0.10831641668462733,0.10831641668462733
208.01,0.13145288185413273,0.13145288185413273
208.011,0.14523626740345574,0.14523626740345574
208.012,0.14768924058095467,0.14768924058095467
208.013,0.14068128950019876,0.14068128950019876
208.014,0.1293816418185394,0.1293816418185394
208.015,0.12043560342919024,0.12043560342919024
208.016,0.11947795508503245,0.11947795508503245
208.017,0.12888311758000714,0.12888311758000714
208.018,0.14661092313673207,0.14661092313673207
208.019,0.16664120029029705,0.16664120029029705
208.02,0.1809242062092713,0.1809242062092713
208.021,0.1822105911906804,0.1822105911906804
208.022,0.1667730571933177,0.1667730571933177
208.023,0.13602932467181317,0.13602932467181317
208.024,0.09643497538957146,0.09643497538957146
208.025,0.05761514313173999,0.05761514313173999
208.026,0.029334029337528378,0.029334029337528378
208.027,0.018332673055875937,0.018332673055875937
208.028,0.026136990398641702,0.026136990398641702
208.029,0.04861574678176028,0.04861574678176028
208.03,0.07746008987326025,0.07746008987326025
208.031,0.10307653740025335,0.10307653740025335
208.032,0.11787778272401561,0.11787778272401561
208.033,0.11880612847914418,0.11880612847914418
208.034,0.10819205077953686,0.10819205077953686
208.035,0.09264455766352886,0.09264455766352886
208.036,0.08038037289428179,0.08038037289428179
208.037,0.07797013928642627,0.07797013928642627
208.038,0.0877030134541128,0.0877030134541128
208.039,0.10656026741052482,0.10656026741052482
208.04,0.1272135467740534,0.1272135467740534
208.041,0.14072671113822222,0.14072671113822222
208.042,0.1400057292081267,0.1400057292081267
208.043,0.12274025877273176,0.12274025877273176
208.044,0.09272824527057999,0.09272824527057999
208.045,0.05902672201657677,0.05902672201657677
208.046,0.03313795471444281,0.03313795471444281
208.047,0.025150478148248556,0.025150478148248556
208.048,0.040155325805320885,0.040155325805320885
208.049,0.07620096647506225,0.07620096647506225
208.05,0.12454819695058683,0.12454819695058683
208.051,0.1722079385893207,0.1722079385893207
208.052,0.2059590382041685,0.2059590382041685
208.053,0.21652359069353722,0.21652359069353722
208.054,0.20150698628238506,0.20150698628238506
208.055,0.16611645316862944,0.16611645316862944
208.056,0.12141733093232343,0.12141733093232343
208.057,0.08071489412983635,0.08071489412983635
208.058,0.05527669009805436,0.05527669009805436
208.059,0.05082163976699117,0.05082163976699117
208.06,0.06592744941739004,0.06592744941739004
208.061,0.09284492906353536,0.09284492906353536
208.062,0.12038724229553477,0.12038724229553477
208.063,0.1378665866917117,0.1378665866917117
208.064,0.1387168237759453,0.1387168237759453
208.065,0.12257732245795094,0.12257732245795094
208.066,0.09516652782579671,0.09516652782579671
208.067,0.06604686382621727,0.06604686382621727
208.068,0.04510638363745234,0.04510638363745234
208.069,0.039009381653238195,0.039009381653238195
208.07,0.04885661988554313,0.04885661988554313
208.071,0.06985760053211787,0.06985760053211787
208.072,0.09311023944788399,0.09311023944788399
208.073,0.10885416572553241,0.10885416572553241
208.074,0.11006205293565019,0.11006205293565019
208.075,0.09512550640092288,0.09512550640092288
208.076,0.06870716488233142,0.06870716488233142
208.077,0.04045402014585786,0.04045402014585786
208.078,0.021982754327680487,0.021982754327680487
208.079,0.02311536829286176,0.02311536829286176
208.08,0.04857861562751786,0.04857861562751786
208.081,0.09621637523257487,0.09621637523257487
208.082,0.15726716966039156,0.15726716966039156
208.083,0.21860300633222907,0.21860300633222907
208.084,0.2662278511442213,0.2662278511442213
208.085,0.2889813858133443,0.2889813858133443
208.086,0.2813832533886642,0.2813832533886642
208.087,0.2448655993795159,0.2448655993795159
208.088,0.18715643550816408,0.18715643550816408
208.089,0.12011782617930744,0.12011782617930744
208.09,0.05674318124762112,0.05674318124762112
208.091,0.00817065503706016,0.00817065503706016
208.092,0.01854149645737302,-0.01854149645737302
208.093,0.021437692205079184,-0.021437692205079184
208.094,0.0034255689875012374,-0.0034255689875012374
208.095,0.028958952226779466,0.028958952226779466
208.096,0.06732825281649446,0.06732825281649446
208.097,0.10328572885601117,0.10328572885601117
208.098,0.1299675732548049,0.1299675732548049
208.099,0.14308353552507258,0.14308353552507258
208.1,0.14140823569087568,0.14140823569087568
208.101,0.12676513460227268,0.12676513460227268
208.102,0.1035707115508453,0.1035707115508453
208.103,0.07799838335205589,0.07799838335205589
208.104,0.05682515553440837,0.05682515553440837
208.105,0.046070104285034885,0.046070104285034885
208.106,0.04962068158991251,0.04962068158991251
208.107,0.06813311613198425,0.06813311613198425
208.108,0.09852976417550208,0.09852976417550208
208.109,0.13434998884016358,0.13434998884016358
208.11,0.16702813803441452,0.16702813803441452
208.111,0.18790846329716548,0.18790846329716548
208.112,0.19054238066586482,0.19054238066586482
208.113,0.17264639380844327,0.17264639380844327
208.114,0.13710833593815996,0.13710833593815996
208.115,0.09164127272824074,0.09164127272824074
208.116,0.047054107702887205,0.047054107702887205
208.117,0.014529151178845012,0.014529151178845012
208.118,0.0026333911850240366,0.0026333911850240366
208.119,0.014922203472135243,0.014922203472135243
208.12,0.04886246151528484,0.04886246151528484
208.121,0.0964327905897091,0.0964327905897091
208.122,0.146260202609251,0.146260202609251
208.123,0.18668154946578563,0.18668154946578563
208.124,0.20882931237058666,0.20882931237058666
208.125,0.20883275396308143,0.20883275396308143
208.126,0.18850503080264525,0.18850503080264525
208.127,0.1543663365179384,0.1543663365179384
208.128,0.11537660563714414,0.11537660563714414
208.129,0.0801469516869402,0.0801469516869402
208.13,0.05453721331167016,0.05453721331167016
208.131,0.0403844830871527,0.0403844830871527
208.132,0.03570229022337146,0.03570229022337146
208.133,0.03618166816112267,0.03618166816112267
208.134,0.037386876679534664,0.037386876679534664
208.135,0.0368178140434503,0.0368178140434503
208.136,0.03508018324097861,0.03508018324097861
208.137,0.03573561518217683,0.03573561518217683
208.138,0.04388027247447601,0.04388027247447601
208.139,0.06395669448255537,0.06395669448255537
208.14,0.09758325992871275,0.09758325992871275
208.141,0.14219418510334858,0.14219418510334858
208.142,0.19101942452382925,0.19101942452382925
208.143,0.23448951464486956,0.23448951464486956
208.144,0.26267636232208913,0.26267636232208913
208.145,0.26803574302282307,0.26803574302282307
208.146,0.2476131649316422,0.2476131649316422
208.147,0.2040413111864825,0.2040413111864825
208.148,0.1450337375954176,0.1450337375954176
208.149,0.08153811062916505,0.08153811062916505
208.15,0.025103340666344343,0.025103340666344343
208.151,0.014782379627351183,-0.014782379627351183
208.152,0.03266468958975277,-0.03266468958975277
208.153,0.027941848937043323,-0.027941848937043323
208.154,0.004433941755751403,-0.004433941755751403
208.155,0.031031375969698516,0.031031375969698516
208.156,0.07051078106031894,0.07051078106031894
208.157,0.10675324753510118,0.10675324753510118
208.158,0.1344852279987332,0.1344852279987332
208.159,0.15097063022616486,0.15097063022616486
208.16,0.15589729446645517,0.15589729446645517
208.161,0.150823738954583,0.150823738954583
208.162,0.13847837615137726,0.13847837615137726
208.163,0.12214013569504312,0.12214013569504312
208.164,0.1051937273152368,0.1051937273152368
208.165,0.09081724086931908,0.09081724086931908
208.166,0.0816886735578537,0.0816886735578537
208.167,0.07962060047232056,0.07962060047232056
208.168,0.08513173355728454,0.08513173355728454
208.169,0.09708595546103505,0.09708595546103505
208.17,0.11260550731660857,0.11260550731660857
208.171,0.127444126931348,0.127444126931348
208.172,0.13687770567955382,0.13687770567955382
208.173,0.1369727367145297,0.1369727367145297
208.174,0.12590124538089364,0.12590124538089364
208.175,0.10486827599800064,0.10486827599800064
208.176,0.07826256062265502,0.07826256062265502
208.177,0.052839793975966165,0.052839793975966165
208.178,0.03604889476068651,0.03604889476068651
208.179,0.03391764707339617,0.03391764707339617
208.18,0.04911540494625832,0.04911540494625832
208.181,0.07982412245340331,0.07982412245340331
208.182,0.11985108978913783,0.11985108978913783
208.183,0.16005603139236468,0.16005603139236468
208.184,0.19075067305790339,0.19075067305790339
208.185,0.2043958231205243,0.2043958231205243
208.186,0.19778580818648805,0.19778580818648805
208.187,0.17302919231804115,0.17302919231804115
208.188,0.1369823112475086,0.1369823112475086
208.189,0.09926516348525949,0.09926516348525949
208.19,0.06943856434290363,0.06943856434290363
208.191,0.05420024896683473,0.05420024896683473
208.192,0.055469933134674854,0.055469933134674854
208.193,0.06996772655145223,0.06996772655145223
208.194,0.09042576499295185,0.09042576499295185
208.195,0.10805522317787353,0.10805522317787353
208.196,0.11548607889772322,0.11548607889772322
208.197,0.10923760316976461,0.10923760316976461
208.198,0.09091861504020593,0.09091861504020593
208.199,0.06675664003253012,0.06675664003253012
208.2,0.04558857963110752,0.04558857963110752
208.201,0.03594226983943871,0.03594226983943871
208.202,0.04313855636489827,0.04313855636489827
208.203,0.0673493523350639,0.0673493523350639
208.204,0.10325451220630932,0.10325451220630932
208.205,0.14144070638572703,0.14144070638572703
208.206,0.1711366649600088,0.1711366649600088
208.207,0.18345493420124015,0.18345493420124015
208.208,0.17414480544992061,0.17414480544992061
208.209,0.14500623301770665,0.14500623301770665
208.21,0.10352389619550095,0.10352389619550095
208.211,0.06082467298396099,0.06082467298396099
208.212,0.028570055061538868,0.028570055061538868
208.213,0.01571002122181775,0.01571002122181775
208.214,0.02605192420133773,0.02605192420133773
208.215,0.05733400190756743,0.05733400190756743
208.216,0.10202612832267466,0.10202612832267466
208.217,0.14955970228687643,0.14955970228687643
208.218,0.18927638888735276,0.18927638888735276
208.219,0.21320542898984263,0.21320542898984263
208.22,0.21787843276680063,0.21787843276680063
208.221,0.2047267042499623,0.2047267042499623
208.222,0.17906385753685594,0.17906385753685594
208.223,0.14808650237025223,0.14808650237025223
208.224,0.11859379321954622,0.11859379321954622
208.225,0.09515593263070965,0.09515593263070965
208.226,0.07925583469075437,0.07925583469075437
208.227,0.06956677293158853,0.06956677293158853
208.228,0.06313894594584424,0.06313894594584424
208.229,0.056980299307187954,0.056980299307187954
208.23,0.04942282372714657,0.04942282372714657
208.231,0.040787402334175216,0.040787402334175216
208.232,0.0331465454320059,0.0331465454320059
208.233,0.029328997398895273,0.029328997398895273
208.234,0.03159020057502726,0.03159020057502726
208.235,0.0404903939685779,0.0404903939685779
208.236,0.05443867451262441,0.05443867451262441
208.237,0.07010876237681019,0.07010876237681019
208.238,0.0836018781104968,0.0836018781104968
208.239,0.09194264282856701,0.09194264282856701
208.24,0.09434977717679738,0.09434977717679738
208.241,0.09277872926411468,0.09277872926411468
208.242,0.09147290173097722,0.09147290173097722
208.243,0.09560388272318376,0.09560388272318376
208.244,0.10941129363461033,0.10941129363461033
208.245,0.1344541588389918,0.1344541588389918
208.246,0.16858462530840734,0.16858462530840734
208.247,0.20604558530247385,0.20604558530247385
208.248,0.23874105827730863,0.23874105827730863
208.249,0.25834654327269724,0.25834654327269724
208.25,0.2586422425607964,0.2586422425607964
208.251,0.2373609491271922,0.2373609491271922
208.252,0.1969775672237919,0.1969775672237919
208.253,0.14418741115302458,0.14418741115302458
208.254,0.08822314936494213,0.08822314936494213
208.255,0.03851557673774231,0.03851557673774231
208.256,0.002396789834477664,0.002396789834477664
208.257,0.016485421039781345,-0.016485421039781345
208.258,0.01861389460934615,-0.01861389460934615
208.259,0.00785159405871394,-0.00785159405871394
208.26,0.010185853634971709,0.010185853634971709
208.261,0.030053862911069373,0.030053862911069373
208.262,0.048056812703741514,0.048056812703741514
208.263,0.06299157182316661,0.06299157182316661
208.264,0.07587928085020157,0.07587928085020157
208.265,0.08886818394595908,0.08886818394595908
208.266,0.10377555864328936,0.10377555864328936
208.267,0.12085069839863083,0.12085069839863083
208.268,0.13824678958489733,0.13824678958489733
208.269,0.1524224986565783,0.1524224986565783
208.27,0.15934854480199045,0.15934854480199045
208.271,0.15609156563855398,0.15609156563855398
208.272,0.14219341664292817,0.14219341664292817
208.273,0.12031371749752573,0.12031371749752573
208.274,0.09584203404650338,0.09584203404650338
208.275,0.07553372766810895,0.07553372766810895
208.276,0.06556259960042765,0.06556259960042765
208.277,0.06959848590211704,0.06959848590211704
208.278,0.087534559988655,0.087534559988655
208.279,0.11529912821594679,0.11529912821594679
208.28,0.14585089610198976,0.14585089610198976
208.281,0.1710842041879792,0.1710842041879792
208.282,0.18408267748711138,0.18408267748711138
208.283,0.1810489818996972,0.1810489818996972
208.284,0.16233929989440044,0.16233929989440044
208.285,0.13230909423901394,0.13230909423901394
208.286,0.09804060025047567,0.09804060025047567
208.287,0.06735555106498259,0.06735555106498259
208.288,0.04671517295745886,0.04671517295745886
208.289,0.03961605747918462,0.03961605747918462
208.29,0.04591106165606318,0.04591106165606318
208.291,0.062183895767108144,0.062183895767108144
208.292,0.08298501209716913,0.08298501209716913
208.293,0.10249651976034713,0.10249651976034713
208.294,0.11610493048902226,0.11610493048902226
208.295,0.12143950014429672,0.12143950014429672
208.296,0.11864239412268685,0.11864239412268685
208.297,0.10989732547615128,0.10989732547615128
208.298,0.09846723286906811,0.09846723286906811
208.299,0.08760980054462375,0.08760980054462375
208.3,0.07972403455395272,0.07972403455395272
208.301,0.07595098697168146,0.07595098697168146
208.302,0.07626350763916667,0.07626350763916667
208.303,0.07990483080685284,0.07990483080685284
208.304,0.08593393782669989,0.08593393782669989
208.305,0.09363565872889246,0.09363565872889246
208.306,0.10264495859767697,0.10264495859767697
208.307,0.11277499726951801,0.11277499726951801
208.308,0.12367006786521806,0.12367006786521806
208.309,0.13447758181921454,0.13447758181921454
208.31,0.1437233137274827,0.1437233137274827
208.311,0.14948930888059886,0.14948930888059886
208.312,0.1498700504479027,0.1498700504479027
208.313,0.14356830583381774,0.14356830583381774
208.314,0.13043012864593306,0.13043012864593306
208.315,0.11172991792421705,0.11172991792421705
208.316,0.09009432463257738,0.09009432463257738
208.317,0.06906747345249431,0.06906747345249431
208.318,0.05242788066361692,0.05242788066361692
208.319,0.04343329624089631,0.04343329624089631
208.32,0.04417548847008845,0.04417548847008845
208.321,0.055178176352989716,0.055178176352989716
208.322,0.07529249072777366,0.07529249072777366
208.323,0.10186773116411163,0.10186773116411163
208.324,0.13112693316037105,0.13112693316037105
208.325,0.158666755163255,0.158666755163255
208.326,0.18002046366842572,0.18002046366842572
208.327,0.19124936178598184,0.19124936178598184
208.328,0.18953850932077176,0.18953850932077176
208.329,0.17375450300128326,0.17375450300128326
208.33,0.14488213374452674,0.14488213374452674
208.331,0.1062158501753403,0.1062158501753403
208.332,0.06317184668429565,0.06317184668429565
208.333,0.022631411375222177,0.022631411375222177
208.334,0.008169830625935681,-0.008169830625935681
208.335,0.023051011156115186,-0.023051011156115186
208.336,0.018303726274895182,-0.018303726274895182
208.337,0.0062456552733853865,0.0062456552733853865
208.338,0.04686659113517222,0.04686659113517222
208.339,0.09644624443781535,0.09644624443781535
208.34,0.1458757934645607,0.1458757934645607
208.341,0.18602382443106635,0.18602382443106635
208.342,0.2098215694906045,0.2098215694906045
208.343,0.21390921850176592,0.21390921850176592
208.344,0.19937611878578032,0.19937611878578032
208.345,0.1713585376474498,0.1713585376474498
208.346,0.13757615560049374,0.13757615560049374
208.347,0.10619953512140468,0.10619953512140468
208.348,0.08364841796809763,0.08364841796809763
208.349,0.0729552307316601,0.0729552307316601
208.35,0.07317147880034303,0.07317147880034303
208.351,0.07998833148757667,0.07998833148757667
208.352,0.08737692694687516,0.08737692694687516
208.353,0.08974056672781172,0.08974056672781172
208.354,0.0839083691484559,0.0839083691484559
208.355,0.07034142484894823,0.07034142484894823
208.356,0.053158562407304766,0.053158562407304766
208.357,0.038949191364402,0.038949191364402
208.358,0.034715597371823614,0.034715597371823614
208.359,0.04556135311612497,0.04556135311612497
208.36,0.07283147770215037,0.07283147770215037
208.361,0.11328571060417247,0.11328571060417247
208.362,0.1595860946852854,0.1595860946852854
208.363,0.20199464122272892,0.20199464122272892
208.364,0.23082184799237893,0.23082184799237893
208.365,0.23894736473484057,0.23894736473484057
208.366,0.22371306516864187,0.22371306516864187
208.367,0.18766894570993653,0.18766894570993653
208.368,0.13797704104978137,0.13797704104978137
208.369,0.08465072094110337,0.08465072094110337
208.37,0.038118707735056656,0.038118707735056656
208.371,0.006768961326641287,0.006768961326641287
208.372,0.004893043751856285,-0.004893043751856285
208.373,0.0029705727951183647,0.0029705727951183647
208.374,0.025942212693176092,0.025942212693176092
208.375,0.05677702624651371,0.05677702624651371
208.376,0.08741319632972,0.08741319632972
208.377,0.11100965554125342,0.11100965554125342
208.378,0.12349094690340445,0.12349094690340445
208.379,0.1242468782727213,0.1242468782727213
208.38,0.11588081515648252,0.11588081515648252
208.381,0.10315374712713887,0.10315374712713887
208.382,0.09146532455404799,0.09146532455404799
208.383,0.08530341007302922,0.08530341007302922
208.384,0.08706683851531416,0.08706683851531416
208.385,0.09653944803887948,0.09653944803887948
208.386,0.11110736677078825,0.11110736677078825
208.387,0.12661666927857507,0.12661666927857507
208.388,0.13861255848704035,0.13861255848704035
208.389,0.14361829804544635,0.14361829804544635
208.39,0.1401167179571936,0.1401167179571936
208.391,0.1289831168280211,0.1289831168280211
208.392,0.11326226470111456,0.11326226470111456
208.393,0.09734912888077862,0.09734912888077862
208.394,0.08578421468715769,0.08578421468715769
208.395,0.08197516128899873,0.08197516128899873
208.396,0.0871822755792262,0.0871822755792262
208.397,0.10004873868931918,0.10004873868931918
208.398,0.11682652307921138,0.11682652307921138
208.399,0.13227455981179048,0.13227455981179048
208.4,0.14102724069438555,0.14102724069438555
208.401,0.13909414361110417,0.13909414361110417
208.402,0.12509462656548243,0.12509462656548243
208.403,0.10087501343556671,0.10087501343556671
208.404,0.07129784763837765,0.07129784763837765
208.405,0.04320166907844736,0.04320166907844736
208.406,0.023754293656496284,0.023754293656496284
208.407,0.01860209909293964,0.01860209909293964
208.408,0.030299299627800202,0.030299299627800202
208.409,0.05745497120820264,0.05745497120820264
208.41,0.09486595494797068,0.09486595494797068
208.411,0.13465039650599508,0.13465039650599508
208.412,0.16812570496840573,0.16812570496840573
208.413,0.1879612605504648,0.1879612605504648
208.414,0.19004305636705987,0.19004305636705987
208.415,0.17454611651647123,0.17454611651647123
208.416,0.14591047003309732,0.14591047003309732
208.417,0.11170637226473357,0.11170637226473357
208.418,0.08067561707836646,0.08067561707836646
208.419,0.06046396513095664,0.06046396513095664
208.42,0.05564949378630568,0.05564949378630568
208.421,0.06659575016841068,0.06659575016841068
208.422,0.0894363347224636,0.0894363347224636
208.423,0.11719001558012643,0.11719001558012643
208.424,0.14169818694134562,0.14169818694134562
208.425,0.15585495825510942,0.15585495825510942
208.426,0.1555254580230765,0.1555254580230765
208.427,0.1406393863115336,0.1406393863115336
208.428,0.11517699025368189,0.11517699025368189
208.429,0.08606770605743885,0.08606770605743885
208.43,0.06131299973927051,0.06131299973927051
208.431,0.04784512913275751,0.04784512913275751
208.432,0.04969085053269029,0.04969085053269029
208.433,0.06691282431787582,0.06691282431787582
208.434,0.09558347086461971,0.09558347086461971
208.435,0.12876994434987843,0.12876994434987843
208.436,0.15825100772719192,0.15825100772719192
208.437,0.17651405723382618,0.17651405723382618
208.438,0.17853343333209115,0.17853343333209115
208.439,0.16291324860578604,0.16291324860578604
208.44,0.1321583480473838,0.1321583480473838
208.441,0.0920612939772798,0.0920612939772798
208.442,0.05040044650554987,0.05040044650554987
208.443,0.01528397998460962,0.01528397998460962
208.444,0.006479970323231665,-0.006479970323231665
208.445,0.010654868999242617,-0.010654868999242617
208.446,0.0037269699041599935,0.0037269699041599935
208.447,0.0343123832131893,0.0343123832131893
208.448,0.07595750754032493,0.07595750754032493
208.449,0.12168317460974043,0.12168317460974043
208.45,0.16385689174444584,0.16385689174444584
208.451,0.19540730263786021,0.19540730263786021
208.452,0.21091030564416524,0.21091030564416524
208.453,0.20742745853900035,0.20742745853900035
208.454,0.1850120593219038,0.1850120593219038
208.455,0.1468224592296501,0.1468224592296501
208.456,0.09880286302576602,0.09880286302576602
208.457,0.0489223043582927,0.0489223043582927
208.458,0.006013988222851596,0.006013988222851596
208.459,0.0216684836743386,-0.0216684836743386
208.46,0.027976464104552345,-0.027976464104552345
208.461,0.010200620759629242,-0.010200620759629242
208.462,0.03008503482154712,0.03008503482154712
208.463,0.08692630819023339,0.08692630819023339
208.464,0.15077558103931477,0.15077558103931477
208.465,0.21011495715734974,0.21011495715734974
208.466,0.2536603223947582,0.2536603223947582
208.467,0.27271228069736897,0.27271228069736897
208.468,0.26312666448150956,0.26312666448150956
208.469,0.22640897279158945,0.22640897279158945
208.47,0.16960262557524275,0.16960262557524275
208.471,0.1039116171175063,0.1039116171175063
208.472,0.042311392522636826,0.042311392522636826
208.473,0.003324300820654158,-0.003324300820654158
208.474,0.024897202066641144,-0.024897202066641144
208.475,0.019890834089438925,-0.019890834089438925
208.476,0.008164300787611323,0.008164300787611323
208.477,0.050708415225100945,0.050708415225100945
208.478,0.0964096308096043,0.0964096308096043
208.479,0.1340831258037436,0.1340831258037436
208.48,0.15550725437209723,0.15550725437209723
208.481,0.1573894924672492,0.1573894924672492
208.482,0.1419604701723265,0.1419604701723265
208.483,0.11604990105090907,0.11604990105090907
208.484,0.08892093832846104,0.08892093832846104
208.485,0.06948926152531154,0.06948926152531154
208.486,0.06372756659078127,0.06372756659078127
208.487,0.07300121665652792,0.07300121665652792
208.488,0.0938088242274957,0.0938088242274957
208.489,0.11898905806401028,0.11898905806401028
208.49,0.14002178125017073,0.14002178125017073
208.491,0.1497259038884584,0.1497259038884584
208.492,0.14453635105151252,0.14453635105151252
208.493,0.1256664987923164,0.1256664987923164
208.494,0.09879578026619451,0.09879578026619451
208.495,0.0723668189111677,0.0723668189111677
208.496,0.054999448239999804,0.054999448239999804
208.497,0.05280230850116019,0.05280230850116019
208.498,0.06740221457170148,0.06740221457170148
208.499,0.09530297375396057,0.09530297375396057
208.5,0.12878963803456278,0.12878963803456278
208.501,0.1581294025925457,0.1581294025925457
208.502,0.17442644674032182,0.17442644674032182
208.503,0.17228436306898898,0.17228436306898898
208.504,0.15147895026657432,0.15147895026657432
208.505,0.11713248837952861,0.11713248837952861
208.506,0.07832245156928774,0.07832245156928774
208.507,0.045520947846195536,0.045520947846195536
208.508,0.02760765363698625,0.02760765363698625
208.509,0.02932564962418782,0.02932564962418782
208.51,0.04991956167214928,0.04991956167214928
208.511,0.0833487308317491,0.0833487308317491
208.512,0.12000882332036311,0.12000882332036311
208.513,0.14945962396059143,0.14945962396059143
208.514,0.16337215412499373,0.16337215412499373
208.515,0.1578555142587299,0.1578555142587299
208.516,0.1345140590390641,0.1345140590390641
208.517,0.09995829295441605,0.09995829295441605
208.518,0.06393598277559409,0.06393598277559409
208.519,0.03663381467170623,0.03663381467170623
208.52,0.02591612794680942,0.02591612794680942
208.521,0.03525978233044702,0.03525978233044702
208.522,0.06292375147527407,0.06292375147527407
208.523,0.1025301808781145,0.1025301808781145
208.524,0.14483937282985626,0.14483937282985626
208.525,0.18018735007132336,0.18018735007132336
208.526,0.20090515952775267,0.20090515952775267
208.527,0.20308605761377718,0.20308605761377718
208.528,0.18728438527529323,0.18728438527529323
208.529,0.15804570153782005,0.15804570153782005
208.53,0.12248631838063706,0.12248631838063706
208.531,0.08837292325166302,0.08837292325166302
208.532,0.062242224897488985,0.062242224897488985
208.533,0.048034809013921764,0.048034809013921764
208.534,0.04652998973256284,0.04652998973256284
208.535,0.05562408279122888,0.05562408279122888
208.536,0.07126750835459883,0.07126750835459883
208.537,0.08872779737481862,0.08872779737481862
208.538,0.10380775057798686,0.10380775057798686
208.539,0.11371688899506283,0.11371688899506283
208.54,0.11743572302122374,0.11743572302122374
208.541,0.11557541730860676,0.11557541730860676
208.542,0.10986998529548408,0.10986998529548408
208.543,0.102509820029276,0.102509820029276
208.544,0.09552393993325081,0.09552393993325081
208.545,0.09035755970631021,0.09035755970631021
208.546,0.08770143841283184,0.08770143841283184
208.547,0.0875440248621453,0.0875440248621453
208.548,0.08936313797083995,0.08936313797083995
208.549,0.09236175370934685,0.09236175370934685
208.55,0.095676449560542,0.095676449560542
208.551,0.09852893979329402,0.09852893979329402
208.552,0.10032898328493345,0.10032898328493345
208.553,0.1007541917012873,0.1007541917012873
208.554,0.09982390442579203,0.09982390442579203
208.555,0.09795808989804855,0.09795808989804855
208.556,0.0959847186309768,0.0959847186309768
208.557,0.09504806395971888,0.09504806395971888
208.558,0.09638703587768194,0.09638703587768194
208.559,0.10099590466497577,0.10099590466497577
208.56,0.10923575461627455,0.10923575461627455
208.561,0.12051151261875148,0.12051151261875148
208.562,0.1331440573299847,0.1331440573299847
208.563,0.14453620690626345,0.14453620690626345
208.564,0.15165709662658644,0.15165709662658644
208.565,0.15177007697908707,0.15177007697908707
208.566,0.14323534489153356,0.14323534489153356
208.567,0.12616324081231634,0.12616324081231634
208.568,0.10270195288042694,0.10270195288042694
208.569,0.07682056492550426,0.07682056492550426
208.57,0.05357900909316915,0.05357900909316915
208.571,0.03802537043595544,0.03802537043595544
208.572,0.033983507341563746,0.033983507341563746
208.573,0.04304969009971504,0.04304969009971504
208.574,0.06408312899691881,0.06408312899691881
208.575,0.09335534867426265,0.09335534867426265
208.576,0.12534789531366974,0.12534789531366974
208.577,0.15400651266893028,0.15400651266893028
208.578,0.1741269808164505,0.1741269808164505
208.579,0.18250532407659859,0.18250532407659859
208.58,0.17854900829104947,0.17854900829104947
208.581,0.16419969100362253,0.16419969100362253
208.582,0.14321719395571586,0.14321719395571586
208.583,0.12005839042235422,0.12005839042235422
208.584,0.0986966168869936,0.0986966168869936
208.585,0.08173152428516173,0.08173152428516173
208.586,0.07003402631627176,0.07003402631627176
208.587,0.06298937398950777,0.06298937398950777
208.588,0.05920193238362548,0.05920193238362548
208.589,0.05737343759288782,0.05737343759288782
208.59,0.05701345493133303,0.05701345493133303
208.591,0.05870581515672324,0.05870581515672324
208.592,0.06381819929600141,0.06381819929600141
208.593,0.07375015932815443,0.07375015932815443
208.594,0.08899702501517437,0.08899702501517437
208.595,0.10839874519078951,0.10839874519078951
208.596,0.12890722163689472,0.12890722163689472
208.597,0.14604821209365926,0.14604821209365926
208.598,0.155021301164723,0.155021301164723
208.599,0.15214866957911322,0.15214866957911322
208.6,0.13622960641976256,0.13622960641976256
208.601,0.10934012968710305,0.10934012968710305
208.602,0.07675089314288175,0.07675089314288175
208.603,0.04588784343500363,0.04588784343500363
208.604,0.024554638099987702,0.024554638099987702
208.605,0.018881525758153606,0.018881525758153606
208.606,0.03158133023156662,0.03158133023156662
208.607,0.06103626694144837,0.06103626694144837
208.608,0.10151950637446938,0.10151950637446938
208.609,0.1445343517359048,0.1445343517359048
208.61,0.1809270061591708,0.1809270061591708
208.611,0.20319603433802524,0.20319603433802524
208.612,0.20735576865338823,0.20735576865338823
208.613,0.19383477643226255,0.19383477643226255
208.614,0.16716865527021474,0.16716865527021474
208.615,0.13459570751343075,0.13459570751343075
208.616,0.10397917787713395,0.10397917787713395
208.617,0.08166597992542401,0.08166597992542401
208.618,0.0708944040850259,0.0708944040850259
208.619,0.0711841518348102,0.0711841518348102
208.62,0.07883874294751836,0.07883874294751836
208.621,0.08835746796853594,0.08835746796853594
208.622,0.09429319419417381,0.09429319419417381
208.623,0.09298036443514945,0.09298036443514945
208.624,0.08362330241007498,0.08362330241007498
208.625,0.06845159757621544,0.06845159757621544
208.626,0.05194442067003835,0.05194442067003835
208.627,0.03940527422911533,0.03940527422911533
208.628,0.035347910258825666,0.035347910258825666
208.629,0.04218315874670542,0.04218315874670542
208.63,0.059574779009392564,0.059574779009392564
208.631,0.08460691899547945,0.08460691899547945
208.632,0.11265304620722416,0.11265304620722416
208.633,0.13863687153585036,0.13863687153585036
208.634,0.1582881958204121,0.1582881958204121
208.635,0.1690394008714715,0.1690394008714715
208.636,0.17035676352927842,0.17035676352927842
208.637,0.16349769309583606,0.16349769309583606
208.638,0.15086175371301191,0.15086175371301191
208.639,0.13520358940141852,0.13520358940141852
208.64,0.11897378977284712,0.11897378977284712
208.641,0.10396081815343505,0.10396081815343505
208.642,0.09126578271707109,0.09126578271707109
208.643,0.08150852900029926,0.08150852900029926
208.644,0.07508777545857725,0.07508777545857725
208.645,0.07232471691672204,0.07232471691672204
208.646,0.073400862006614,0.073400862006614
208.647,0.07812026465289268,0.07812026465289268
208.648,0.08563279978230076,0.08563279978230076
208.649,0.09430286224812856,0.09430286224812856
208.65,0.10187356736450504,0.10187356736450504
208.651,0.10596874579253135,0.10596874579253135
208.652,0.10483173865715267,0.10483173865715267
208.653,0.098075432160176,0.098075432160176
208.654,0.08716313162754297,0.08716313162754297
208.655,0.07538365048738793,0.07538365048738793
208.656,0.06722146188808487,0.06722146188808487
208.657,0.06721499206583892,0.06721499206583892
208.658,0.0785818006717045,0.0785818006717045
208.659,0.10200460052200189,0.10200460052200189
208.66,0.13497187040621905,0.13497187040621905
208.661,0.17194125298437068,0.17194125298437068
208.662,0.2053731380983035,0.2053731380983035
208.663,0.22742822213166813,0.22742822213166813
208.664,0.23191259525995678,0.23191259525995678
208.665,0.21595351583364497,0.21595351583364497
208.666,0.18093414802963936,0.18093414802963936
208.667,0.1323990158786803,0.1323990158786803
208.668,0.07891480304338128,0.07891480304338128
208.669,0.030156502117111517,0.030156502117111517
208.67,0.005295442958502594,-0.005295442958502594
208.671,0.021878517107841722,-0.021878517107841722
208.672,0.01819846232208122,-0.01819846232208122
208.673,0.002875157885229296,0.002875157885229296
208.674,0.03516160336179963,0.03516160336179963
208.675,0.07088107295814328,0.07088107295814328
208.676,0.10264158852795568,0.10264158852795568
208.677,0.12516052000742572,0.12516052000742572
208.678,0.13627855997610094,0.13627855997610094
208.679,0.13704330578158763,0.13704330578158763
208.68,0.13091366452834352,0.13091366452834352
208.681,0.12238378895521596,0.12238378895521596
208.682,0.11547461650574697,0.11547461650574697
208.683,0.11255154076698348,0.11255154076698348
208.684,0.11379991361901243,0.11379991361901243
208.685,0.11746873545833614,0.11746873545833614
208.686,0.12074736427443744,0.12074736427443744
208.687,0.1209464536287308,0.1209464536287308
208.688,0.1165711707845487,0.1165711707845487
208.689,0.10792533415029126,0.10792533415029126
208.69,0.09705067600541906,0.09705067600541906
208.691,0.08703138433368673,0.08703138433368673
208.692,0.08090727755554483,0.08090727755554483
208.693,0.08057079463940808,0.08057079463940808
208.694,0.08603095977106046,0.08603095977106046
208.695,0.09530875267232752,0.09530875267232752
208.696,0.10502071805439983,0.10502071805439983
208.697,0.11147790459354412,0.11147790459354412
208.698,0.11194988273708595,0.11194988273708595
208.699,0.10567724795736089,0.10567724795736089
208.7,0.09428433832850303,0.09428433832850303
208.701,0.08142753665550084,0.08142753665550084
208.702,0.07175667907047623,0.07175667907047623
208.703,0.06949110244098522,0.06949110244098522
208.704,0.07704548495071162,0.07704548495071162
208.705,0.09413924025775167,0.09413924025775167
208.706,0.11768453014910585,0.11768453014910585
208.707,0.1425133911563219,0.1425133911563219
208.708,0.16274654713384296,0.16274654713384296
208.709,0.17340606338065645,0.17340606338065645
208.71,0.17179459993134594,0.17179459993134594
208.711,0.15823141565491272,0.15823141565491272
208.712,0.13592903860756356,0.13592903860756356
208.713,0.11005433819885702,0.11005433819885702
208.714,0.08626253493346314,0.08626253493346314
208.715,0.0691464512422375,0.0691464512422375
208.716,0.06105927136496914,0.06105927136496914
208.717,0.06164439888479434,0.06164439888479434
208.718,0.06818221556140025,0.06818221556140025
208.719,0.07661269920438585,0.07661269920438585
208.72,0.08289393580410387,0.08289393580410387
208.721,0.084270023581422,0.084270023581422
208.722,0.08007066530851126,0.08007066530851126
208.723,0.07182795567406242,0.07182795567406242
208.724,0.06271682785226607,0.06271682785226607
208.725,0.05653157220209204,0.05653157220209204
208.726,0.05653729834119914,0.05653729834119914
