Czas,AbsSum,Sum
206.303,0.03321040809619807,-0.03321040809619807
206.304,0.02890729188783767,-0.02890729188783767
206.305,0.0194374241509049,-0.0194374241509049
206.306,0.007195693673370741,-0.007195693673370741
206.30700000000002,0.004808202086814947,0.004808202086814947
206.30800000000002,0.013846920472507492,0.013846920472507492
206.309,0.018246980813490635,0.018246980813490635
206.31,0.017803170696788335,0.017803170696788335
206.311,0.013724905175994897,0.013724905175994897
206.312,0.008154117356096318,0.008154117356096318
206.31300000000002,0.0034259658874067405,0.0034259658874067405
206.31400000000002,0.0013157033297357794,0.0013157033297357794
206.315,0.0025073664253320266,0.0025073664253320266
206.316,0.006438662615602757,0.006438662615602757
206.317,0.011550719802394253,0.011550719802394253
206.318,0.015843050758287666,0.015843050758287666
206.31900000000002,0.017543669443047135,0.017543669443047135
206.32000000000002,0.01567820270740103,0.01567820270740103
206.321,0.010364788399901419,0.010364788399901419
206.322,0.002756277975748603,0.002756277975748603
206.323,0.005334773473573136,-0.005334773473573136
206.324,0.011996328408476765,-0.011996328408476765
206.32500000000002,0.0157802873890205,-0.0157802873890205
206.32600000000002,0.016096402052052147,-0.016096402052052147
206.327,0.013326163939338949,-0.013326163939338949
206.328,0.008638782607317617,-0.008638782607317617
206.329,0.0035839669486197536,-0.0035839669486197536
206.33,0.00039975815968818813,0.00039975815968818813
206.33100000000002,0.002404999416870301,0.002404999416870301
206.33200000000002,0.0022791499662456853,0.0022791499662456853
206.333,0.0005953273880140049,0.0005953273880140049
206.334,0.0016041962022578433,-0.0016041962022578433
206.335,0.003197466422060333,-0.003197466422060333
206.336,0.00337401672075392,-0.00337401672075392
206.33700000000002,0.0019022606415130892,-0.0019022606415130892
206.33800000000002,0.000808025978003022,0.000808025978003022
206.339,0.003861451422530809,0.003861451422530809
206.34,0.006194555690991609,0.006194555690991609
206.341,0.006948371366630229,0.006948371366630229
206.342,0.005773105963483633,0.005773105963483633
206.34300000000002,0.0029645079044988407,0.0029645079044988407
206.34400000000002,0.0006147591117867551,-0.0006147591117867551
206.345,0.00380683328329289,-0.00380683328329289
206.346,0.005539056958861689,-0.005539056958861689
206.347,0.005191437252092473,-0.005191437252092473
206.348,0.0028295644459560895,-0.0028295644459560895
206.34900000000002,0.0007802524936247154,0.0007802524936247154
206.35000000000002,0.0043905857317901,0.0043905857317901
206.351,0.006669220150042834,0.006669220150042834
206.352,0.0066534056175716946,0.0066534056175716946
206.353,0.004116319074964798,0.004116319074964798
206.354,0.00028238444457294676,-0.00028238444457294676
206.35500000000002,0.0051303855955717875,-0.0051303855955717875
206.35600000000002,0.008663202675196787,-0.008663202675196787
206.357,0.009326149997536785,-0.009326149997536785
206.358,0.006331026005250315,-0.006331026005250315
206.359,2.695834803199624e-05,-2.695834803199624e-05
206.36,0.008052927526422808,0.008052927526422808
206.36100000000002,0.015517535893765673,0.015517535893765673
206.36200000000002,0.019751915980579706,0.019751915980579706
206.363,0.018692128342916503,0.018692128342916503
206.364,0.011514492347729936,0.011514492347729936
206.365,0.0009802405264209993,-0.0009802405264209993
206.366,0.016431187112123106,-0.016431187112123106
206.36700000000002,0.03144676966836672,-0.03144676966836672
206.368,0.04247449652879897,-0.04247449652879897
206.369,0.046773457567485494,-0.046773457567485494
206.37,0.043205114960604196,-0.043205114960604196
206.371,0.0325963376127464,-0.0325963376127464
206.372,0.01754556734106152,-0.01754556734106152
206.37300000000002,0.001706614698206796,-0.001706614698206796
206.374,0.011253773306585245,0.011253773306585245
206.375,0.01871959181826707,0.01871959181826707
206.376,0.019886404103565628,0.019886404103565628
206.377,0.015976246642578837,0.015976246642578837
206.37800000000001,0.00982393806196165,0.00982393806196165
206.37900000000002,0.004944966470838343,0.004944966470838343
206.38,0.004361163042816483,0.004361163042816483
206.381,0.009546308167902936,0.009546308167902936
206.382,0.019829603535370943,0.019829603535370943
206.383,0.032464203238742294,0.032464203238742294
206.38400000000001,0.04336807719823697,0.04336807719823697
206.38500000000002,0.04833569243127876,0.04833569243127876
206.386,0.04436617788001811,0.04436617788001811
206.387,0.030705751211611093,0.030705751211611093
206.388,0.009276494304219916,0.009276494304219916
206.389,0.01566043447076256,-0.01566043447076256
206.39000000000001,0.0385337930877528,-0.0385337930877528
206.39100000000002,0.05390383724206751,-0.05390383724206751
206.392,0.057912499937729324,-0.057912499937729324
206.393,0.04933347140298438,-0.04933347140298438
206.394,0.02992934236991323,-0.02992934236991323
206.395,0.004023331387623,-0.004023331387623
206.39600000000002,0.02258346720659592,0.02258346720659592
206.39700000000002,0.04403918661809291,0.04403918661809291
206.398,0.05581958001575222,0.05581958001575222
206.399,0.055698883825652315,0.055698883825652315
206.4,0.04408996329560439,0.04408996329560439
206.401,0.02372132538442983,0.02372132538442983
206.40200000000002,0.001196366372547782,-0.001196366372547782
206.40300000000002,0.026037834696339166,-0.026037834696339166
206.404,0.04675849113489028,-0.04675849113489028
206.405,0.06057588908166567,-0.06057588908166567
206.406,0.06622513316683945,-0.06622513316683945
206.407,0.06382166681918987,-0.06382166681918987
206.40800000000002,0.05447687286834178,-0.05447687286834178
206.40900000000002,0.03985627000779777,-0.03985627000779777
206.41,0.02183924351471174,-0.02183924351471174
206.411,0.0023532743404194416,-0.0023532743404194416
206.412,0.016646553786328695,0.016646553786328695
206.413,0.03315775866840639,0.03315775866840639
206.41400000000002,0.045194404685598204,0.045194404685598204
206.41500000000002,0.05101425287508323,0.05101425287508323
206.416,0.049499269744685125,0.049499269744685125
206.417,0.04058290802485113,0.04058290802485113
206.418,0.025555003979599106,0.025555003979599106
206.419,0.0070767147714177565,0.0070767147714177565
206.42000000000002,0.01118987480635784,-0.01118987480635784
206.42100000000002,0.025310488586441707,-0.025310488586441707
206.422,0.0320073136967125,-0.0320073136967125
206.423,0.029536223657301908,-0.029536223657301908
206.424,0.018243962291322524,-0.018243962291322524
206.425,0.0006079550729334549,-0.0006079550729334549
206.42600000000002,0.01929599442597134,0.01929599442597134
206.42700000000002,0.03678171810915918,0.03678171810915918
206.428,0.04773504955952764,0.04773504955952764
206.429,0.04965903765986206,0.04965903765986206
206.43,0.042281024815151086,0.042281024815151086
206.431,0.0275455355102311,0.0275455355102311
206.43200000000002,0.00899902586024164,0.00899902586024164
206.43300000000002,0.00924484479635936,-0.00924484479635936
206.434,0.02364555149327202,-0.02364555149327202
206.435,0.03214020671895018,-0.03214020671895018
206.436,0.034550039901499095,-0.034550039901499095
206.437,0.03238759664612982,-0.03238759664612982
206.43800000000002,0.028154421705357417,-0.028154421705357417
206.43900000000002,0.02437868830276522,-0.02437868830276522
206.44,0.02271930293623196,-0.02271930293623196
206.441,0.023432951217138797,-0.023432951217138797
206.442,0.025373696861154534,-0.025373696861154534
206.443,0.0265129762775595,-0.0265129762775595
206.44400000000002,0.024790971690808905,-0.024790971690808905
206.44500000000002,0.018996724239842756,-0.018996724239842756
206.446,0.009361787351176756,-0.009361787351176756
206.447,0.0023543594966192205,0.0023543594966192205
206.448,0.013339262421008628,0.013339262421008628
206.449,0.02062401686543047,0.02062401686543047
206.45000000000002,0.0221129547945265,0.0221129547945265
206.45100000000002,0.017399796976109914,0.017399796976109914
206.452,0.008077860487931923,0.008077860487931923
206.453,0.002595854231997699,-0.002595854231997699
206.454,0.010618952633016217,-0.010618952633016217
206.455,0.012488558394810284,-0.012488558394810284
206.45600000000002,0.006398106896414194,-0.006398106896414194
206.45700000000002,0.00699520836919752,0.00699520836919752
206.458,0.024502184677666978,0.024502184677666978
206.459,0.04110389900215049,0.04110389900215049
206.46,0.05126801574342314,0.05126801574342314
206.461,0.05053282596883353,0.05053282596883353
206.46200000000002,0.03691801684951283,0.03691801684951283
206.46300000000002,0.011750987607734225,0.011750987607734225
206.464,0.020354766844582976,-0.020354766844582976
206.465,0.05240774084507829,-0.05240774084507829
206.466,0.0766319192725675,-0.0766319192725675
206.467,0.08635671251786538,-0.08635671251786538
206.46800000000002,0.07772919597870138,-0.07772919597870138
206.46900000000002,0.05081408863078665,-0.05081408863078665
206.47,0.009798650485420272,-0.009798650485420272
206.471,0.03775869887629956,0.03775869887629956
206.472,0.0824649982705482,0.0824649982705482
206.473,0.11506003019784941,0.11506003019784941
206.47400000000002,0.1283683876785557,0.1283683876785557
206.47500000000002,0.11880850773129263,0.11880850773129263
206.476,0.08714667904230675,0.08714667904230675
206.477,0.03836270741347702,0.03836270741347702
206.478,0.01931140587555512,-0.01931140587555512
206.479,0.07595328227286462,-0.07595328227286462
206.48000000000002,0.12178330046572158,-0.12178330046572158
206.48100000000002,0.14891355794736447,-0.14891355794736447
206.482,0.15270191691681947,-0.15270191691681947
206.483,0.13249652502363982,-0.13249652502363982
206.484,0.09167748004689064,-0.09167748004689064
206.485,0.037023652731082664,-0.037023652731082664
206.48600000000002,0.022464519046979627,0.022464519046979627
206.48700000000002,0.07708160895673996,0.07708160895673996
206.488,0.1180272781652773,0.1180272781652773
206.489,0.13885540542255823,0.13885540542255823
206.49,0.1365310829447035,0.1365310829447035
206.491,0.1119185969389306,0.1119185969389306
206.49200000000002,0.0696067837173129,0.0696067837173129
206.493,0.01708414816596906,0.01708414816596906
206.494,0.03660809074220363,-0.03660809074220363
206.495,0.08251130904685763,-0.08251130904685763
206.496,0.11336818507263297,-0.11336818507263297
206.497,0.12490497926767774,-0.12490497926767774
206.49800000000002,0.11651149261820384,-0.11651149261820384
206.499,0.09117198898395608,-0.09117198898395608
206.5,0.05466284847803688,-0.05466284847803688
206.501,0.01420142844833822,-0.01420142844833822
206.502,0.023137842695397554,0.023137842695397554
206.50300000000001,0.05186721267305127,0.05186721267305127
206.50400000000002,0.0690536477684765,0.0690536477684765
206.505,0.07460140691704181,0.07460140691704181
206.506,0.0708218197912921,0.0708218197912921
206.507,0.061452195901595855,0.061452195901595855
206.508,0.050428027542829615,0.050428027542829615
206.50900000000001,0.04076631050929924,0.04076631050929924
206.51000000000002,0.03386695393103494,0.03386695393103494
206.511,0.029399426648602393,0.029399426648602393
206.512,0.025756088482991168,0.025756088482991168
206.513,0.0208798132635213,0.0208798132635213
206.514,0.013165820361945609,0.013165820361945609
206.51500000000001,0.0021294469009730524,0.0021294469009730524
206.51600000000002,0.011375804934742575,-0.011375804934742575
206.517,0.02544387788142496,-0.02544387788142496
206.518,0.03778307481991464,-0.03778307481991464
206.519,0.04651072764141237,-0.04651072764141237
206.52,0.05078069947912071,-0.05078069947912071
206.52100000000002,0.05101175783042177,-0.05101175783042177
206.52200000000002,0.04863093527264211,-0.04863093527264211
206.523,0.045424869204459435,-0.045424869204459435
206.524,0.04274103299694525,-0.04274103299694525
206.525,0.040845954591489556,-0.040845954591489556
206.526,0.03870303479051854,-0.03870303479051854
206.52700000000002,0.03429018104613689,-0.03429018104613689
206.52800000000002,0.025383730981016206,-0.025383730981016206
206.529,0.010556457081806888,-0.010556457081806888
206.53,0.00996224917005271,0.00996224917005271
206.531,0.033897372444507,0.033897372444507
206.532,0.05720695570420452,0.05720695570420452
206.53300000000002,0.07501048398096818,0.07501048398096818
206.53400000000002,0.08292594799729432,0.08292594799729432
206.535,0.07841811185419478,0.07841811185419478
206.536,0.0617265973410401,0.0617265973410401
206.537,0.0360483005091022,0.0360483005091022
206.538,0.006865861487109967,0.006865861487109967
206.53900000000002,0.019423842130081255,-0.019423842130081255
206.54000000000002,0.03720307801254245,-0.03720307801254245
206.541,0.043157527887770365,-0.043157527887770365
206.542,0.03717769754459398,-0.03717769754459398
206.543,0.022362444546773344,-0.022362444546773344
206.544,0.00411569099426528,-0.00411569099426528
206.54500000000002,0.011401686060558294,0.011401686060558294
206.54600000000002,0.019011557116354494,0.019011557116354494
206.547,0.015944369261505525,0.015944369261505525
206.548,0.0025474887550062013,0.0025474887550062013
206.549,0.017905320468704914,-0.017905320468704914
206.55,0.04021324942461904,-0.04021324942461904
206.55100000000002,0.058731357129585535,-0.058731357129585535
206.55200000000002,0.0688845730180889,-0.0688845730180889
206.553,0.06827677080244691,-0.06827677080244691
206.554,0.0571078663277382,-0.0571078663277382
206.555,0.037840470514231304,-0.037840470514231304
206.556,0.014289618007151924,-0.014289618007151924
206.55700000000002,0.009529429594480306,0.009529429594480306
206.55800000000002,0.030416989275963202,0.030416989275963202
206.559,0.0465717473589208,0.0465717473589208
206.56,0.05761614674045994,0.05761614674045994
206.561,0.06414016806843045,0.06414016806843045
206.562,0.06699876660466256,0.06699876660466256
206.56300000000002,0.06666539786938012,0.06666539786938012
206.56400000000002,0.06290098671170033,0.06290098671170033
206.565,0.05486457115192135,0.05486457115192135
206.566,0.04161857976532849,0.04161857976532849
206.567,0.02282976617544421,0.02282976617544421
206.568,0.0006119109004776096,-0.0006119109004776096
206.56900000000002,0.02631450816571323,-0.02631450816571323
206.57000000000002,0.0505941709902272,-0.0505941709902272
206.571,0.06916222468670019,-0.06916222468670019
206.572,0.07811942135676792,-0.07811942135676792
206.573,0.07498293363552457,-0.07498293363552457
206.574,0.05945220249503485,-0.05945220249503485
206.57500000000002,0.03368853583803034,-0.03368853583803034
206.57600000000002,0.002016115558259129,-0.002016115558259129
206.577,0.0298933100722077,0.0298933100722077
206.578,0.056158624124748195,0.056158624124748195
206.579,0.07188367663820656,0.07188367663820656
206.58,0.07413972772077769,0.07413972772077769
206.58100000000002,0.062531224117228,0.062531224117228
206.58200000000002,0.03924413532717651,0.03924413532717651
206.583,0.008590458399451094,0.008590458399451094
206.584,0.023839706289636196,-0.023839706289636196
206.585,0.052242784911328256,-0.052242784911328256
206.586,0.07168158125514007,-0.07168158125514007
206.58700000000002,0.07898775724722165,-0.07898775724722165
206.58800000000002,0.07333003966788744,-0.07333003966788744
206.589,0.05634634309034445,-0.05634634309034445
206.59,0.0318072437832724,-0.0318072437832724
206.591,0.004856999209048144,-0.004856999209048144
206.592,0.019040766212553864,0.019040766212553864
206.59300000000002,0.03525519828459111,0.03525519828459111
206.59400000000002,0.04099845116388218,0.04099845116388218
206.595,0.035958409844935,0.035958409844935
206.596,0.022379930448264824,0.022379930448264824
206.597,0.004536684478133248,0.004536684478133248
206.598,0.012315257685161285,-0.012315257685161285
206.59900000000002,0.023266145525581056,-0.023266145525581056
206.60000000000002,0.02503071846526662,-0.02503071846526662
206.601,0.016830274711016103,-0.016830274711016103
206.602,0.0006194620888222834,-0.0006194620888222834
206.603,0.01943099328696418,0.01943099328696418
206.604,0.03807415457688841,0.03807415457688841
206.60500000000002,0.05043973081957823,0.05043973081957823
206.60600000000002,0.053385108805233984,0.053385108805233984
206.607,0.046346517634544594,0.046346517634544594
206.608,0.03143317472400891,0.03143317472400891
206.609,0.012733832950095714,0.012733832950095714
206.61,0.004951569407084863,-0.004951569407084863
206.61100000000002,0.017560620478429056,-0.017560620478429056
206.61200000000002,0.02294400693779538,-0.02294400693779538
206.613,0.021401309917409645,-0.021401309917409645
206.614,0.0154179731766466,-0.0154179731766466
206.615,0.008706059455300312,-0.008706059455300312
206.616,0.004880260995860835,-0.004880260995860835
206.61700000000002,0.006218729579014624,-0.006218729579014624
206.618,0.012923941867792076,-0.012923941867792076
206.619,0.023122158879243005,-0.023122158879243005
206.62,0.03358099779206552,-0.03358099779206552
206.621,0.04087322433262379,-0.04087322433262379
206.622,0.042560188220446,-0.042560188220446
206.62300000000002,0.03796682076744282,-0.03796682076744282
206.624,0.028274493927713317,-0.028274493927713317
206.625,0.015914675734187533,-0.015914675734187533
206.626,0.0035128509358031764,-0.0035128509358031764
206.627,0.007190257266885101,0.007190257266885101
206.62800000000001,0.01599408788202032,0.01599408788202032
206.62900000000002,0.024177295693722674,0.024177295693722674
206.63,0.033702974735798336,0.033702974735798336
206.631,0.04597253698746926,0.04597253698746926
206.632,0.06062264107218694,0.06062264107218694
206.633,0.07489671536141611,0.07489671536141611
206.63400000000001,0.0839573788616098,0.0839573788616098
206.63500000000002,0.08218354170670243,0.08218354170670243
206.636,0.06512223295453347,0.06512223295453347
206.637,0.03147294356493885,0.03147294356493885
206.638,0.015615053138735721,-0.015615053138735721
206.639,0.06850180174645014,-0.06850180174645014
206.64000000000001,0.11647500110956739,-0.11647500110956739
206.64100000000002,0.14835654369102186,-0.14835654369102186
206.642,0.15559947108752273,-0.15559947108752273
206.643,0.13494695600805495,-0.13494695600805495
206.644,0.08978281208200267,-0.08978281208200267
206.645,0.029650348634315187,-0.029650348634315187
206.64600000000002,0.032042704565960464,0.032042704565960464
206.64700000000002,0.08154645963487397,0.08154645963487397
206.648,0.10851781710022175,0.10851781710022175
206.649,0.10887839271925759,0.10887839271925759
206.65,0.08589396883110888,0.08589396883110888
206.651,0.04910600433528906,0.04910600433528906
206.65200000000002,0.011396756679252272,0.011396756679252272
206.65300000000002,0.014948824377357147,-0.014948824377357147
206.654,0.021995032896349815,-0.021995032896349815
206.655,0.008569913112776549,-0.008569913112776549
206.656,0.01941114186857887,0.01941114186857887
206.657,0.05082788386478737,0.05082788386478737
206.65800000000002,0.0728774010030974,0.0728774010030974
206.65900000000002,0.07515807947264679,0.07515807947264679
206.66,0.053057513102752175,0.053057513102752175
206.661,0.009396307020051632,0.009396307020051632
206.662,0.04618532308926972,-0.04618532308926972
206.663,0.09991792170893668,-0.09991792170893668
206.66400000000002,0.13785447008009621,-0.13785447008009621
206.66500000000002,0.14988739559327108,-0.14988739559327108
206.666,0.1326257355163937,-0.1326257355163937
206.667,0.09028799865847727,-0.09028799865847727
206.668,0.03338019697070101,-0.03338019697070101
206.669,0.02439836026707085,0.02439836026707085
206.67000000000002,0.07005569401321196,0.07005569401321196
206.67100000000002,0.09483325302629843,0.09483325302629843
206.672,0.0963281333376806,0.0963281333376806
206.673,0.07864340034300508,0.07864340034300508
206.674,0.050617681835554616,0.050617681835554616
206.675,0.022765795702483983,0.022765795702483983
206.67600000000002,0.003926109452698785,0.003926109452698785
206.67700000000002,0.0013468079115056771,-0.0013468079115056771
206.678,0.006115605131709686,0.006115605131709686
206.679,0.02075816294605346,0.02075816294605346
206.68,0.034430549316557216,0.034430549316557216
206.681,0.03924537570041994,0.03924537570041994
206.68200000000002,0.03023926639008644,0.03023926639008644
206.68300000000002,0.007017061461047964,0.007017061461047964
206.684,0.02608626865571378,-0.02608626865571378
206.685,0.06131191043922283,-0.06131191043922283
206.686,0.08978863233379525,-0.08978863233379525
206.687,0.10410517965661226,-0.10410517965661226
206.68800000000002,0.10036323534123158,-0.10036323534123158
206.68900000000002,0.07913505798217542,-0.07913505798217542
206.69,0.045116146299291816,-0.045116146299291816
206.691,0.005666940808225013,-0.005666940808225013
206.692,0.03124868476848885,0.03124868476848885
206.693,0.059086474066177265,0.059086474066177265
206.69400000000002,0.074137266370213,0.074137266370213
206.69500000000002,0.07600441700622748,0.07600441700622748
206.696,0.0671279773818354,0.0671279773818354
206.697,0.05162653650920719,0.05162653650920719
206.698,0.03389749922114819,0.03389749922114819
206.699,0.017428653078144236,0.017428653078144236
206.70000000000002,0.0041415378715010005,0.0041415378715010005
206.70100000000002,0.005630554915325997,-0.005630554915325997
206.702,0.012649045440141376,-0.012649045440141376
206.703,0.01803209638966348,-0.01803209638966348
206.704,0.022582510936446473,-0.022582510936446473
206.705,0.026418162698811105,-0.026418162698811105
206.70600000000002,0.028994097019119848,-0.028994097019119848
206.70700000000002,0.029444874073594068,-0.029444874073594068
206.708,0.0270615759095609,-0.0270615759095609
206.709,0.021687252573785985,-0.021687252573785985
206.71,0.013870636432823978,-0.013870636432823978
206.711,0.004731464359818414,-0.004731464359818414
206.71200000000002,0.0043869115780502685,0.0043869115780502685
206.71300000000002,0.012319449295202782,0.012319449295202782
206.714,0.018365485392059486,0.018365485392059486
206.715,0.02234814169305143,0.02234814169305143
206.716,0.024440813468408554,0.024440813468408554
206.717,0.024859941654730853,0.024859941654730853
206.71800000000002,0.02358572593722699,0.02358572593722699
206.71900000000002,0.02026513930206126,0.02026513930206126
206.72,0.014375397715374669,0.014375397715374669
206.721,0.00560938053712984,0.00560938053712984
206.722,0.0056668802362881835,-0.0056668802362881835
206.723,0.01809459507445172,-0.01809459507445172
206.72400000000002,0.02933037444110784,-0.02933037444110784
206.72500000000002,0.03647179958240755,-0.03647179958240755
206.726,0.03684001336227118,-0.03684001336227118
206.727,0.028910339947062207,-0.028910339947062207
206.728,0.013089687042562175,-0.013089687042562175
206.729,0.007957234297182671,0.007957234297182671
206.73000000000002,0.029623255497367194,0.029623255497367194
206.73100000000002,0.04632072870423591,0.04632072870423591
206.732,0.05288712973575366,0.05288712973575366
206.733,0.046067033622486785,0.046067033622486785
206.734,0.025639595799736122,0.025639595799736122
206.735,0.005174382874938569,-0.005174382874938569
206.73600000000002,0.04020961164850332,-0.04020961164850332
206.73700000000002,0.0716910846101768,-0.0716910846101768
206.738,0.09209371733416548,-0.09209371733416548
206.739,0.09604661553021471,-0.09604661553021471
206.74,0.08176630854100615,-0.08176630854100615
206.741,0.05161514111076791,-0.05161514111076791
206.74200000000002,0.011611725897781951,-0.011611725897781951
206.743,0.029994556825717528,0.029994556825717528
206.744,0.06471526074448061,0.06471526074448061
206.745,0.08585522827497871,0.08585522827497871
206.746,0.09005148262717311,0.09005148262717311
206.747,0.07792547194144311,0.07792547194144311
206.74800000000002,0.053704498212858706,0.053704498212858706
206.749,0.023952612682008913,0.023952612682008913
206.75,0.004210993637915164,-0.004210993637915164
206.751,0.02490417841580758,-0.02490417841580758
206.752,0.034805082311959876,-0.034805082311959876
206.75300000000001,0.033684252448456124,-0.033684252448456124
206.75400000000002,0.024065084798355316,-0.024065084798355316
206.755,0.010183701210169014,-0.010183701210169014
206.756,0.003393391760720223,0.003393391760720223
206.757,0.01306519230827406,0.01306519230827406
206.758,0.017038638040914354,0.017038638040914354
206.75900000000001,0.015518523684653339,0.015518523684653339
206.76000000000002,0.010262808417049563,0.010262808417049563
206.761,0.003717262147523297,0.003717262147523297
206.762,0.0019418435536963977,-0.0019418435536963977
206.763,0.005526896266459582,-0.005526896266459582
206.764,0.007096349893928484,-0.007096349893928484
206.76500000000001,0.007701128616183999,-0.007701128616183999
206.76600000000002,0.008752361288384298,-0.008752361288384298
206.767,0.01127068095807046,-0.01127068095807046
206.768,0.015310314123782039,-0.015310314123782039
206.769,0.019780839136254256,-0.019780839136254256
206.77,0.022742291648392473,-0.022742291648392473
206.77100000000002,0.022077148449609403,-0.022077148449609403
206.77200000000002,0.016305192331247133,-0.016305192331247133
206.773,0.005251447224458428,-0.005251447224458428
206.774,0.00967783974856573,0.00967783974856573
206.775,0.025726284553599738,0.025726284553599738
206.776,0.03947000854121315,0.03947000854121315
206.77700000000002,0.04774313215612218,0.04774313215612218
206.77800000000002,0.0485138043781615,0.0485138043781615
206.779,0.04143287170071512,0.04143287170071512
206.78,0.02788485285092416,0.02788485285092416
206.781,0.010535039740913636,0.010535039740913636
206.782,0.007468485902072435,-0.007468485902072435
206.78300000000002,0.02336934729771886,-0.02336934729771886
206.78400000000002,0.035467803918658995,-0.035467803918658995
206.785,0.043370281699317184,-0.043370281699317184
206.786,0.04776749670842675,-0.04776749670842675
206.787,0.049852393626811466,-0.049852393626811466
206.788,0.050615355193654954,-0.050615355193654954
206.78900000000002,0.05029494976140448,-0.05029494976140448
206.79000000000002,0.04820291835663093,-0.04820291835663093
206.791,0.04300221560204199,-0.04300221560204199
206.792,0.03334528996030236,-0.03334528996030236
206.793,0.018637092377830334,-0.018637092377830334
206.794,0.0003745675995449152,0.0003745675995449152
206.79500000000002,0.02143485606136669,0.02143485606136669
206.79600000000002,0.04115932590587356,0.04115932590587356
206.797,0.05588053431676227,0.05588053431676227
206.798,0.06271765268417218,0.06271765268417218
206.799,0.06052401247860819,0.06052401247860819
206.8,0.05038140565980145,0.05038140565980145
206.80100000000002,0.03543737335905775,0.03543737335905775
206.80200000000002,0.020085194012966327,0.020085194012966327
206.803,0.008701464248781609,0.008701464248781609
206.804,0.004312478578700421,0.004312478578700421
206.805,0.0076044524010922985,0.0076044524010922985
206.806,0.016605421181527025,0.016605421181527025
206.80700000000002,0.027171737017776944,0.027171737017776944
206.80800000000002,0.03416806772021618,0.03416806772021618
206.809,0.033012299511983145,0.033012299511983145
206.81,0.021134448000352957,0.021134448000352957
206.811,0.0010885716703204387,-0.0010885716703204387
206.812,0.030214553487817826,-0.030214553487817826
206.81300000000002,0.06049036795367406,-0.06049036795367406
206.81400000000002,0.08528076366320775,-0.08528076366320775
206.815,0.09877652023064469,-0.09877652023064469
206.816,0.09750672868589814,-0.09750672868589814
206.817,0.08123911770142364,-0.08123911770142364
206.818,0.05303102550689866,-0.05303102550689866
206.81900000000002,0.018436563438123957,-0.018436563438123957
206.82000000000002,0.015890360792628015,0.015890360792628015
206.821,0.0438003592302679,0.0438003592302679
206.822,0.061026004770753525,0.061026004770753525
206.823,0.06598581647365401,0.06598581647365401
206.824,0.059848810370289794,0.059848810370289794
206.82500000000002,0.04590920030385408,0.04590920030385408
206.82600000000002,0.02850631520178168,0.02850631520178168
206.827,0.011828203435982843,0.011828203435982843
206.828,0.0010652635199015395,-0.0010652635199015395
206.829,0.008763205320581627,-0.008763205320581627
206.83,0.011489906194557873,-0.011489906194557873
206.83100000000002,0.010642133834367934,-0.010642133834367934
206.83200000000002,0.008084085871158293,-0.008084085871158293
206.833,0.005451217693445455,-0.005451217693445455
206.834,0.0036770198012670632,-0.0036770198012670632
206.835,0.00285756778771788,-0.00285756778771788
206.836,0.0024447681204115028,-0.0024447681204115028
206.83700000000002,0.0016523204598186386,-0.0016523204598186386
206.83800000000002,9.910480745117707e-05,9.910480745117707e-05
206.839,0.0028654595924317437,0.0028654595924317437
206.84,0.006098889636361227,0.006098889636361227
206.841,0.008819302570879354,0.008819302570879354
206.842,0.009964828313160822,0.009964828313160822
206.84300000000002,0.008790041453174066,0.008790041453174066
206.84400000000002,0.005170436724714756,0.005170436724714756
206.845,0.0002912580221052363,-0.0002912580221052363
206.846,0.006392211366378297,-0.006392211366378297
206.847,0.01164862539600186,-0.01164862539600186
206.848,0.014706093965509797,-0.014706093965509797
206.84900000000002,0.014715890443899522,-0.014715890443899522
206.85000000000002,0.011567399086772593,-0.011567399086772593
206.851,0.005914744615748136,-0.005914744615748136
206.852,0.0010011188640862317,0.0010011188640862317
206.853,0.007675191339948884,0.007675191339948884
206.854,0.012709703713567748,0.012709703713567748
206.85500000000002,0.015131340869213672,0.015131340869213672
206.85600000000002,0.014575226464458258,0.014575226464458258
206.857,0.01129988006906205,0.01129988006906205
206.858,0.006046544059717768,0.006046544059717768
206.859,0.00020305174770121203,-0.00020305174770121203
206.86,0.0064945577941824765,-0.0064945577941824765
206.86100000000002,0.012119432700982424,-0.012119432700982424
206.86200000000002,0.01672974712788563,-0.01672974712788563
206.863,0.020328448033015145,-0.020328448033015145
206.864,0.023149926670090214,-0.023149926670090214
206.865,0.02547469286797289,-0.02547469286797289
206.866,0.027437608624328768,-0.027437608624328768
206.86700000000002,0.02888884214509203,-0.02888884214509203
206.868,0.029351704418019986,-0.029351704418019986
206.869,0.028096103296610848,-0.028096103296610848
206.87,0.024316575551338006,-0.024316575551338006
206.871,0.017376310963748493,-0.017376310963748493
206.872,0.0070591758689920545,-0.0070591758689920545
206.87300000000002,0.006235211843108948,0.006235211843108948
206.874,0.02141080140021787,0.02141080140021787
206.875,0.03674504917869812,0.03674504917869812
206.876,0.05011436730934948,0.05011436730934948
206.877,0.05934456167024791,0.05934456167024791
206.87800000000001,0.06262383736142636,0.06262383736142636
206.87900000000002,0.05889515412935982,0.05889515412935982
206.88,0.04814089760308055,0.04814089760308055
206.881,0.031488497460731464,0.031488497460731464
206.882,0.01109887939088259,0.01109887939088259
206.883,0.010155817493489368,-0.010155817493489368
206.88400000000001,0.029172556995555238,-0.029172556995555238
206.88500000000002,0.04316576043246393,-0.04316576043246393
206.886,0.050174602377372104,-0.050174602377372104
206.887,0.049424569274823776,-0.049424569274823776
206.888,0.04146644861104876,-0.04146644861104876
206.889,0.028061488999101842,-0.028061488999101842
206.89000000000001,0.011834717212499532,-0.011834717212499532
206.89100000000002,0.00423270087035068,0.00423270087035068
206.892,0.01736768919498244,0.01736768919498244
206.893,0.025511129161788007,0.025511129161788007
206.894,0.02766484893098396,0.02766484893098396
206.895,0.024015040829015854,0.024015040829015854
206.89600000000002,0.015816226828813337,0.015816226828813337
206.89700000000002,0.005070604857153843,0.005070604857153843
206.898,0.005920942448539871,-0.005920942448539871
206.899,0.015036428377968411,-0.015036428377968411
206.9,0.020738129980727896,-0.020738129980727896
206.901,0.022325642534713516,-0.022325642534713516
206.90200000000002,0.01999358897295918,-0.01999358897295918
206.90300000000002,0.014695630768814335,-0.014695630768814335
206.904,0.00785861136469316,-0.00785861136469316
206.905,0.0010211404145623602,-0.0010211404145623602
206.906,0.004516651477583138,0.004516651477583138
206.907,0.007953253574036324,0.007953253574036324
206.90800000000002,0.009102459577105874,0.009102459577105874
206.90900000000002,0.008350183956464807,0.008350183956464807
206.91,0.006474346838838995,0.006474346838838995
206.911,0.0043831143411356,0.0043831143411356
206.912,0.0028444665357274827,0.0028444665357274827
206.913,0.0022790013241332347,0.0022790013241332347
206.91400000000002,0.002668593999389435,0.002668593999389435
206.91500000000002,0.0036010812517472002,0.0036010812517472002
206.916,0.004433920578526938,0.004433920578526938
206.917,0.004527440199593443,0.004527440199593443
206.918,0.003479285160954869,0.003479285160954869
206.919,0.0012910186966348506,0.0012910186966348506
206.92000000000002,0.0015841755603396897,-0.0015841755603396897
206.92100000000002,0.00433174548780365,-0.00433174548780365
206.922,0.0059853592361169055,-0.0059853592361169055
206.923,0.005703757308940407,-0.005703757308940407
206.924,0.0030423969073924135,-0.0030423969073924135
206.925,0.001854442478553018,0.001854442478553018
206.92600000000002,0.008198047911909966,0.008198047911909966
206.92700000000002,0.014660730788942597,0.014660730788942597
206.928,0.01962755794749085,0.01962755794749085
206.929,0.021542916113863712,0.021542916113863712
206.93,0.01927550351748697,0.01927550351748697
206.931,0.012418064748724365,0.012418064748724365
206.93200000000002,0.0014503015477886072,0.0014503015477886072
206.93300000000002,0.012277950925553963,-0.012277950925553963
206.934,0.026747575006588833,-0.026747575006588833
206.935,0.03961942512334764,-0.03961942512334764
206.936,0.0486638908719006,-0.0486638908719006
206.937,0.052184581419697236,-0.052184581419697236
206.93800000000002,0.049349975235594076,-0.049349975235594076
206.93900000000002,0.0403649334074749,-0.0403649334074749
206.94,0.02644624600164775,-0.02644624600164775
206.941,0.009606191425591366,-0.009606191425591366
206.942,0.007712766906914775,0.007712766906914775
206.943,0.02307866711801752,0.02307866711801752
206.94400000000002,0.034497501452631675,0.034497501452631675
206.94500000000002,0.04074228765713002,0.04074228765713002
206.946,0.04152022146721354,0.04152022146721354
206.947,0.03744970687375928,0.03744970687375928
206.948,0.029860505050068875,0.029860505050068875
206.949,0.02046851078813827,0.02046851078813827
206.95000000000002,0.011002860720274326,0.011002860720274326
206.95100000000002,0.0028708543954558616,0.0028708543954558616
206.952,0.0030665466427377344,-0.0030665466427377344
206.953,0.0065661111638418545,-0.0065661111638418545
206.954,0.007918309230821421,-0.007918309230821421
206.955,0.007745402432356975,-0.007745402432356975
206.95600000000002,0.006748162212279059,-0.006748162212279059
206.95700000000002,0.005477974997622902,-0.005477974997622902
206.958,0.004199753027523702,-0.004199753027523702
206.959,0.0028812227733615694,-0.0028812227733615694
206.96,0.0013041840165012337,-0.0013041840165012337
206.961,0.0007453209367376005,0.0007453209367376005
206.96200000000002,0.0032769675200141554,0.0032769675200141554
206.96300000000002,0.00596061517940865,0.00596061517940865
206.964,0.008112166389673563,0.008112166389673563
206.965,0.008821786990144114,0.008821786990144114
206.966,0.007201013283689522,0.007201013283689522
206.967,0.0026850274129200566,0.0026850274129200566
206.96800000000002,0.0046976648433252905,-0.0046976648433252905
206.96900000000002,0.014175912862336987,-0.014175912862336987
206.97,0.024269253562559684,-0.024269253562559684
206.971,0.03302090529986713,-0.03302090529986713
206.972,0.038393639518721996,-0.038393639518721996
206.973,0.0387435942960557,-0.0387435942960557
206.97400000000002,0.03325787818346469,-0.03325787818346469
206.97500000000002,0.022240484791455285,-0.022240484791455285
206.976,0.007159749714230457,-0.007159749714230457
206.977,0.009576121376818321,0.009576121376818321
206.978,0.025083051838816085,0.025083051838816085
206.979,0.0366096660676136,0.0366096660676136
206.98000000000002,0.04215231576517448,0.04215231576517448
206.98100000000002,0.040926967217445126,0.040926967217445126
206.982,0.03357382490932556,0.03357382490932556
206.983,0.022029350505374835,0.022029350505374835
206.984,0.009080081072489905,0.009080081072489905
206.985,0.0023054180689164433,-0.0023054180689164433
206.98600000000002,0.009707059007438684,-0.009707059007438684
206.98700000000002,0.011860694206438819,-0.011860694206438819
206.988,0.008978029238138055,-0.008978029238138055
206.989,0.0026810633353320616,-0.0026810633353320616
206.99,0.004448719925198292,0.004448719925198292
206.991,0.009600647654695437,0.009600647654695437
206.99200000000002,0.010554642118330767,0.010554642118330767
206.993,0.006363201957355433,0.006363201957355433
206.994,0.0023072675537683727,-0.0023072675537683727
206.995,0.013294008858563038,-0.013294008858563038
206.996,0.023507133723966428,-0.023507133723966428
206.997,0.02981030164726881,-0.02981030164726881
206.99800000000002,0.029970864408123202,-0.029970864408123202
206.999,0.023399960968936363,-0.023399960968936363
207.0,0.011446430398241404,-0.011446430398241404
207.001,0.002873783770620784,0.002873783770620784
207.002,0.015668693058284437,0.015668693058284437
207.00300000000001,0.023276942066780527,0.023276942066780527
207.00400000000002,0.023375516350260847,0.023375516350260847
207.005,0.015752825776113807,0.015752825776113807
207.006,0.002492041901576632,0.002492041901576632
207.007,0.012526159732246805,-0.012526159732246805
207.008,0.02468967887304554,-0.02468967887304554
207.00900000000001,0.02999772893930906,-0.02999772893930906
207.01000000000002,0.0262875274766015,-0.0262875274766015
207.011,0.01396761768907215,-0.01396761768907215
207.012,0.003986539690278716,0.003986539690278716
207.013,0.022803991921878868,0.022803991921878868
207.014,0.03725223639028069,0.03725223639028069
207.01500000000001,0.04314923166284848,0.04314923166284848
207.01600000000002,0.038601813362011815,0.038601813362011815
207.017,0.024589956279884095,0.024589956279884095
207.018,0.004708246911041152,0.004708246911041152
207.019,0.015868149637363695,-0.015868149637363695
207.02,0.031885161872403,-0.031885161872403
207.02100000000002,0.0395229622747756,-0.0395229622747756
207.02200000000002,0.0374578700508155,-0.0374578700508155
207.023,0.027150342672970944,-0.027150342672970944
207.024,0.012280475265567825,-0.012280475265567825
207.025,0.0024769323359161172,0.0024769323359161172
207.026,0.012936191855111148,0.012936191855111148
207.02700000000002,0.016662734675640795,0.016662734675640795
207.02800000000002,0.013611089471911232,0.013611089471911232
207.029,0.005947992134611823,0.005947992134611823
207.03,0.002855418883927859,-0.002855418883927859
207.031,0.00933207285185076,-0.00933207285185076
207.032,0.011263779806901547,-0.011263779806901547
207.03300000000002,0.008423202826674274,-0.008423202826674274
207.03400000000002,0.0025516152684389643,-0.0025516152684389643
207.035,0.003417511394414946,0.003417511394414946
207.036,0.006606604192406403,0.006606604192406403
207.037,0.00545298589764821,0.00545298589764821
207.038,0.0004988774429988256,0.0004988774429988256
207.03900000000002,0.005615736478887776,-0.005615736478887776
207.04000000000002,0.009010189121068858,-0.009010189121068858
207.041,0.00601582881873074,-0.00601582881873074
207.042,0.005262881246062842,0.005262881246062842
207.043,0.02384030036892955,0.02384030036892955
207.044,0.04563854064738287,0.04563854064738287
207.04500000000002,0.06433945795950405,0.06433945795950405
207.04600000000002,0.07311465036300524,0.07311465036300524
207.047,0.06673938606945973,0.06673938606945973
207.048,0.043434924288212266,0.043434924288212266
207.049,0.005829692432034673,0.005829692432034673
207.05,0.03932375321861462,-0.03932375321861462
207.05100000000002,0.08266544156017966,-0.08266544156017966
207.05200000000002,0.11458400095701363,-0.11458400095701363
207.053,0.12774648960784613,-0.12774648960784613
207.054,0.11906691359785941,-0.11906691359785941
207.055,0.09053522442144069,-0.09053522442144069
207.056,0.048664734962674754,-0.048664734962674754
207.05700000000002,0.00272642489047099,-0.00272642489047099
207.05800000000002,0.03770499890725451,0.03770499890725451
207.059,0.06517679440147169,0.06517679440147169
207.06,0.0760694381097755,0.0760694381097755
207.061,0.07114530563567556,0.07114530563567556
207.062,0.054852570819025365,0.054852570819025365
207.06300000000002,0.03367734140506189,0.03367734140506189
207.06400000000002,0.014103539914105321,0.014103539914105321
207.065,0.0008185487673042648,0.0008185487673042648
207.066,0.004322663339226823,-0.004322663339226823
207.067,0.0023406608645846552,-0.0023406608645846552
207.068,0.0037189665530481483,0.0037189665530481483
207.06900000000002,0.010153782370797585,0.010153782370797585
207.07000000000002,0.013981486336028323,0.013981486336028323
207.071,0.013862897431353185,0.013862897431353185
207.072,0.010306371636800624,0.010306371636800624
207.073,0.005162632422168608,0.005162632422168608
207.074,0.0006692332468010071,0.0006692332468010071
207.07500000000002,0.0015547641983212068,-0.0015547641983212068
207.07600000000002,0.0011743674031752594,-0.0011743674031752594
207.077,0.0007734791347594124,0.0007734791347594124
207.078,0.0023766604143708064,0.0023766604143708064
207.079,0.0017125586925373366,0.0017125586925373366
207.08,0.002271312960174162,-0.002271312960174162
207.08100000000002,0.009212730879495876,-0.009212730879495876
207.08200000000002,0.017346612419721234,-0.017346612419721234
207.083,0.02408123993485529,-0.02408123993485529
207.084,0.026932690662569918,-0.026932690662569918
207.085,0.02447390132370789,-0.02447390132370789
207.086,0.016943642861909494,-0.016943642861909494
207.08700000000002,0.00627923311514929,-0.00627923311514929
207.08800000000002,0.004458118090381855,0.004458118090381855
207.089,0.012078647467973888,0.012078647467973888
207.09,0.014340604051601136,0.014340604051601136
207.091,0.01073488954401969,0.01073488954401969
207.092,0.0027015635828770645,0.0027015635828770645
207.09300000000002,0.006804858476631223,-0.006804858476631223
207.09400000000002,0.014262762885033118,-0.014262762885033118
207.095,0.01673154789055105,-0.01673154789055105
207.096,0.012822408563449834,-0.012822408563449834
207.097,0.003175624931587115,-0.003175624931587115
207.098,0.009705319079025118,0.009705319079025118
207.09900000000002,0.022200058184742303,0.022200058184742303
207.10000000000002,0.030649760060935352,0.030649760060935352
207.101,0.032421656727035245,0.032421656727035245
207.102,0.026633184239652174,0.026633184239652174
207.103,0.014333955251612199,0.014333955251612199
207.104,0.0018731919702065305,-0.0018731919702065305
207.10500000000002,0.01861388929806376,-0.01861388929806376
207.10600000000002,0.032656328018208794,-0.032656328018208794
207.107,0.04167292851078686,-0.04167292851078686
207.108,0.044645203100001286,-0.044645203100001286
207.109,0.04184723938480609,-0.04184723938480609
207.11,0.034488801080088255,-0.034488801080088255
207.11100000000002,0.02419885495023488,-0.02419885495023488
207.11200000000002,0.012553390116012123,-0.012553390116012123
207.113,0.0007971663481188097,-0.0007971663481188097
207.114,0.010194322267518032,0.010194322267518032
207.115,0.019774287330041496,0.019774287330041496
207.116,0.027336434610555942,0.027336434610555942
207.11700000000002,0.03221555715808718,0.03221555715808718
207.118,0.03375670955287694,0.03375670955287694
207.119,0.03154065306067582,0.03154065306067582
207.12,0.02566631587527384,0.02566631587527384
207.121,0.016947036718464644,0.016947036718464644
207.122,0.006896335574219489,0.006896335574219489
207.12300000000002,0.0025449330420611615,-0.0025449330420611615
207.124,0.009484329568536511,-0.009484329568536511
207.125,0.012610646756574235,-0.012610646756574235
207.126,0.01159889598311329,-0.01159889598311329
207.127,0.007232915604565477,-0.007232915604565477
207.12800000000001,0.0011826217215712106,-0.0011826217215712106
207.12900000000002,0.004506507842010592,0.004506507842010592
207.13,0.008048960121030586,0.008048960121030586
207.131,0.00846714301670133,0.00846714301670133
207.132,0.00586492592012822,0.00586492592012822
207.133,0.0013336946390377002,0.0013336946390377002
207.13400000000001,0.003473307113983431,-0.003473307113983431
207.13500000000002,0.006945206259366389,-0.006945206259366389
207.136,0.008080252162909427,-0.008080252162909427
207.137,0.006814058769251343,-0.006814058769251343
207.138,0.0039962254800948276,-0.0039962254800948276
207.139,0.0010311553355571333,-0.0010311553355571333
207.14000000000001,0.0006783949273168242,0.0006783949273168242
207.14100000000002,0.00027519024361407236,0.00027519024361407236
207.142,0.002224508755625851,-0.002224508755625851
207.143,0.00594014487861199,-0.00594014487861199
207.144,0.009467259474935274,-0.009467259474935274
207.145,0.011418008254727179,-0.011418008254727179
207.14600000000002,0.010954649887456742,-0.010954649887456742
207.14700000000002,0.008110753641743794,-0.008110753641743794
207.148,0.0037747641350467085,-0.0037747641350467085
207.149,0.0006607822967594997,0.0006607822967594997
207.15,0.003851645004028111,0.003851645004028111
207.151,0.005041952044362839,0.005041952044362839
207.15200000000002,0.004376999407617292,0.004376999407617292
207.15300000000002,0.0028553294875419332,0.0028553294875419332
207.154,0.0019221811810326136,0.0019221811810326136
207.155,0.0028464219339550943,0.0028464219339550943
207.156,0.006114905001023789,0.006114905001023789
207.157,0.011085506088743832,0.011085506088743832
207.15800000000002,0.01605674042444119,0.01605674042444119
207.15900000000002,0.01876500475395905,0.01876500475395905
207.16,0.01716158932007461,0.01716158932007461
207.161,0.010208344263650974,0.010208344263650974
207.162,0.0015936092735897303,-0.0015936092735897303
207.163,0.01615089681847535,-0.01615089681847535
207.16400000000002,0.0302546200997702,-0.0302546200997702
207.16500000000002,0.04045996033268244,-0.04045996033268244
207.166,0.0440976824693628,-0.0440976824693628
207.167,0.040090669263252166,-0.040090669263252166
207.168,0.02930290324704099,-0.02930290324704099
207.169,0.014296831482492318,-0.014296831482492318
207.17000000000002,0.0014311932946268267,0.0014311932946268267
207.17100000000002,0.014494177639710074,0.014494177639710074
207.172,0.02259941229363576,0.02259941229363576
207.173,0.025156663625954544,0.025156663625954544
207.174,0.02331691089878732,0.02331691089878732
207.175,0.019439496425452608,0.019439496425452608
207.17600000000002,0.016176603168926506,0.016176603168926506
207.17700000000002,0.015490736284494468,0.015490736284494468
207.178,0.01794052400503589,0.01794052400503589
207.179,0.022476390509545183,0.022476390509545183
207.18,0.02681282138097948,0.02681282138097948
207.181,0.028247766062833222,0.028247766062833222
207.18200000000002,0.02464875985282438,0.02464875985282438
207.18300000000002,0.015270232712174408,0.015270232712174408
207.184,0.001124802925094847,0.001124802925094847
207.185,0.015217922329352634,-0.015217922329352634
207.186,0.03034042746835665,-0.03034042746835665
207.187,0.04096301314003141,-0.04096301314003141
207.18800000000002,0.04488813193808229,-0.04488813193808229
207.18900000000002,0.041605582537867315,-0.041605582537867315
207.19,0.03237862791810501,-0.03237862791810501
207.191,0.019804245091981927,-0.019804245091981927
207.192,0.007009512269619498,-0.007009512269619498
207.193,0.0032456745634111598,0.0032456745634111598
207.19400000000002,0.009275517867271122,0.009275517867271122
207.19500000000002,0.010781663538581674,0.010781663538581674
207.196,0.008713248439761106,0.008713248439761106
207.197,0.004767860118355153,0.004767860118355153
207.198,0.0007385543084550859,0.0007385543084550859
207.199,0.002055975065643269,-0.002055975065643269
207.20000000000002,0.0030745162589264703,-0.0030745162589264703
207.20100000000002,0.0025210181327815183,-0.0025210181327815183
207.202,0.001039064343414278,-0.001039064343414278
207.203,0.0007065956386773228,0.0007065956386773228
207.204,0.0023711771519229334,0.0023711771519229334
207.205,0.004049887380620803,0.004049887380620803
207.20600000000002,0.006135580856650676,0.006135580856650676
207.20700000000002,0.008989756156459095,0.008989756156459095
207.208,0.012587416687143445,0.012587416687143445
207.209,0.016314756951139497,0.016314756951139497
207.21,0.019041940317251874,0.019041940317251874
207.211,0.019481684403900034,0.019481684403900034
207.21200000000002,0.016720137669279385,0.016720137669279385
207.21300000000002,0.010718298565868995,0.010718298565868995
207.214,0.0025670874520733384,0.0025670874520733384
207.215,0.00565164795903676,-0.00565164795903676
207.216,0.01141228414273451,-0.01141228414273451
207.217,0.012561720700335254,-0.012561720700335254
207.21800000000002,0.008148149672390803,-0.008148149672390803
207.21900000000002,0.0010310904599186734,0.0010310904599186734
207.22,0.012392213246549908,0.012392213246549908
207.221,0.022118280529874464,0.022118280529874464
207.222,0.026192914428228853,0.026192914428228853
207.223,0.021634989176975376,0.021634989176975376
207.22400000000002,0.007564349022205472,0.007564349022205472
207.22500000000002,0.014248812438090083,-0.014248812438090083
207.226,0.03956382662911614,-0.03956382662911614
207.227,0.06258283733946592,-0.06258283733946592
207.228,0.07738121464193895,-0.07738121464193895
207.229,0.07947475322239889,-0.07947475322239889
207.23000000000002,0.06708758719951548,-0.06708758719951548
207.23100000000002,0.04175657029121716,-0.04175657029121716
207.232,0.008087495426682668,-0.008087495426682668
207.233,0.027286619708368324,0.027286619708368324
207.234,0.05727394290290546,0.05727394290290546
207.235,0.07600478480067459,0.07600478480067459
207.23600000000002,0.08018618280420507,0.08018618280420507
207.23700000000002,0.06978887901978029,0.06978887901978029
207.238,0.04791400965879137,0.04791400965879137
207.239,0.019909470441204696,0.019909470441204696
207.24,0.008001326904903558,-0.008001326904903558
207.241,0.030204717360226712,-0.030204717360226712
207.24200000000002,0.0429188903913471,-0.0429188903913471
207.243,0.044872564248865446,-0.044872564248865446
207.244,0.037322677407507575,-0.037322677407507575
207.245,0.023471988296396188,-0.023471988296396188
207.246,0.007491938283142528,-0.007491938283142528
207.247,0.006568361916790745,0.006568361916790745
207.24800000000002,0.01571147766824813,0.01571147766824813
207.249,0.018558079047559312,0.018558079047559312
207.25,0.015463476595739848,0.015463476595739848
207.251,0.008216122913084656,0.008216122913084656
207.252,0.0005574293278168349,-0.0005574293278168349
207.25300000000001,0.008108453715834307,-0.008108453715834307
207.25400000000002,0.012229569763441585,-0.012229569763441585
207.255,0.0117298033183721,-0.0117298033183721
207.256,0.006643629842240916,-0.006643629842240916
207.257,0.0018408698360808438,0.0018408698360808438
207.258,0.011695454988564509,0.011695454988564509
207.25900000000001,0.020528469560488045,0.020528469560488045
207.26000000000002,0.02612430012782348,0.02612430012782348
207.261,0.026938614716510257,0.026938614716510257
207.262,0.022451245522855892,0.022451245522855892
207.263,0.013302496751001563,0.013302496751001563
207.264,0.0011772777932558323,0.0011772777932558323
207.26500000000001,0.011548349084453825,-0.011548349084453825
207.26600000000002,0.022329577803028217,-0.022329577803028217
207.267,0.0290299407778282,-0.0290299407778282
207.268,0.03041553890820083,-0.03041553890820083
207.269,0.026439084013410597,-0.026439084013410597
207.27,0.01823292247583608,-0.01823292247583608
207.27100000000002,0.007804577572924578,-0.007804577572924578
207.27200000000002,0.0024886157059240176,0.0024886157059240176
207.273,0.010542566027565979,0.010542566027565979
207.274,0.015016628851030158,0.015016628851030158
207.275,0.015604734346427259,0.015604734346427259
207.276,0.012993184396628749,0.012993184396628749
207.27700000000002,0.008529728923603016,0.008529728923603016
207.27800000000002,0.0037224674664482096,0.0037224674664482096
207.279,0.0002564463433265655,-0.0002564463433265655
207.28,0.002890081340443541,-0.002890081340443541
207.281,0.004350803095089764,-0.004350803095089764
207.282,0.005246415696265711,-0.005246415696265711
207.28300000000002,0.006186258780377203,-0.006186258780377203
207.28400000000002,0.007350270026360533,-0.007350270026360533
207.285,0.00825317550855316,-0.00825317550855316
207.286,0.00783087604839966,-0.00783087604839966
207.287,0.004855485962861832,-0.004855485962861832
207.288,0.001449655430057189,0.001449655430057189
207.28900000000002,0.010823381467271204,0.010823381467271204
207.29000000000002,0.021659888770429524,0.021659888770429524
207.291,0.031162732756467595,0.031162732756467595
207.292,0.03599303487286167,0.03599303487286167
207.293,0.03326639376524447,0.03326639376524447
207.294,0.021604435807401876,0.021604435807401876
207.29500000000002,0.0018853372276937468,0.0018853372276937468
207.29600000000002,0.02260610566958313,-0.02260610566958313
207.297,0.046762070199211435,-0.046762070199211435
207.298,0.0648729942326863,-0.0648729942326863
207.299,0.07217116228996477,-0.07217116228996477
207.3,0.06624668718883998,-0.06624668718883998
207.30100000000002,0.04788824851910415,-0.04788824851910415
207.30200000000002,0.02104923755009231,-0.02104923755009231
207.303,0.008104933865662047,0.008104933865662047
207.304,0.03282792670578108,0.03282792670578108
207.305,0.04763865585318377,0.04763865585318377
207.306,0.049833693077753025,0.049833693077753025
207.30700000000002,0.04020251114435078,0.04020251114435078
207.30800000000002,0.022717557772108182,0.022717557772108182
207.309,0.0032852939246583984,0.0032852939246583984
207.31,0.012061959172500367,-0.012061959172500367
207.311,0.018975555199718937,-0.018975555199718937
207.312,0.016041143760334654,-0.016041143760334654
207.31300000000002,0.005086581869798471,-0.005086581869798471
207.31400000000002,0.009536239666997137,0.009536239666997137
207.315,0.022451177773736283,0.022451177773736283
207.316,0.029046037825468708,0.029046037825468708
207.317,0.02696788336447911,0.02696788336447911
207.318,0.016845631096904606,0.016845631096904606
207.31900000000002,0.0020177120968370983,0.0020177120968370983
207.32000000000002,0.012628926794817004,-0.012628926794817004
207.321,0.022311588189872965,-0.022311588189872965
207.322,0.023942732666526675,-0.023942732666526675
207.323,0.017133685557778163,-0.017133685557778163
207.324,0.004288191753512636,-0.004288191753512636
207.32500000000002,0.010229743108144942,0.010229743108144942
207.32600000000002,0.021560801400833416,0.021560801400833416
207.327,0.025949061869467393,0.025949061869467393
207.328,0.02193979086070694,0.02193979086070694
207.329,0.01078630720837155,0.01078630720837155
207.33,0.0040504096197195825,-0.0040504096197195825
207.33100000000002,0.01811753826284723,-0.01811753826284723
207.33200000000002,0.02747236478000047,-0.02747236478000047
207.333,0.029954102795628296,-0.029954102795628296
207.334,0.02580024102996201,-0.02580024102996201
207.335,0.017416947041738434,-0.017416947041738434
207.336,0.008408937211871397,-0.008408937211871397
207.33700000000002,0.0022282012560325415,-0.0022282012560325415
207.33800000000002,0.0009258691440256113,-0.0009258691440256113
207.339,0.00444585123183114,-0.00444585123183114
207.34,0.010700786971357318,-0.010700786971357318
207.341,0.01639115866884377,-0.01639115866884377
207.342,0.018265671093917586,-0.018265671093917586
207.34300000000002,0.01436685365625079,-0.01436685365625079
207.34400000000002,0.004813360526604239,-0.004813360526604239
207.345,0.008164100390541587,0.008164100390541587
207.346,0.02095165821843462,0.02095165821843462
207.347,0.02979363016978826,0.02979363016978826
207.348,0.032111605621531286,0.032111605621531286
207.34900000000002,0.02743601568276306,0.02743601568276306
207.35000000000002,0.01761667499821992,0.01761667499821992
207.351,0.006226933417050883,0.006226933417050883
207.352,0.002645206778366711,-0.002645206778366711
207.353,0.005812335649696684,-0.005812335649696684
207.354,0.002127666835028594,-0.002127666835028594
207.35500000000002,0.007042970074276722,0.007042970074276722
207.35600000000002,0.01818825918360731,0.01818825918360731
207.357,0.026749458180808337,0.026749458180808337
207.358,0.028598431344830266,0.028598431344830266
207.359,0.0214189862176229,0.0214189862176229
207.36,0.005546349928244645,0.005546349928244645
207.36100000000002,0.01600450281688181,-0.01600450281688181
207.36200000000002,0.03833101302414326,-0.03833101302414326
207.363,0.05600740883482582,-0.05600740883482582
207.364,0.06460070451785305,-0.06460070451785305
207.365,0.06188308176891905,-0.06188308176891905
207.366,0.048393937664740365,-0.048393937664740365
207.36700000000002,0.02721564441829287,-0.02721564441829287
207.368,0.003068265679471578,-0.003068265679471578
207.369,0.018977354547535023,0.018977354547535023
207.37,0.03477906156322552,0.03477906156322552
207.371,0.042041260098943725,0.042041260098943725
207.372,0.040655226782536795,0.040655226782536795
207.37300000000002,0.03243496613605654,0.03243496613605654
207.374,0.0203978353626864,0.0203978353626864
207.375,0.007849170925378481,0.007849170925378481
207.376,0.0024520456762912287,-0.0024520456762912287
207.377,0.008837066532352045,-0.008837066532352045
207.37800000000001,0.010890789031898941,-0.010890789031898941
207.37900000000002,0.00926997262575879,-0.00926997262575879
207.38,0.005301750439318963,-0.005301750439318963
207.381,0.0005205515072381417,-0.0005205515072381417
207.382,0.0037223046276559126,0.0037223046276559126
207.383,0.006501706788251663,0.006501706788251663
207.38400000000001,0.007405799534962014,0.007405799534962014
207.38500000000002,0.006504759279619446,0.006504759279619446
207.386,0.004253959476516943,0.004253959476516943
207.387,0.0013712920880552945,0.0013712920880552945
207.388,0.0012965411557659791,-0.0012965411557659791
207.389,0.002922381004143848,-0.002922381004143848
207.39000000000001,0.0028650478773777333,-0.0028650478773777333
207.39100000000002,0.0008386329149603908,-0.0008386329149603908
207.392,0.002955935468900149,0.002955935468900149
207.393,0.007792259583174099,0.007792259583174099
207.394,0.01251794448818537,0.01251794448818537
207.395,0.015799806067345063,0.015799806067345063
207.39600000000002,0.016468519390910534,0.016468519390910534
207.39700000000002,0.013867519680592461,0.013867519680592461
207.398,0.008090103983925508,0.008090103983925508
207.399,1.008654815615421e-05,1.008654815615421e-05
207.4,0.008926911881236323,-0.008926911881236323
207.401,0.01710165173761547,-0.01710165173761547
207.40200000000002,0.023185504826330576,-0.023185504826330576
207.40300000000002,0.026513024469414108,-0.026513024469414108
207.404,0.0272275284007077,-0.0272275284007077
207.405,0.026139916357853486,-0.026139916357853486
207.406,0.02434494011614392,-0.02434494011614392
207.407,0.022733667799326267,-0.022733667799326267
207.40800000000002,0.021588735839147926,-0.021588735839147926
207.40900000000002,0.020428293644150705,-0.020428293644150705
207.41,0.018178389085650955,-0.018178389085650955
207.411,0.013630445682799523,-0.013630445682799523
207.412,0.00602511413023062,-0.00602511413023062
207.413,0.004459162457477757,0.004459162457477757
207.41400000000002,0.016517409170528845,0.016517409170528845
207.41500000000002,0.027937529001319072,0.027937529001319072
207.416,0.03619176736108261,0.03619176736108261
207.417,0.03922239834162793,0.03922239834162793
207.418,0.03615761735412292,0.03615761735412292
207.419,0.02769824039320115,0.02769824039320115
207.42000000000002,0.016014843374653108,0.016014843374653108
207.42100000000002,0.00415756339664554,0.00415756339664554
207.422,0.004848626698124336,-0.004848626698124336
207.423,0.00893271126192106,-0.00893271126192106
207.424,0.007619632473332699,-0.007619632473332699
207.425,0.0021624335437839116,-0.0021624335437839116
207.42600000000002,0.004890031941914921,0.004890031941914921
207.42700000000002,0.01055241299018528,0.01055241299018528
207.428,0.01240339761196099,0.01240339761196099
207.429,0.009390014552803116,0.009390014552803116
207.43,0.00216310379399849,0.00216310379399849
207.431,0.007168505487233006,-0.007168505487233006
207.43200000000002,0.015777480117734,-0.015777480117734
207.43300000000002,0.02109348929983239,-0.02109348929983239
207.434,0.02167700736323717,-0.02167700736323717
207.435,0.017691727799017717,-0.017691727799017717
207.436,0.010818364386753527,-0.010818364386753527
207.437,0.0036487122891931097,-0.0036487122891931097
207.43800000000002,0.0012210910515484258,0.0012210910515484258
207.43900000000002,0.0020786330936921373,0.0020786330936921373
207.44,0.0013413022739978985,-0.0013413022739978985
207.441,0.007802815287618454,-0.007802815287618454
207.442,0.015026202318369417,-0.015026202318369417
207.443,0.02047941382247412,-0.02047941382247412
207.44400000000002,0.02221631737518637,-0.02221631737518637
207.44500000000002,0.01947055398003926,-0.01947055398003926
207.446,0.012814559302096074,-0.012814559302096074
207.447,0.0038586885884544712,-0.0038586885884544712
207.448,0.005367617736665285,0.005367617736665285
207.449,0.013104077863196204,0.013104077863196204
207.45000000000002,0.018360297693037052,0.018360297693037052
207.45100000000002,0.021061701551145704,0.021061701551145704
207.452,0.021823347052684617,0.021823347052684617
207.453,0.021484324777117158,0.021484324777117158
207.454,0.02062613078500076,0.02062613078500076
207.455,0.019294379365229142,0.019294379365229142
207.45600000000002,0.017046995943639554,0.017046995943639554
207.45700000000002,0.013303189183169353,0.013303189183169353
207.458,0.007827429346425737,0.007827429346425737
207.459,0.0011104320390054499,0.0011104320390054499
207.46,0.005562156614553811,-0.005562156614553811
207.461,0.010440022472506161,-0.010440022472506161
207.46200000000002,0.011953148518058712,-0.011953148518058712
207.46300000000002,0.009435981953238855,-0.009435981953238855
207.464,0.0036277764624929073,-0.0036277764624929073
207.465,0.0033029926590897535,0.0033029926590897535
207.466,0.008302845346481732,0.008302845346481732
207.467,0.008424418053807156,0.008424418053807156
207.46800000000002,0.0019521608450774857,0.0019521608450774857
207.46900000000002,0.01074088573748104,-0.01074088573748104
207.47,0.02695708142118455,-0.02695708142118455
207.471,0.042223496079608326,-0.042223496079608326
207.472,0.05152623988303372,-0.05152623988303372
207.473,0.05087761763056253,-0.05087761763056253
207.47400000000002,0.038716533597787504,-0.038716533597787504
207.47500000000002,0.016659127128998273,-0.016659127128998273
207.476,0.010698653843815336,0.010698653843815336
207.477,0.036926940538894885,0.036926940538894885
207.478,0.05554288474061193,0.05554288474061193
207.479,0.06189036270384259,0.06189036270384259
207.48000000000002,0.05452948424240481,0.05452948424240481
207.48100000000002,0.03568775759005542,0.03568775759005542
207.482,0.010616705586482573,0.010616705586482573
207.483,0.01395395002704317,-0.01395395002704317
207.484,0.03178322080213241,-0.03178322080213241
207.485,0.03889237116926003,-0.03889237116926003
207.48600000000002,0.034598114881007475,-0.034598114881007475
207.48700000000002,0.021504199084512145,-0.021504199084512145
207.488,0.00449084599929539,-0.00449084599929539
207.489,0.010937099772187165,0.010937099772187165
207.49,0.020387373948454704,0.020387373948454704
207.491,0.021840880991366975,0.021840880991366975
207.49200000000002,0.016054432486741228,0.016054432486741228
207.493,0.006026104586818151,0.006026104586818151
207.494,0.004239244562236271,-0.004239244562236271
207.495,0.011202676414910493,-0.011202676414910493
207.496,0.012983024026689513,-0.012983024026689513
207.497,0.009872183417022331,-0.009872183417022331
207.49800000000002,0.004033438933629534,-0.004033438933629534
207.499,0.001463686429498794,0.001463686429498794
207.5,0.0038902066290021093,0.0038902066290021093
207.501,0.0019195214660326337,0.0019195214660326337
207.502,0.0038779736270249036,-0.0038779736270249036
207.50300000000001,0.011271761536542786,-0.011271761536542786
207.50400000000002,0.017233484721462185,-0.017233484721462185
207.505,0.019093934808156948,-0.019093934808156948
207.506,0.015564259764133427,-0.015564259764133427
207.507,0.0072485536891414536,-0.0072485536891414536
207.508,0.003534303482091172,0.003534303482091172
207.50900000000001,0.013549305688441655,0.013549305688441655
207.51000000000002,0.019771924685148892,0.019771924685148892
207.511,0.020436798296748875,0.020436798296748875
207.512,0.01563653970201364,0.01563653970201364
207.513,0.007264595944647043,0.007264595944647043
207.514,0.0016679616865004374,-0.0016679616865004374
207.51500000000001,0.008091266138043972,-0.008091266138043972
207.51600000000002,0.009933410650399306,-0.009933410650399306
207.517,0.006806376144444063,-0.006806376144444063
207.518,9.091477509014582e-05,-9.091477509014582e-05
207.519,0.007594002067713529,0.007594002067713529
207.52,0.013336654565857135,0.013336654565857135
207.52100000000002,0.014953999946070638,0.014953999946070638
207.52200000000002,0.011734276577064879,0.011734276577064879
207.523,0.004654220322979222,0.004654220322979222
207.524,0.003985800340558777,-0.003985800340558777
207.525,0.011363400606381132,-0.011363400606381132
207.526,0.015084045139687266,-0.015084045139687266
207.52700000000002,0.013953609063014323,-0.013953609063014323
207.52800000000002,0.008324930470383723,-0.008324930470383723
207.529,7.228579681044674e-05,7.228579681044674e-05
207.53,0.008729205066389266,0.008729205066389266
207.531,0.015156982278821953,0.015156982278821953
207.532,0.01761140991287826,0.01761140991287826
207.53300000000002,0.01551662736840288,0.01551662736840288
207.53400000000002,0.00948504353264774,0.00948504353264774
207.535,0.0009787196639895453,0.0009787196639895453
207.536,0.008225101653997965,-0.008225101653997965
207.537,0.01655481661787675,-0.01655481661787675
207.538,0.022976885189671458,-0.022976885189671458
207.53900000000002,0.02706112323702765,-0.02706112323702765
207.54000000000002,0.028815313227002273,-0.028815313227002273
207.541,0.02841345127291261,-0.02841345127291261
207.542,0.02596967764192852,-0.02596967764192852
207.543,0.02147045624080064,-0.02147045624080064
207.544,0.014891139963703295,-0.014891139963703295
207.54500000000002,0.006428191871533983,-0.006428191871533983
207.54600000000002,0.00328414665477755,0.00328414665477755
207.547,0.013107297057703788,0.013107297057703788
207.548,0.02155850666818655,0.02155850666818655
207.549,0.02717818425737906,0.02717818425737906
207.55,0.028989502200113166,0.028989502200113166
207.55100000000002,0.026880316153321482,0.026880316153321482
207.55200000000002,0.021747115685826175,0.021747115685826175
207.553,0.015314650501806125,0.015314650501806125
207.554,0.009657661705297346,0.009657661705297346
207.555,0.006561799323705467,0.006561799323705467
207.556,0.006928090387565644,0.006928090387565644
207.55700000000002,0.010423162513494526,0.010423162513494526
207.55800000000002,0.015504634463353066,0.015504634463353066
207.559,0.019831820293945597,0.019831820293945597
207.56,0.020946855329515048,0.020946855329515048
207.561,0.017023071927763648,0.017023071927763648
207.562,0.0074552215783057554,0.0074552215783057554
207.56300000000002,0.006883940245639715,-0.006883940245639715
207.56400000000002,0.0237925766527952,-0.0237925766527952
207.565,0.04024439703014151,-0.04024439703014151
207.566,0.05309916576912374,-0.05309916576912374
207.567,0.05982086370413766,-0.05982086370413766
207.568,0.05901919761707568,-0.05901919761707568
207.56900000000002,0.05069581465769362,-0.05069581465769362
207.57000000000002,0.03616773368013776,-0.03616773368013776
207.571,0.017725941011278747,-0.017725941011278747
207.572,0.0018579988590437674,0.0018579988590437674
207.573,0.01985074759075108,0.01985074759075108
207.574,0.03399721957825868,0.03399721957825868
207.57500000000002,0.04281986713759538,0.04281986713759538
207.57600000000002,0.045758206015437064,0.045758206015437064
207.577,0.04315940585135487,0.04315940585135487
207.578,0.03614372445936133,0.03614372445936133
207.579,0.026370404974963617,0.026370404974963617
207.58,0.01573072710412809,0.01573072710412809
207.58100000000002,0.006003273815744636,0.006003273815744636
207.58200000000002,0.00147736575772278,-0.00147736575772278
207.583,0.006071459860102198,-0.006071459860102198
207.584,0.007935212482981738,-0.007935212482981738
207.585,0.007924630859445487,-0.007924630859445487
207.586,0.007302614448797181,-0.007302614448797181
207.58700000000002,0.007312442881950795,-0.007312442881950795
207.58800000000002,0.008736932788228529,-0.008736932788228529
207.589,0.0115875820949448,-0.0115875820949448
207.59,0.015045118045572826,-0.015045118045572826
207.591,0.017701366950924214,-0.017701366950924214
207.592,0.018051064708308275,-0.018051064708308275
207.59300000000002,0.015084846047366707,-0.015084846047366707
207.59400000000002,0.008778536269498509,-0.008778536269498509
207.595,0.0002857524605514424,-0.0002857524605514424
207.596,0.008274972685506565,0.008274972685506565
207.597,0.014413246210426882,0.014413246210426882
207.598,0.016074467033409867,0.016074467033409867
207.59900000000002,0.012400684697888808,0.012400684697888808
207.60000000000002,0.004171348409827272,0.004171348409827272
207.601,0.006264955181004054,-0.006264955181004054
207.602,0.015597358172692076,-0.015597358172692076
207.603,0.02054379920443522,-0.02054379920443522
207.604,0.018926481062634015,-0.018926481062634015
207.60500000000002,0.010478798704978996,-0.010478798704978996
207.60600000000002,0.002904765819479558,0.002904765819479558
207.607,0.01759723750222494,0.01759723750222494
207.608,0.029249544997053976,0.029249544997053976
207.609,0.03408883921218455,0.03408883921218455
207.61,0.03010278243320771,0.03010278243320771
207.61100000000002,0.017729184816818955,0.017729184816818955
207.61200000000002,0.00018162562738754216,-0.00018162562738754216
207.613,0.019135800517539617,-0.019135800517539617
207.614,0.03426626329892929,-0.03426626329892929
207.615,0.041712668372721,-0.041712668372721
207.616,0.03968519490243435,-0.03968519490243435
207.61700000000002,0.028891439878716126,-0.028891439878716126
207.618,0.012214688347711503,-0.012214688347711503
207.619,0.006226011155819053,0.006226011155819053
207.62,0.02231002365018351,0.02231002365018351
207.621,0.03303915642675871,0.03303915642675871
207.622,0.037204512607697346,0.037204512607697346
207.62300000000002,0.035421155167285855,0.035421155167285855
207.624,0.02957965401722799,0.02957965401722799
207.625,0.02196027193835023,0.02196027193835023
207.626,0.014356712642590239,0.014356712642590239
207.627,0.007529252218513173,0.007529252218513173
207.62800000000001,0.0011654507744281147,0.0011654507744281147
207.62900000000002,0.005674883244334839,-0.005674883244334839
207.63,0.01383999290787782,-0.01383999290787782
207.631,0.0234037582500457,-0.0234037582500457
207.632,0.033314691733295196,-0.033314691733295196
207.633,0.04154014088918363,-0.04154014088918363
207.63400000000001,0.04567609954627586,-0.04567609954627586
207.63500000000002,0.04380896410902449,-0.04380896410902449
207.636,0.03530962784336425,-0.03530962784336425
207.637,0.021252471402220474,-0.021252471402220474
207.638,0.004278691556162278,-0.004278691556162278
207.639,0.01208045228832235,0.01208045228832235
207.64000000000001,0.024410409801994264,0.024410409801994264
207.64100000000002,0.030417751111198377,0.030417751111198377
207.642,0.029594228419766774,0.029594228419766774
207.643,0.023316090118969856,0.023316090118969856
207.644,0.01434676441708199,0.01434676441708199
207.645,0.005914139871896362,0.005914139871896362
207.64600000000002,0.0006757438472036349,0.0006757438472036349
207.64700000000002,8.307263813143586e-05,-8.307263813143586e-05
207.648,0.003239238523242719,0.003239238523242719
207.649,0.008821628911302455,0.008821628911302455
207.65,0.014139160631533781,0.014139160631533781
207.651,0.016872538322997704,0.016872538322997704
207.65200000000002,0.015688832308424477,0.015688832308424477
207.65300000000002,0.010634500028803522,0.010634500028803522
207.654,0.0030305504305132634,0.0030305504305132634
207.655,0.005059926153420883,-0.005059926153420883
207.656,0.01157540363993704,-0.01157540363993704
207.657,0.01513327051225692,-0.01513327051225692
207.65800000000002,0.0154058703677076,-0.0154058703677076
207.65900000000002,0.01308590266045067,-0.01308590266045067
207.66,0.009490686649160605,-0.009490686649160605
207.661,0.0059862807693610845,-0.0059862807693610845
207.662,0.003468474977235205,-0.003468474977235205
207.663,0.0021001075033435295,-0.0021001075033435295
207.66400000000002,0.0013908689232197012,-0.0013908689232197012
207.66500000000002,0.0005629841964145182,-0.0005629841964145182
207.666,0.0009696407784507945,0.0009696407784507945
207.667,0.0032250914609864545,0.0032250914609864545
207.668,0.005551703316566279,0.005551703316566279
207.669,0.006857837712141861,0.006857837712141861
207.67000000000002,0.006090360500061051,0.006090360500061051
207.67100000000002,0.0027695920290199995,0.0027695920290199995
207.672,0.002646717061332734,-0.002646717061332734
207.673,0.008743181397205542,-0.008743181397205542
207.674,0.013517362810183326,-0.013517362810183326
207.675,0.015037561838536181,-0.015037561838536181
207.67600000000002,0.01216555240672958,-0.01216555240672958
207.67700000000002,0.005081124888091478,-0.005081124888091478
207.678,0.004599883488236141,0.004599883488236141
207.679,0.014189033194800226,0.014189033194800226
207.68,0.0206794529507946,0.0206794529507946
207.681,0.02166055280032996,0.02166055280032996
207.68200000000002,0.016099834257460463,0.016099834257460463
207.68300000000002,0.004734450986239787,0.004734450986239787
207.684,0.010061147439571394,-0.010061147439571394
207.685,0.024896291739310874,-0.024896291739310874
207.686,0.03628239621257329,-0.03628239621257329
207.687,0.04156587324350305,-0.04156587324350305
207.68800000000002,0.03959623800012701,-0.03959623800012701
207.68900000000002,0.03094357994852736,-0.03094357994852736
207.69,0.017628935898728736,-0.017628935898728736
207.691,0.0024839533993252665,-0.0024839533993252665
207.692,0.011638437496998161,0.011638437496998161
207.693,0.022554909634877468,0.022554909634877468
207.69400000000002,0.029153566608516927,0.029153566608516927
207.69500000000002,0.031429801077638424,0.031429801077638424
207.696,0.030206348619290165,0.030206348619290165
207.697,0.02668330679537301,0.02668330679537301
207.698,0.02199788745984555,0.02199788745984555
207.699,0.01694041500989089,0.01694041500989089
207.70000000000002,0.011891672087694802,0.011891672087694802
207.70100000000002,0.006952141026652652,0.006952141026652652
207.702,0.002162781590331419,0.002162781590331419
207.703,0.0023056037641520435,-0.0023056037641520435
207.704,0.006087517526899573,-0.006087517526899573
207.705,0.008709785423510842,-0.008709785423510842
207.70600000000002,0.009785570378249772,-0.009785570378249772
207.70700000000002,0.009221754715799014,-0.009221754715799014
207.708,0.007339515783902577,-0.007339515783902577
207.709,0.004844287345484999,-0.004844287345484999
207.71,0.002643941525869698,-0.002643941525869698
207.711,0.0015764480122052226,-0.0015764480122052226
207.71200000000002,0.0021451722720599578,-0.0021451722720599578
207.71300000000002,0.004357350976490262,-0.004357350976490262
207.714,0.007721541974397703,-0.007721541974397703
207.715,0.011400154315370349,-0.011400154315370349
207.716,0.014457893519839435,-0.014457893519839435
207.717,0.016117519471901143,-0.016117519471901143
207.71800000000002,0.01594059080589734,-0.01594059080589734
207.71900000000002,0.013887696701149706,-0.013887696701149706
207.72,0.01026267626731663,-0.01026267626731663
207.721,0.0055867376882107545,-0.0055867376882107545
207.722,0.00046451526121876134,-0.00046451526121876134
207.723,0.00450966206523769,0.00450966206523769
207.72400000000002,0.008791525630680492,0.008791525630680492
207.72500000000002,0.011895638741709336,0.011895638741709336
207.726,0.01341591088300298,0.01341591088300298
207.727,0.013092260272761011,0.013092260272761011
207.728,0.010924203986879601,0.010924203986879601
207.729,0.007289195724736453,0.007289195724736453
207.73000000000002,0.0029937999435969732,0.0029937999435969732
207.73100000000002,0.0008116990482914557,-0.0008116990482914557
207.732,0.0028838153936681645,-0.0028838153936681645
207.733,0.0022621913557476373,-0.0022621913557476373
207.734,0.0013366392035842403,0.0013366392035842403
207.735,0.007255750682094522,0.007255750682094522
207.73600000000002,0.013898620979981652,0.013898620979981652
207.73700000000002,0.019056996683781042,0.019056996683781042
207.738,0.020518222149553744,0.020518222149553744
207.739,0.016791964520394116,0.016791964520394116
207.74,0.0077248635372256765,0.0077248635372256765
207.741,0.005225681056036639,-0.005225681056036639
207.74200000000002,0.019201590249490655,-0.019201590249490655
207.743,0.030633191054355413,-0.030633191054355413
207.744,0.03623865479470807,-0.03623865479470807
207.745,0.03404202607090685,-0.03404202607090685
207.746,0.02408286465842306,-0.02408286465842306
207.747,0.008563185048653513,-0.008563185048653513
207.74800000000002,0.008658529295931687,0.008658529295931687
207.749,0.023110452282243416,0.023110452282243416
207.75,0.03099114594618974,0.03099114594618974
207.751,0.030304168553041615,0.030304168553041615
207.752,0.02148373781072034,0.02148373781072034
207.75300000000001,0.007299940211370341,0.007299940211370341
207.75400000000002,0.007946129581335715,-0.007946129581335715
207.755,0.019702378453217408,-0.019702378453217408
207.756,0.024532357403434187,-0.024532357403434187
207.757,0.02114870283468051,-0.02114870283468051
207.758,0.010795899553694128,-0.010795899553694128
207.75900000000001,0.0031318449243608413,0.0031318449243608413
207.76000000000002,0.016113735958354566,0.016113735958354566
207.761,0.023846919106190464,0.023846919106190464
207.762,0.023501698737413434,0.023501698737413434
207.763,0.014517082509963171,0.014517082509963171
207.764,0.00127904908464133,-0.00127904908464133
207.76500000000001,0.02022598591400664,-0.02022598591400664
207.76600000000002,0.037860084465076306,-0.037860084465076306
207.767,0.05008936146184824,-0.05008936146184824
207.768,0.05416922489823516,-0.05416922489823516
207.769,0.04923011320130582,-0.04923011320130582
207.77,0.03627089495977996,-0.03627089495977996
207.77100000000002,0.01770330152933672,-0.01770330152933672
207.77200000000002,0.003346046226228191,0.003346046226228191
207.773,0.02373423739883655,0.02373423739883655
207.774,0.04081235718812988,0.04081235718812988
207.775,0.05266901528226363,0.05266901528226363
207.776,0.0581475074705881,0.0581475074705881
207.77700000000002,0.05675590765066067,0.05675590765066067
207.77800000000002,0.04859984824731009,0.04859984824731009
207.779,0.03441138673399156,0.03441138673399156
207.78,0.015654215050651354,0.015654215050651354
207.781,0.005398946833214874,-0.005398946833214874
207.782,0.025754660252317495,-0.025754660252317495
207.78300000000002,0.0420528937624474,-0.0420528937624474
207.78400000000002,0.051187423600786805,-0.051187423600786805
207.785,0.05106872230741992,-0.05106872230741992
207.786,0.04130776419861265,-0.04130776419861265
207.787,0.02357275983840697,-0.02357275983840697
207.788,0.0014362459097068778,-0.0014362459097068778
207.78900000000002,0.020326409755374076,0.020326409755374076
207.79000000000002,0.0368488623139108,0.0368488623139108
207.791,0.04440794150264058,0.04440794150264058
207.792,0.04142497051523482,0.04142497051523482
207.793,0.028924334947324895,0.028924334947324895
207.794,0.010288630941749017,0.010288630941749017
207.79500000000002,0.009641650629419466,-0.009641650629419466
207.79600000000002,0.025874627069148698,-0.025874627069148698
207.797,0.034602661918882026,-0.034602661918882026
207.798,0.034178891682641294,-0.034178891682641294
207.799,0.025456622977531044,-0.025456622977531044
207.8,0.011409957163801094,-0.011409957163801094
207.80100000000002,0.0038270310191866066,0.0038270310191866066
207.80200000000002,0.0161940370039227,0.0161940370039227
207.803,0.022832828412627012,0.022832828412627012
207.804,0.022782498548919682,0.022782498548919682
207.805,0.0170647228953343,0.0170647228953343
207.806,0.00818006366061917,0.00818006366061917
207.80700000000002,0.0007841366968747882,-0.0007841366968747882
207.80800000000002,0.007129372375232294,-0.007129372375232294
207.809,0.009299944366275731,-0.009299944366275731
207.81,0.007206971151967995,-0.007206971151967995
207.811,0.002069421793987443,-0.002069421793987443
207.812,0.004122519883687065,0.004122519883687065
207.81300000000002,0.009307483031070372,0.009307483031070372
207.81400000000002,0.011974217860960064,0.011974217860960064
207.815,0.01151714464873741,0.01151714464873741
207.816,0.0082504769609612,0.0082504769609612
207.817,0.003129340305783442,0.003129340305783442
207.818,0.0026809116994028926,-0.0026809116994028926
207.81900000000002,0.008213479803611638,-0.008213479803611638
207.82000000000002,0.012946018760005128,-0.012946018760005128
207.821,0.016821844336254,-0.016821844336254
207.822,0.020076596633282782,-0.020076596633282782
207.823,0.022970243640132913,-0.022970243640132913
207.824,0.025548409356276183,-0.025548409356276183
207.82500000000002,0.02753128825208442,-0.02753128825208442
207.82600000000002,0.02836774657058117,-0.02836774657058117
207.827,0.027423267969925415,-0.027423267969925415
207.828,0.02422043366459575,-0.02422043366459575
207.829,0.018636985966947857,-0.018636985966947857
207.83,0.010990803221992005,-0.010990803221992005
207.83100000000002,0.001989905245286663,-0.001989905245286663
207.83200000000002,0.007422889409633378,0.007422889409633378
207.833,0.016267552180170026,0.016267552180170026
207.834,0.02369943861917709,0.02369943861917709
207.835,0.029112849282017413,0.029112849282017413
207.836,0.03216861563406134,0.03216861563406134
207.83700000000002,0.03277147710252022,0.03277147710252022
207.83800000000002,0.03103656560692185,0.03103656560692185
207.839,0.02727394181308772,0.02727394181308772
207.84,0.021992948867763044,0.021992948867763044
207.841,0.0158996716763781,0.0158996716763781
207.842,0.009847593635914916,0.009847593635914916
207.84300000000002,0.004713319242782545,0.004713319242782545
207.84400000000002,0.001203677253838585,0.001203677253838585
207.845,0.0003565488975388413,-0.0003565488975388413
207.846,0.00017613550047083007,-0.00017613550047083007
207.847,0.0009927288231024452,0.0009927288231024452
207.848,0.002030801067473501,0.002030801067473501
207.84900000000002,0.0017939373227788896,0.0017939373227788896
207.85000000000002,0.0004705244290134061,-0.0004705244290134061
207.851,0.004773456998869831,-0.004773456998869831
207.852,0.01024262870274307,-0.01024262870274307
207.853,0.015281174021211855,-0.015281174021211855
207.854,0.01802150585259614,-0.01802150585259614
207.85500000000002,0.01696196917575134,-0.01696196917575134
207.85600000000002,0.011590404084894788,-0.011590404084894788
207.857,0.0027743983495980224,-0.0027743983495980224
207.858,0.007251909753350399,0.007251909753350399
207.859,0.015359477131216482,0.015359477131216482
207.86,0.018362528379779294,0.018362528379779294
207.86100000000002,0.013999860239401122,0.013999860239401122
207.86200000000002,0.0017655291938731515,0.0017655291938731515
207.863,0.016685800474816038,-0.016685800474816038
207.864,0.03772496139178318,-0.03772496139178318
207.865,0.05652313485718409,-0.05652313485718409
207.866,0.06823421535621396,-0.06823421535621396
207.86700000000002,0.06927101161302167,-0.06927101161302167
207.868,0.058318322895309284,-0.058318322895309284
207.869,0.0367879372344051,-0.0367879372344051
207.87,0.008571484237969686,-0.008571484237969686
207.871,0.020857251084976384,0.020857251084976384
207.872,0.04575648665965756,0.04575648665965756
207.87300000000002,0.06149756013817514,0.06149756013817514
207.874,0.06564810974051602,0.06564810974051602
207.875,0.058479713453677855,0.058479713453677855
207.876,0.04278454430485807,0.04278454430485807
207.877,0.023073898510531658,0.023073898510531658
207.87800000000001,0.004391689705222926,0.004391689705222926
207.87900000000002,0.008935115695671746,-0.008935115695671746
207.88,0.014289911119448781,-0.014289911119448781
207.881,0.01127185264684654,-0.01127185264684654
207.882,0.0016231013249129785,-0.0016231013249129785
207.883,0.011358889009991918,0.011358889009991918
207.88400000000001,0.02373762624137339,0.02373762624137339
207.88500000000002,0.03193210368445049,0.03193210368445049
207.886,0.033544719093563304,0.033544719093563304
207.887,0.02784275146323111,0.02784275146323111
207.888,0.015814431618974126,0.015814431618974126
207.889,0.0001720848689323212,-0.0001720848689323212
207.89000000000001,0.01699127813576434,-0.01699127813576434
207.89100000000002,0.03149873990166696,-0.03149873990166696
207.892,0.0412126116639611,-0.0412126116639611
207.893,0.04479544396602225,-0.04479544396602225
207.894,0.042250169212696816,-0.042250169212696816
207.895,0.034811249905987954,-0.034811249905987954
207.89600000000002,0.02457657415015683,-0.02457657415015683
207.89700000000002,0.013976074822116349,-0.013976074822116349
207.898,0.0052016558343992506,-0.0052016558343992506
207.899,0.00027415288641145704,0.00027415288641145704
207.9,0.001986435753423057,0.001986435753423057
207.901,0.000513533480182614,0.000513533480182614
207.90200000000002,0.00274105560582018,-0.00274105560582018
207.90300000000002,0.005961904510507985,-0.005961904510507985
207.904,0.007424110956379843,-0.007424110956379843
207.905,0.005956693986867395,-0.005956693986867395
207.906,0.0012485338975660287,-0.0012485338975660287
207.907,0.00608019524866159,0.00608019524866159
207.90800000000002,0.0146551771289041,0.0146551771289041
207.90900000000002,0.022720120250147264,0.022720120250147264
207.91,0.028597504369305946,0.028597504369305946
207.911,0.03110931107268118,0.03110931107268118
207.912,0.02984470532271366,0.02984470532271366
207.913,0.025210225174659037,0.025210225174659037
207.91400000000002,0.018264322638696297,0.018264322638696297
207.91500000000002,0.010400915270085711,0.010400915270085711
207.916,0.0029860050068347918,0.0029860050068347918
207.917,0.0029444936320602313,-0.0029444936320602313
207.918,0.006848482687559255,-0.006848482687559255
207.919,0.008679261428446028,-0.008679261428446028
207.92000000000002,0.00875747494926043,-0.00875747494926043
207.92100000000002,0.007584691383148718,-0.007584691383148718
207.922,0.0056781332440820845,-0.0056781332440820845
207.923,0.003482798957174069,-0.003482798957174069
207.924,0.0013734708940260022,-0.0013734708940260022
207.925,0.0002862123555472722,0.0002862123555472722
207.92600000000002,0.0010881477962381956,0.0010881477962381956
207.92700000000002,0.0005863824708166261,0.0005863824708166261
207.928,0.0016062023206333822,-0.0016062023206333822
207.929,0.005650691305567344,-0.005650691305567344
207.93,0.011307694859876056,-0.011307694859876056
207.931,0.01783925739160876,-0.01783925739160876
207.93200000000002,0.024056420262101953,-0.024056420262101953
207.93300000000002,0.028535220739360462,-0.028535220739360462
207.934,0.029960899366672844,-0.029960899366672844
207.935,0.027504274693203594,-0.027504274693203594
207.936,0.02110835469079016,-0.02110835469079016
207.937,0.011580098909899342,-0.011580098909899342
207.93800000000002,0.0004391413533361747,-0.0004391413533361747
207.93900000000002,0.010445830703268313,0.010445830703268313
207.94,0.019328906705444515,0.019328906705444515
207.941,0.02502182149791428,0.02502182149791428
207.942,0.027154448639490878,0.027154448639490878
207.943,0.026179321438123265,0.026179321438123265
207.94400000000002,0.023124221306862033,0.023124221306862033
207.94500000000002,0.01918267576513293,0.01918267576513293
207.946,0.015287627130216062,0.015287627130216062
207.947,0.011818256616374926,0.011818256616374926
207.948,0.008541544551319955,0.008541544551319955
207.949,0.004805297052586695,0.004805297052586695
207.95000000000002,9.188182635321708e-05,-9.188182635321708e-05
207.95100000000002,0.006493167927920033,-0.006493167927920033
207.952,0.014093357290932257,-0.014093357290932257
207.953,0.021880443169092687,-0.021880443169092687
207.954,0.028341947370363257,-0.028341947370363257
207.955,0.03187540373143881,-0.03187540373143881
207.95600000000002,0.0312699478656252,-0.0312699478656252
207.95700000000002,0.026100236297788845,-0.026100236297788845
207.958,0.016903445732649593,-0.016903445732649593
207.959,0.005083534950508156,-0.005083534950508156
207.96,0.007422556796113328,0.007422556796113328
207.961,0.01860683807599966,0.01860683807599966
207.96200000000002,0.02683617857907196,0.02683617857907196
207.96300000000002,0.031154985163193358,0.031154985163193358
207.964,0.0313765052400836,0.0313765052400836
207.965,0.027971826539485895,0.027971826539485895
207.966,0.021831356936929808,0.021831356936929808
207.967,0.014004065483321749,0.014004065483321749
207.96800000000002,0.005506135220098515,0.005506135220098515
207.96900000000002,0.002758154952699383,-0.002758154952699383
207.97,0.009981791590145958,-0.009981791590145958
207.971,0.015411716034888502,-0.015411716034888502
207.972,0.018353470425585897,-0.018353470425585897
207.973,0.018271671344430904,-0.018271671344430904
207.97400000000002,0.014977388913820194,-0.014977388913820194
207.97500000000002,0.008833696755270397,-0.008833696755270397
207.976,0.0008755285427528262,-0.0008755285427528262
207.977,0.0072515589058325305,0.0072515589058325305
207.978,0.013575280262793006,0.013575280262793006
207.979,0.016262670831031563,0.016262670831031563
207.98000000000002,0.014147828161718569,0.014147828161718569
207.98100000000002,0.007155322666573305,0.007155322666573305
207.982,0.0035362749294852312,-0.0035362749294852312
207.983,0.015677921677215313,-0.015677921677215313
207.984,0.026461411623742707,-0.026461411623742707
207.985,0.03323001527407565,-0.03323001527407565
207.98600000000002,0.03418658400087126,-0.03418658400087126
207.98700000000002,0.028887227505848632,-0.028887227505848632
207.988,0.01836829240177486,-0.01836829240177486
207.989,0.004865556914988876,-0.004865556914988876
207.99,0.00878926254837968,0.00878926254837968
207.991,0.019910799562864442,0.019910799562864442
207.99200000000002,0.02661900557460138,0.02661900557460138
207.993,0.02822722401676113,0.02822722401676113
207.994,0.02526598020791519,0.02526598020791519
207.995,0.019169320156504056,0.019169320156504056
207.996,0.011754922069343332,0.011754922069343332
207.997,0.004682715978810297,0.004682715978810297
207.99800000000002,0.0009364069663140753,-0.0009364069663140753
207.999,0.004681355980770794,-0.004681355980770794
208.0,0.00671050418735888,-0.00671050418735888
208.001,0.007489869687792751,-0.007489869687792751
208.002,0.007496963353316644,-0.007496963353316644
208.00300000000001,0.007027081369819467,-0.007027081369819467
208.00400000000002,0.006168293115073895,-0.006168293115073895
208.005,0.004927829012382914,-0.004927829012382914
208.006,0.003421478717965585,-0.003421478717965585
208.007,0.0020085856354771082,-0.0020085856354771082
208.008,0.001280243356989149,-0.001280243356989149
208.00900000000001,0.0018768966854154788,-0.0018768966854154788
208.01000000000002,0.004194925803263127,-0.004194925803263127
208.011,0.008104284120444966,-0.008104284120444966
208.012,0.012812733484461231,-0.012812733484461231
208.013,0.016967745174199727,-0.016967745174199727
208.014,0.018999279938161945,-0.018999279938161945
208.01500000000001,0.017608530963326548,-0.017608530963326548
208.01600000000002,0.012238448998035409,-0.012238448998035409
208.017,0.0033512951040228856,-0.0033512951040228856
208.018,0.00760515661963432,0.00760515661963432
208.019,0.018555388125002573,0.018555388125002573
208.02,0.027373106946245892,0.027373106946245892
208.02100000000002,0.03248778997044011,0.03248778997044011
208.02200000000002,0.033312687999978684,0.033312687999978684
208.023,0.03034408319302327,0.03034408319302327
208.024,0.024897272132223286,0.024897272132223286
208.025,0.01857688801217036,0.01857688801217036
208.026,0.012678605048201915,0.012678605048201915
208.02700000000002,0.0077473509150269735,0.0077473509150269735
208.02800000000002,0.0034608561395115724,0.0034608561395115724
208.029,0.0011148324594769585,-0.0011148324594769585
208.03,0.006995191126805909,-0.006995191126805909
208.031,0.014681316405810893,-0.014681316405810893
208.032,0.02374247452925421,-0.02374247452925421
208.03300000000002,0.032763507246902364,-0.032763507246902364
208.03400000000002,0.03971043510871229,-0.03971043510871229
208.035,0.04260636482139152,-0.04260636482139152
208.036,0.04028032260943595,-0.04028032260943595
208.037,0.03290472562132372,-0.03290472562132372
208.038,0.02209521025376821,-0.02209521025376821
208.03900000000002,0.010493746059854444,-0.010493746059854444
208.04000000000002,0.0009427422427575486,-0.0009427422427575486
208.041,0.004482551181044476,0.004482551181044476
208.042,0.00524376201981388,0.00524376201981388
208.043,0.0026179540038087177,0.0026179540038087177
208.044,0.0006535002166887586,-0.0006535002166887586
208.04500000000002,0.0012706311467046486,-0.0012706311467046486
208.04600000000002,0.003439639402826844,0.003439639402826844
208.047,0.014447931991938381,0.014447931991938381
208.048,0.03043268428343578,0.03043268428343578
208.049,0.04790923700656758,0.04790923700656758
208.05,0.062082826152022756,0.062082826152022756
208.05100000000002,0.068192477350348,0.068192477350348
208.05200000000002,0.06294441205918422,0.06294441205918422
208.053,0.04559261694422082,0.04559261694422082
208.054,0.018326105126805266,0.018326105126805266
208.055,0.014165409438802137,-0.014165409438802137
208.056,0.045822738362970905,-0.045822738362970905
208.05700000000002,0.07070980232219105,-0.07070980232219105
208.05800000000002,0.08443126930751099,-0.08443126930751099
208.059,0.08507846586934573,-0.08507846586934573
208.06,0.07346928182225351,-0.07346928182225351
208.061,0.052675347843324685,-0.052675347843324685
208.062,0.02704462549214767,-0.02704462549214767
208.06300000000002,0.0010593986537169625,-0.0010593986537169625
208.06400000000002,0.021620303775556654,0.021620303775556654
208.065,0.03868445227956619,0.03868445227956619
208.066,0.04920616870507271,0.04920616870507271
208.067,0.05329477599168371,0.05329477599168371
208.068,0.05160041369091828,0.05160041369091828
208.06900000000002,0.04491691188979702,0.04491691188979702
208.07000000000002,0.034043621162954174,0.034043621162954174
208.071,0.019919751751940214,0.019919751751940214
208.072,0.003899204738978727,0.003899204738978727
208.073,0.012048869998309359,-0.012048869998309359
208.074,0.0254124305168275,-0.0254124305168275
208.07500000000002,0.033568888076934485,-0.033568888076934485
208.07600000000002,0.03449983384520122,-0.03449983384520122
208.077,0.027558576341893813,-0.027558576341893813
208.078,0.013986265154812308,-0.013986265154812308
208.079,0.0030866725833019163,0.0030866725833019163
208.08,0.01926458001606928,0.01926458001606928
208.08100000000002,0.030030229882449192,0.030030229882449192
208.08200000000002,0.03209679901691599,0.03209679901691599
208.083,0.024540029278054983,0.024540029278054983
208.084,0.009305285486394877,0.009305285486394877
208.085,0.009148528966462774,-0.009148528966462774
208.086,0.025040694773045796,-0.025040694773045796
208.08700000000002,0.032988432975490874,-0.032988432975490874
208.08800000000002,0.029746775188180526,-0.029746775188180526
208.089,0.015413152849532638,-0.015413152849532638
208.09,0.006327513089108747,0.006327513089108747
208.091,0.029063986252746192,0.029063986252746192
208.092,0.045431500481064764,0.045431500481064764
208.09300000000002,0.04930317725802664,0.04930317725802664
208.09400000000002,0.03774944061355639,0.03774944061355639
208.095,0.012153856257275853,0.012153856257275853
208.096,0.02189524635826034,-0.02189524635826034
208.097,0.05596099929821137,-0.05596099929821137
208.098,0.08100979953134632,-0.08100979953134632
208.09900000000002,0.08992712474734173,-0.08992712474734173
208.10000000000002,0.0795707282680916,-0.0795707282680916
208.101,0.05175578102178921,-0.05175578102178921
208.102,0.012870007773908626,-0.012870007773908626
208.103,0.027787250183575942,0.027787250183575942
208.104,0.060478047551577034,0.060478047551577034
208.10500000000002,0.07761302485316653,0.07761302485316653
208.10600000000002,0.07572601973705137,0.07572601973705137
208.107,0.056292354028142144,0.056292354028142144
208.108,0.02518534196523604,0.02518534196523604
208.109,0.009042882770034781,-0.009042882770034781
208.11,0.037541287025629755,-0.037541287025629755
208.11100000000002,0.05351439886180778,-0.05351439886180778
208.11200000000002,0.05389720048188291,-0.05389720048188291
208.113,0.03991614378324377,-0.03991614378324377
208.114,0.01643875676224778,-0.01643875676224778
208.115,0.009634911688742134,0.009634911688742134
208.116,0.03142442601919907,0.03142442601919907
208.11700000000002,0.04395122878749161,0.04395122878749161
208.118,0.045323100480980934,0.045323100480980934
208.119,0.036928962745687195,0.036928962745687195
208.12,0.02266161110007357,0.02266161110007357
208.121,0.0074730255360115965,0.0074730255360115965
208.122,0.004253141197843018,-0.004253141197843018
208.12300000000002,0.010003165091068515,-0.010003165091068515
208.124,0.009731408806619692,-0.009731408806619692
208.125,0.005616584648672594,-0.005616584648672594
208.126,0.0011065910471369223,-0.0011065910471369223
208.127,0.0004024921383805942,0.0004024921383805942
208.12800000000001,0.0031901215056781367,-0.0031901215056781367
208.12900000000002,0.011922957785136483,-0.011922957785136483
208.13,0.023714090062389358,-0.023714090062389358
208.131,0.0350116433947507,-0.0350116433947507
208.132,0.04192954410962907,-0.04192954410962907
208.133,0.04149952369848853,-0.04149952369848853
208.13400000000001,0.032644743078299156,-0.032644743078299156
208.13500000000002,0.016577964452256285,-0.016577964452256285
208.136,0.003487016703983898,0.003487016703983898
208.137,0.02320887807472033,0.02320887807472033
208.138,0.03830191865431316,0.03830191865431316
208.139,0.045671442545602195,0.045671442545602195
208.14000000000001,0.044174385515320956,0.044174385515320956
208.14100000000002,0.0348062927270245,0.0348062927270245
208.142,0.02029697999361711,0.02029697999361711
208.143,0.0042726623913812885,0.0042726623913812885
208.144,0.009741896288893272,-0.009741896288893272
208.145,0.019183610150134787,-0.019183610150134787
208.14600000000002,0.02294481033156447,-0.02294481033156447
208.14700000000002,0.021404607848718622,-0.021404607848718622
208.148,0.016051961854355343,-0.016051961854355343
208.149,0.008872118880273063,-0.008872118880273063
208.15,0.0017181814684792114,-0.0017181814684792114
208.151,0.0041378567674176655,0.0041378567674176655
208.15200000000002,0.008168389167902763,0.008168389167902763
208.15300000000002,0.01047422654244021,0.01047422654244021
208.154,0.011491347184024224,0.011491347184024224
208.155,0.011668565366451628,0.011668565366451628
208.156,0.011249506802822214,0.011249506802822214
208.157,0.01022812056475158,0.01022812056475158
208.15800000000002,0.008462899141956234,0.008462899141956234
208.15900000000002,0.005866178208659517,0.005866178208659517
208.16,0.002558431202022952,0.002558431202022952
208.161,0.0010979213983319186,-0.0010979213983319186
208.162,0.0046076137791266425,-0.0046076137791266425
208.163,0.007543962928869354,-0.007543962928869354
208.16400000000002,0.009741721151224216,-0.009741721151224216
208.16500000000002,0.011376171184636373,-0.011376171184636373
208.166,0.012869167495593883,-0.012869167495593883
208.167,0.014641417144773438,-0.014641417144773438
208.168,0.016808873727165937,-0.016808873727165937
208.169,0.01896455346250245,-0.01896455346250245
208.17000000000002,0.02017231794300882,-0.02017231794300882
208.17100000000002,0.019225701487342855,-0.019225701487342855
208.172,0.015116805055275906,-0.015116805055275906
208.173,0.007558675444169797,-0.007558675444169797
208.174,0.0026476294044013742,0.0026476294044013742
208.175,0.013585101969505898,0.013585101969505898
208.17600000000002,0.02261337371559486,0.02261337371559486
208.17700000000002,0.027113557608336575,0.027113557608336575
208.178,0.025371993589711858,0.025371993589711858
208.179,0.017304864374327284,0.017304864374327284
208.18,0.004740358112030658,0.004740358112030658
208.181,0.008904841046213238,-0.008904841046213238
208.18200000000002,0.019524672772519472,-0.019524672772519472
208.18300000000002,0.02356389778963151,-0.02356389778963151
208.184,0.01922091465443886,-0.01922091465443886
208.185,0.007207785570150434,-0.007207785570150434
208.186,0.009228159314820536,0.009228159314820536
208.187,0.02509686860452224,0.02509686860452224
208.18800000000002,0.03508482108775104,0.03508482108775104
208.18900000000002,0.03519344129350821,0.03519344129350821
208.19,0.024089210753478654,0.024089210753478654
208.191,0.0037189467782920917,0.0037189467782920917
208.192,0.021046005137133138,-0.021046005137133138
208.193,0.04367562186857555,-0.04367562186857555
208.19400000000002,0.05780583259351169,-0.05780583259351169
208.19500000000002,0.05908279979083912,-0.05908279979083912
208.196,0.04646660682897579,-0.04646660682897579
208.197,0.022590731660275854,-0.022590731660275854
208.198,0.006939327670359514,0.006939327670359514
208.199,0.03509860473282952,0.03509860473282952
208.20000000000002,0.0553760636717519,0.0553760636717519
208.20100000000002,0.06350752880157823,0.06350752880157823
208.202,0.05850046816527974,0.05850046816527974
208.203,0.04267538076913727,0.04267538076913727
208.204,0.020761919364363068,0.020761919364363068
208.205,0.0016212117502725,-0.0016212117502725
208.20600000000002,0.01959919337581845,-0.01959919337581845
208.20700000000002,0.030278914773124922,-0.030278914773124922
208.208,0.03324412999563327,-0.03324412999563327
208.209,0.030225674269898743,-0.030225674269898743
208.21,0.02414111667184216,-0.02414111667184216
208.211,0.017892176859673814,-0.017892176859673814
208.21200000000002,0.013357315861404368,-0.013357315861404368
208.21300000000002,0.01091149364920337,-0.01091149364920337
208.214,0.009589874300086875,-0.009589874300086875
208.215,0.0077689157354138005,-0.0077689157354138005
208.216,0.004055361187457228,-0.004055361187457228
208.217,0.00198523325328572,0.00198523325328572
208.21800000000002,0.009547171048910005,0.009547171048910005
208.21900000000002,0.016850485730041807,0.016850485730041807
208.22,0.02183529690831392,0.02183529690831392
208.221,0.022998486767217052,0.022998486767217052
208.222,0.020032775063282604,0.020032775063282604
208.223,0.014007025327596614,0.014007025327596614
208.22400000000002,0.007006593949051377,0.007006593949051377
208.22500000000002,0.0013644553493650645,0.0013644553493650645
208.226,0.0012234529195911449,-0.0012234529195911449
208.227,0.0003543107001644387,-0.0003543107001644387
208.228,0.002917010850779632,0.002917010850779632
208.229,0.00648344572282998,0.00648344572282998
208.23000000000002,0.008021161686078655,0.008021161686078655
208.23100000000002,0.005944239487516549,0.005944239487516549
208.232,0.00011121767810642505,0.00011121767810642505
208.233,0.00800259823203678,-0.00800259823203678
208.234,0.015760872861445556,-0.015760872861445556
208.235,0.020309448622611543,-0.020309448622611543
208.23600000000002,0.019676043280542864,-0.019676043280542864
208.23700000000002,0.013620875482657186,-0.013620875482657186
208.238,0.0039048989233966417,-0.0039048989233966417
208.239,0.006160513161765001,0.006160513161765001
208.24,0.012764311810560463,0.012764311810560463
208.241,0.012907398082296373,0.012907398082296373
208.24200000000002,0.0055271548989903165,0.0055271548989903165
208.243,0.007967048706531745,-0.007967048706531745
208.244,0.02396128334141415,-0.02396128334141415
208.245,0.03765395306860726,-0.03765395306860726
208.246,0.044513238626326265,-0.044513238626326265
208.247,0.04171068011451655,-0.04171068011451655
208.24800000000002,0.029065127155350912,-0.029065127155350912
208.249,0.009185489353197504,-0.009185489353197504
208.25,0.013241186519707099,0.013241186519707099
208.251,0.032794538417032094,0.032794538417032094
208.252,0.04487620491846001,0.04487620491846001
208.25300000000001,0.046992652188655816,0.046992652188655816
208.25400000000002,0.039379307760127574,0.039379307760127574
208.255,0.024798261240853277,0.024798261240853277
208.256,0.007606714728031699,0.007606714728031699
208.257,0.007583459680062002,-0.007583459680062002
208.258,0.017224279285814655,-0.017224279285814655
208.25900000000001,0.01973045482982474,-0.01973045482982474
208.26000000000002,0.015718385666736955,-0.015718385666736955
208.261,0.007569195643289339,-0.007569195643289339
208.262,0.0014876589385076889,0.0014876589385076889
208.263,0.008440861831345453,0.008440861831345453
208.264,0.011368813111046433,0.011368813111046433
208.26500000000001,0.009868328123936065,0.009868328123936065
208.26600000000002,0.004960184449678102,0.004960184449678102
208.267,0.0014324807823209982,-0.0014324807823209982
208.268,0.007211527046733848,-0.007211527046733848
208.269,0.010777539449608431,-0.010777539449608431
208.27,0.011442979243377612,-0.011442979243377612
208.27100000000002,0.009492240104242097,-0.009492240104242097
208.27200000000002,0.0059257993434062885,-0.0059257993434062885
208.273,0.0020240131214661946,-0.0020240131214661946
208.274,0.001096707948159524,0.001096707948159524
208.275,0.0027907284906476828,0.0027907284906476828
208.276,0.0029817710309821706,0.0029817710309821706
208.27700000000002,0.0020667178506569993,0.0020667178506569993
208.27800000000002,0.0007010210522112202,0.0007010210522112202
208.279,0.00043647565249503215,-0.00043647565249503215
208.28,0.000821812530897468,-0.000821812530897468
208.281,0.00017499345641576567,-0.00017499345641576567
208.282,0.0015270278001902429,0.0015270278001902429
208.28300000000002,0.00407564046064508,0.00407564046064508
208.28400000000002,0.007060401915920956,0.007060401915920956
208.285,0.009895184226600207,0.009895184226600207
208.286,0.011861302483689934,0.011861302483689934
208.287,0.012201009889536764,0.012201009889536764
208.288,0.010280466285808339,0.010280466285808339
208.28900000000002,0.005803695778863274,0.005803695778863274
208.29000000000002,0.0009845369311386207,-0.0009845369311386207
208.291,0.009195162996480944,-0.009195162996480944
208.292,0.01736897421886292,-0.01736897421886292
208.293,0.023757060292842105,-0.023757060292842105
208.294,0.02676034810741987,-0.02676034810741987
208.29500000000002,0.025407925961144308,-0.025407925961144308
208.29600000000002,0.019715047635974484,-0.019715047635974484
208.297,0.01077906172630812,-0.01077906172630812
208.298,0.0005463202826408826,-0.0005463202826408826
208.299,0.008706605956046715,0.008706605956046715
208.3,0.015027105453322503,0.015027105453322503
208.30100000000002,0.017363673255284706,0.017363673255284706
208.30200000000002,0.015864359967689173,0.015864359967689173
208.303,0.011780777634386693,0.011780777634386693
208.304,0.006996590958341152,0.006996590958341152
208.305,0.0033358173446897572,0.0033358173446897572
208.306,0.0018934257845906264,0.0018934257845906264
208.30700000000002,0.0026330778097241225,0.0026330778097241225
208.30800000000002,0.0044087149071382024,0.0044087149071382024
208.309,0.005416190534828622,0.005416190534828622
208.31,0.003921376231402018,0.003921376231402018
208.311,0.0009985876627520882,-0.0009985876627520882
208.312,0.008980635355537976,-0.008980635355537976
208.31300000000002,0.018360211836345026,-0.018360211836345026
208.31400000000002,0.026644533240898115,-0.026644533240898115
208.315,0.03132374237938884,-0.03132374237938884
208.316,0.030737202242239574,-0.030737202242239574
208.317,0.02468030066163625,-0.02468030066163625
208.318,0.014520958309271664,-0.014520958309271664
208.31900000000002,0.0027676166114512834,-0.0027676166114512834
208.32000000000002,0.007769258304586116,0.007769258304586116
208.321,0.014925829171490674,0.014925829171490674
208.322,0.017898157276746575,0.017898157276746575
208.323,0.0174523726482367,0.0174523726482367
208.324,0.015544223601660823,0.015544223601660823
208.32500000000002,0.014479339548756348,0.014479339548756348
208.32600000000002,0.015922730814319483,0.015922730814319483
208.327,0.02013398275271693,0.02013398275271693
208.328,0.02573399317634739,0.02573399317634739
208.329,0.03012113376778528,0.03012113376778528
208.33,0.030414863052692115,0.030414863052692115
208.33100000000002,0.02460007940304362,0.02460007940304362
208.33200000000002,0.012452972059410067,0.012452972059410067
208.333,0.00411272822952421,-0.00411272822952421
208.334,0.02144690114818439,-0.02144690114818439
208.335,0.035216430837557294,-0.035216430837557294
208.336,0.041776068582058554,-0.041776068582058554
208.33700000000002,0.0393931811276584,-0.0393931811276584
208.33800000000002,0.02889477437765635,-0.02889477437765635
208.339,0.013491379433523314,-0.013491379433523314
208.34,0.002189280301199362,0.002189280301199362
208.341,0.013551960779674658,0.013551960779674658
208.342,0.017487401881364252,0.017487401881364252
208.34300000000002,0.013341568020189192,0.013341568020189192
208.34400000000002,0.0030734390922823535,0.0030734390922823535
208.345,0.00944993131128369,-0.00944993131128369
208.346,0.019777247307932698,-0.019777247307932698
208.347,0.02436082902409614,-0.02436082902409614
208.348,0.021700914058570806,-0.021700914058570806
208.34900000000002,0.012762903648570766,-0.012762903648570766
208.35000000000002,0.0005409780894493587,-0.0005409780894493587
208.351,0.011059672670082267,0.011059672670082267
208.352,0.0186146190519712,0.0186146190519712
208.353,0.02034974666488877,0.02034974666488877
208.354,0.016680130547699977,0.016680130547699977
208.35500000000002,0.009941390498517387,0.009941390498517387
208.35600000000002,0.003428433966020677,0.003428433966020677
208.357,0.00010371357009788147,0.00010371357009788147
208.358,0.0014518313992500195,0.0014518313992500195
208.359,0.006899564794706371,0.006899564794706371
208.36,0.014012266773541105,0.014012266773541105
208.36100000000002,0.019394915409707614,0.019394915409707614
208.36200000000002,0.01997081196306788,0.01997081196306788
208.363,0.014174427930487062,0.014174427930487062
208.364,0.00262529135710137,0.00262529135710137
208.365,0.01196493148399864,-0.01196493148399864
208.366,0.02562715448217093,-0.02562715448217093
208.36700000000002,0.03442389521865308,-0.03442389521865308
208.368,0.03574620332571204,-0.03574620332571204
208.369,0.02917201718805845,-0.02917201718805845
208.37,0.016596240728344078,-0.016596240728344078
208.371,0.0015987449898874964,-0.0015987449898874964
208.372,0.01172040944192796,0.01172040944192796
208.37300000000002,0.020031811932080233,0.020031811932080233
208.374,0.021755728057882465,0.021755728057882465
208.375,0.017413898294613005,0.017413898294613005
208.376,0.00926739526740562,0.00926739526740562
208.377,0.00040481728291349593,0.00040481728291349593
208.37800000000001,0.006371238394759144,-0.006371238394759144
208.37900000000002,0.009458181370338123,-0.009458181370338123
208.38,0.008858281428927793,-0.008858281428927793
208.381,0.005963364143975786,-0.005963364143975786
208.382,0.00283875051672757,-0.00283875051672757
208.383,0.0013036381614322274,-0.0013036381614322274
208.38400000000001,0.0021675332361240653,-0.0021675332361240653
208.38500000000002,0.0049103523823415115,-0.0049103523823415115
208.386,0.007917841511931454,-0.007917841511931454
208.387,0.009171438649666718,-0.009171438649666718
208.388,0.007121552574165394,-0.007121552574165394
208.389,0.0014068009868209092,-0.0014068009868209092
208.39000000000001,0.006858983644649189,0.006858983644649189
208.39100000000002,0.015349563397424786,0.015349563397424786
208.392,0.021255085014181857,0.021255085014181857
208.393,0.0222245291099429,0.0222245291099429
208.394,0.017193783266829032,0.017193783266829032
208.395,0.006813108953235497,0.006813108953235497
208.39600000000002,0.006671035605787623,-0.006671035605787623
208.39700000000002,0.02003724522446165,-0.02003724522446165
208.398,0.030004333070848523,-0.030004333070848523
208.399,0.03414279083523969,-0.03414279083523969
208.4,0.0315013166673093,-0.0315013166673093
208.401,0.022776701397774803,-0.022776701397774803
208.40200000000002,0.01001407540498085,-0.01001407540498085
208.40300000000002,0.004026011540480417,0.004026011540480417
208.404,0.01660787795622156,0.01660787795622156
208.405,0.02563873910312716,0.02563873910312716
208.406,0.030008865177029692,0.030008865177029692
208.407,0.029614764248794077,0.029614764248794077
208.40800000000002,0.02513764912113949,0.02513764912113949
208.40900000000002,0.01771485520152535,0.01771485520152535
208.41,0.008642566600550582,0.008642566600550582
208.411,0.0008068817225647673,-0.0008068817225647673
208.412,0.009449780296386509,-0.009449780296386509
208.413,0.016200611122577868,-0.016200611122577868
208.41400000000002,0.02011160061954041,-0.02011160061954041
208.41500000000002,0.020498011219026665,-0.020498011219026665
208.416,0.017139537347167118,-0.017139537347167118
208.417,0.010479793649932248,-0.010479793649932248
208.418,0.001709805627437047,-0.001709805627437047
208.419,0.007360444229370779,0.007360444229370779
208.42000000000002,0.014667701975031217,0.014667701975031217
208.42100000000002,0.018426225955392325,0.018426225955392325
208.422,0.017667377427132824,0.017667377427132824
208.423,0.01259890671269634,0.01259890671269634
208.424,0.004633297970790967,0.004633297970790967
208.425,0.003963362937868787,-0.003963362937868787
208.42600000000002,0.010718825779658188,-0.010718825779658188
208.42700000000002,0.013702350768019688,-0.013702350768019688
208.428,0.012126984872654156,-0.012126984872654156
208.429,0.006597537482267323,-0.006597537482267323
208.43,0.0010902096094787957,0.0010902096094787957
208.431,0.00853978228129222,0.00853978228129222
208.43200000000002,0.013536356596171575,0.013536356596171575
208.43300000000002,0.014752449165219915,0.014752449165219915
208.434,0.012132054065387313,0.012132054065387313
208.435,0.006821107592142805,0.006821107592142805
208.436,0.0006747066647154793,0.0006747066647154793
208.437,0.00447473684478291,-0.00447473684478291
208.43800000000002,0.007515851711238373,-0.007515851711238373
208.43900000000002,0.008461244919410632,-0.008461244919410632
208.44,0.008400456573393469,-0.008400456573393469
208.441,0.009014530653110834,-0.009014530653110834
208.442,0.011828567450897004,-0.011828567450897004
208.443,0.01748138234035962,-0.01748138234035962
208.44400000000002,0.025293390939372266,-0.025293390939372266
208.44500000000002,0.033312653981803934,-0.033312653981803934
208.446,0.03884983383749481,-0.03884983383749481
208.447,0.03933593103442714,-0.03933593103442714
208.448,0.03321572589980944,-0.03321572589980944
208.449,0.020568776373593837,-0.020568776373593837
208.45000000000002,0.0032368995881369373,-0.0032368995881369373
208.45100000000002,0.015598059142109605,0.015598059142109605
208.452,0.03225765555983085,0.03225765555983085
208.453,0.043563051137611324,0.043563051137611324
208.454,0.04766859809593416,0.04766859809593416
208.455,0.04447803954218607,0.04447803954218607
208.45600000000002,0.03553332198458367,0.03553332198458367
208.45700000000002,0.023442452158550075,0.023442452158550075
208.458,0.011058885296924486,0.011058885296924486
208.459,0.0006913684236128417,0.0006913684236128417
208.46,0.0064092554176297546,-0.0064092554176297546
208.461,0.010154437338400199,-0.010154437338400199
208.46200000000002,0.011333450711437633,-0.011333450711437633
208.46300000000002,0.01109275288241899,-0.01109275288241899
208.464,0.010399247237440557,-0.010399247237440557
208.465,0.009689451351402619,-0.009689451351402619
208.466,0.008815470033619101,-0.008815470033619101
208.467,0.007273227728499281,-0.007273227728499281
208.46800000000002,0.004588000385870052,-0.004588000385870052
208.46900000000002,0.0006779230569358284,-0.0006779230569358284
208.47,0.00396456988718814,0.00396456988718814
208.471,0.008351917961525712,0.008351917961525712
208.472,0.011310831680031245,0.011310831680031245
208.473,0.011898902837122744,0.011898902837122744
208.47400000000002,0.009764577283355183,0.009764577283355183
208.47500000000002,0.00531136417864134,0.00531136417864134
208.476,0.0003949332735231842,-0.0003949332735231842
208.477,0.005938731115411121,-0.005938731115411121
208.478,0.009969988169109514,-0.009969988169109514
208.479,0.011574614438462036,-0.011574614438462036
208.48000000000002,0.010479763620717975,-0.010479763620717975
208.48100000000002,0.007045352033342895,-0.007045352033342895
208.482,0.0020773705664153923,-0.0020773705664153923
208.483,0.0034395293138672284,0.0034395293138672284
208.484,0.008577193548078954,0.008577193548078954
208.485,0.012588275883145735,0.012588275883145735
208.48600000000002,0.014907258290683225,0.014907258290683225
208.48700000000002,0.015082022105814065,0.015082022105814065
208.488,0.01272493714054791,0.01272493714054791
208.489,0.007559216198410661,0.007559216198410661
208.49,0.00042047112086289706,-0.00042047112086289706
208.491,0.010729025525804403,-0.010729025525804403
208.49200000000002,0.022226945554334347,-0.022226945554334347
208.493,0.03313425958465019,-0.03313425958465019
208.494,0.041295404160936765,-0.041295404160936765
208.495,0.044672896509715024,-0.044672896509715024
208.496,0.04194287924917862,-0.04194287924917862
208.497,0.03299537134920471,-0.03299537134920471
208.49800000000002,0.019140954608320975,-0.019140954608320975
208.499,0.002903496523823816,-0.002903496523823816
208.5,0.012585918013564413,0.012585918013564413
208.501,0.024432023397977037,0.024432023397977037
208.502,0.030791424180708727,0.030791424180708727
208.50300000000001,0.031383508657159984,0.031383508657159984
208.50400000000002,0.027505123973500672,0.027505123973500672
208.505,0.021521960115540507,0.021521960115540507
208.506,0.015995367248589926,0.015995367248589926
208.507,0.012743411367115435,0.012743411367115435
208.508,0.012174451982824162,0.012174451982824162
208.50900000000001,0.013149432111568231,0.013149432111568231
208.51000000000002,0.013448238439508133,0.013448238439508133
208.511,0.010696565738598524,0.010696565738598524
208.512,0.003430776922225593,0.003430776922225593
208.513,0.008093079804355505,-0.008093079804355505
208.514,0.021671797950019202,-0.021671797950019202
208.51500000000001,0.03364443802377567,-0.03364443802377567
208.51600000000002,0.03998375698114849,-0.03998375698114849
208.517,0.037651324784128117,-0.037651324784128117
208.518,0.02576228668309615,-0.02576228668309615
208.519,0.00614349854585983,-0.00614349854585983
208.52,0.01694682300276441,0.01694682300276441
208.52100000000002,0.037897454546979174,0.037897454546979174
208.52200000000002,0.051311078461986216,0.051311078461986216
208.523,0.05357726728580401,0.05357726728580401
208.524,0.043953316259723145,0.043953316259723145
208.525,0.024804511289181295,0.024804511289181295
208.526,0.0009223064765593737,0.0009223064765593737
208.52700000000002,0.021866051457304685,-0.021866051457304685
208.52800000000002,0.03835846051093661,-0.03835846051093661
208.529,0.04539221901035683,-0.04539221901035683
208.53,0.042585103755951974,-0.042585103755951974
208.531,0.03220440124318023,-0.03220440124318023
208.532,0.018250606288980335,-0.018250606288980335
208.53300000000002,0.005089245116709384,-0.005089245116709384
208.53400000000002,0.003908793869453161,0.003908793869453161
208.535,0.007288571671362242,0.007288571671362242
208.536,0.005734790746484851,0.005734790746484851
208.537,0.0015846888253020733,0.0015846888253020733
208.538,0.0021489485057564575,-0.0021489485057564575
208.53900000000002,0.002880525584071486,-0.002880525584071486
208.54000000000002,0.0006933505055411237,0.0006933505055411237
208.541,0.008241899567086567,0.008241899567086567
208.542,0.018011802635079403,0.018011802635079403
208.543,0.027466391890352434,0.027466391890352434
208.544,0.034088005973571915,0.034088005973571915
208.54500000000002,0.03605911724044653,0.03605911724044653
208.54600000000002,0.032623078025171046,0.032623078025171046
208.547,0.024073265379175632,0.024073265379175632
208.548,0.011466550958511337,0.011466550958511337
