Czas,AbsSum,Sum
25.704,0.036997245265534835,-0.036997245265534835
25.705000000000002,0.035796446121508584,-0.035796446121508584
25.706000000000003,0.030366090991622914,-0.030366090991622914
25.707,0.02069112093439781,-0.02069112093439781
25.708000000000002,0.0077439362396667126,-0.0077439362396667126
25.709000000000003,0.006663300092125063,0.006663300092125063
25.71,0.020221068657192507,0.020221068657192507
25.711000000000002,0.030587456525864965,0.030587456525864965
25.712000000000003,0.03587518577367505,0.03587518577367505
25.713,0.03505534358052201,0.03505534358052201
25.714000000000002,0.028192214149082098,0.028192214149082098
25.715000000000003,0.016462609708873182,0.016462609708873182
25.716,0.0019608908045093106,0.0019608908045093106
25.717000000000002,0.012664864939135398,-0.012664864939135398
25.718000000000004,0.024669826811535626,-0.024669826811535626
25.719,0.03167617339114961,-0.03167617339114961
25.720000000000002,0.032065852855246574,-0.032065852855246574
25.721,0.025246470364087045,-0.025246470364087045
25.722,0.011761371410294649,-0.011761371410294649
25.723000000000003,0.006760742405252687,0.006760742405252687
25.724,0.02780398798761379,0.02780398798761379
25.725,0.04828795590919445,0.04828795590919445
25.726000000000003,0.06498394132014255,0.06498394132014255
25.727,0.07498479017723553,0.07498479017723553
25.728,0.07617562350582223,0.07617562350582223
25.729000000000003,0.0676382859604107,0.0676382859604107
25.73,0.04991279855167165,0.04991279855167165
25.731,0.025043026121784672,0.025043026121784672
25.732000000000003,0.0036418643821680354,-0.0036418643821680354
25.733,0.03201255827930464,-0.03201255827930464
25.734,0.05583301430015159,-0.05583301430015159
25.735000000000003,0.07154295809069587,-0.07154295809069587
25.736,0.07696801591558236,-0.07696801591558236
25.737000000000002,0.0717893204518842,-0.0717893204518842
25.738000000000003,0.057641973996525535,-0.057641973996525535
25.739,0.03778987688963411,-0.03778987688963411
25.740000000000002,0.016426199117483848,-0.016426199117483848
25.741000000000003,0.0022522252422812993,0.0022522252422812993
25.742,0.014980675765353512,0.014980675765353512
25.743000000000002,0.020142369742832414,0.020142369742832414
25.744000000000003,0.01808140316637626,0.01808140316637626
25.745,0.01092894911963408,0.01092894911963408
25.746000000000002,0.0019844646730459645,0.0019844646730459645
25.747000000000003,0.005188497897615434,-0.005188497897615434
25.748,0.007715554733944775,-0.007715554733944775
25.749000000000002,0.00416429172414899,-0.00416429172414899
25.75,0.005098159903050339,0.005098159903050339
25.751,0.01802982476580692,0.01802982476580692
25.752000000000002,0.03147756026466027,0.03147756026466027
25.753,0.042020048220668696,0.042020048220668696
25.754,0.04686024073153674,0.04686024073153674
25.755000000000003,0.04453172317468457,0.04453172317468457
25.756,0.03524181524540617,0.03524181524540617
25.757,0.020777992320527103,0.020777992320527103
25.758000000000003,0.004022684591391161,0.004022684591391161
25.759,0.011778626439449685,-0.011778626439449685
25.76,0.02379605217351297,-0.02379605217351297
25.761000000000003,0.030242467033836318,-0.030242467033836318
25.762,0.03070478718520755,-0.03070478718520755
25.763,0.026121965043208562,-0.026121965043208562
25.764000000000003,0.018446211164485183,-0.018446211164485183
25.765,0.010099068751197359,-0.010099068751197359
25.766000000000002,0.0033725103698224726,-0.0033725103698224726
25.767000000000003,7.854089695155307e-05,7.854089695155307e-05
25.768,0.0004544927400783409,-0.0004544927400783409
25.769000000000002,0.00466914270551011,-0.00466914270551011
25.770000000000003,0.011415534546187798,-0.011415534546187798
25.771,0.01902309545706421,-0.01902309545706421
25.772000000000002,0.025699213963517785,-0.025699213963517785
25.773000000000003,0.029907797348911445,-0.029907797348911445
25.774,0.030654722365729987,-0.030654722365729987
25.775000000000002,0.027637563756243592,-0.027637563756243592
25.776000000000003,0.021249630565010672,-0.021249630565010672
25.777,0.012456264820166256,-0.012456264820166256
25.778000000000002,0.0025807920775436383,-0.0025807920775436383
25.779000000000003,0.00695241701860933,0.00695241701860933
25.78,0.01486875756878457,0.01486875756878457
25.781000000000002,0.020244653079746256,0.020244653079746256
25.782,0.02262738415656664,0.02262738415656664
25.783,0.02205787314283045,0.02205787314283045
25.784000000000002,0.019000019040175092,0.019000019040175092
25.785,0.014199319879704545,0.014199319879704545
25.786,0.008508495138640281,0.008508495138640281
25.787000000000003,0.0027243364997236222,0.0027243364997236222
25.788,0.002524843465199482,-0.002524843465199482
25.789,0.00681800328234504,-0.00681800328234504
25.790000000000003,0.009907052193985326,-0.009907052193985326
25.791,0.011634551333654224,-0.011634551333654224
25.792,0.011845583770000043,-0.011845583770000043
25.793000000000003,0.010338883059522108,-0.010338883059522108
25.794,0.0068887803123086,-0.0068887803123086
25.795,0.0013427558222785484,-0.0013427558222785484
25.796000000000003,0.00623227540352591,0.00623227540352591
25.797,0.01540732194410587,0.01540732194410587
25.798000000000002,0.025314065533414823,0.025314065533414823
25.799000000000003,0.03468274368773635,0.03468274368773635
25.8,0.04201336108990027,0.04201336108990027
25.801000000000002,0.04585622161203147,0.04585622161203147
25.802000000000003,0.045138297366097396,0.045138297366097396
25.803,0.03944876977933686,0.03944876977933686
25.804000000000002,0.02919926495045576,0.02919926495045576
25.805000000000003,0.015603063026583562,0.015603063026583562
25.806,0.000465381424799046,0.000465381424799046
25.807000000000002,0.014170387090602107,-0.014170387090602107
25.808000000000003,0.026434109079959113,-0.026434109079959113
25.809,0.03499453314436081,-0.03499453314436081
25.810000000000002,0.039288438960368176,-0.039288438960368176
25.811000000000003,0.03956151852666806,-0.03956151852666806
25.812,0.036722002200910174,-0.036722002200910174
25.813000000000002,0.03205844885683071,-0.03205844885683071
25.814,0.02690593269498104,-0.02690593269498104
25.815,0.022350967578582775,-0.022350967578582775
25.816000000000003,0.019044697625496775,-0.019044697625496775
25.817,0.017154586233786174,-0.017154586233786174
25.818,0.01644097936821504,-0.01644097936821504
25.819000000000003,0.016410987279363683,-0.016410987279363683
25.82,0.016488223682553052,-0.016488223682553052
25.821,0.01614554896017471,-0.01614554896017471
25.822000000000003,0.014973516512155548,-0.014973516512155548
25.823,0.012688525752561948,-0.012688525752561948
25.824,0.009109267118545214,-0.009109267118545214
25.825000000000003,0.004138794477426133,-0.004138794477426133
25.826,0.002220006212843097,0.002220006212843097
25.827,0.009810805974615918,0.009810805974615918
25.828000000000003,0.01825363754196613,0.01825363754196613
25.829,0.026897756246825957,0.026897756246825957
25.830000000000002,0.034838679873283714,0.034838679873283714
25.831000000000003,0.04102342558367676,0.04102342558367676
25.832,0.04443756282447539,0.04443756282447539
25.833000000000002,0.044334762343237216,0.044334762343237216
25.834000000000003,0.04044639989989829,0.04044639989989829
25.835,0.033104920704220546,0.033104920704220546
25.836000000000002,0.023233104996235765,0.023233104996235765
25.837000000000003,0.012187398683221771,0.012187398683221771
25.838,0.0014861008667863978,0.0014861008667863978
25.839000000000002,0.007511196215917286,-0.007511196215917286
25.840000000000003,0.013889626529927514,-0.013889626529927514
25.841,0.017354862769141208,-0.017354862769141208
25.842000000000002,0.01825316556160959,-0.01825316556160959
25.843000000000004,0.0174335335078087,-0.0174335335078087
25.844,0.015993269236551807,-0.015993269236551807
25.845000000000002,0.014978710540301823,-0.014978710540301823
25.846,0.015121632287638105,-0.015121632287638105
25.847,0.016677232260735152,-0.016677232260735152
25.848000000000003,0.019397233576823467,-0.019397233576823467
25.849,0.022632166871077237,-0.022632166871077237
25.85,0.025522530253987964,-0.025522530253987964
25.851000000000003,0.027219028798237014,-0.027219028798237014
25.852,0.027071895886598602,-0.027071895886598602
25.853,0.024746482043122645,-0.024746482043122645
25.854000000000003,0.020249711061635395,-0.020249711061635395
25.855,0.013879972073337304,-0.013879972073337304
25.856,0.006132663663265401,-0.006132663663265401
25.857000000000003,0.0024003373868145238,0.0024003373868145238
25.858,0.011106800220494498,0.011106800220494498
25.859,0.019392599984811677,0.019392599984811677
25.860000000000003,0.026688698941252916,0.026688698941252916
25.861,0.03244711395371063,0.03244711395371063
25.862000000000002,0.03615043321733856,0.03615043321733856
25.863000000000003,0.03735226662294403,0.03735226662294403
25.864,0.035750571462435356,0.035750571462435356
25.865000000000002,0.03127801806031137,0.03127801806031137
25.866000000000003,0.024180203687487026,0.024180203687487026
25.867,0.015048881504206444,0.015048881504206444
25.868000000000002,0.004785520084928482,0.004785520084928482
25.869000000000003,0.005511397934895053,-0.005511397934895053
25.87,0.01471913225343101,-0.01471913225343101
25.871000000000002,0.021886848963176563,-0.021886848963176563
25.872000000000003,0.026407198965661453,-0.026407198965661453
25.873,0.028117401317968874,-0.028117401317968874
25.874000000000002,0.02729992953790996,-0.02729992953790996
25.875,0.0245791162926599,-0.0245791162926599
25.876,0.020739337189879206,-0.020739337189879206
25.877000000000002,0.01651432380795858,-0.01651432380795858
25.878,0.012407939096266946,-0.012407939096266946
25.879,0.008600067754334364,-0.008600067754334364
25.880000000000003,0.004967674216258149,-0.004967674216258149
25.881,0.0012163232468962745,-0.0012163232468962745
25.882,0.0029186873091099925,0.0029186873091099925
25.883000000000003,0.007468746627493421,0.007468746627493421
25.884,0.012100191261194618,0.012100191261194618
25.885,0.016112259751844625,0.016112259751844625
25.886000000000003,0.018585216562355455,0.018585216562355455
25.887,0.018650412503307894,0.018650412503307894
25.888,0.01580844395591087,0.01580844395591087
25.889000000000003,0.010194299349531564,0.010194299349531564
25.89,0.002690660595967264,0.002690660595967264
25.891000000000002,0.005174556151986382,-0.005174556151986382
25.892000000000003,0.0115498598437429,-0.0115498598437429
25.893,0.0147346661295883,-0.0147346661295883
25.894000000000002,0.013682301033011619,-0.013682301033011619
25.895000000000003,0.008381194587230214,-0.008381194587230214
25.896,1.8051063053055172e-05,1.8051063053055172e-05
25.897000000000002,0.009400458913574715,0.009400458913574715
25.898000000000003,0.01718932670966504,0.01718932670966504
25.899,0.021038944940770025,0.021038944940770025
25.900000000000002,0.019532833816285153,0.019532833816285153
25.901000000000003,0.012682243659435457,0.012682243659435457
25.902,0.0020590318010104505,0.0020590318010104505
25.903000000000002,0.00951016888446775,-0.00951016888446775
25.904000000000003,0.01863902244958759,-0.01863902244958759
25.905,0.02229869144139322,-0.02229869144139322
25.906000000000002,0.018712973425854047,-0.018712973425854047
25.907,0.0079763444997737,-0.0079763444997737
25.908,0.007797504902640971,0.007797504902640971
25.909000000000002,0.024867505648330585,0.024867505648330585
25.91,0.03872063235418718,0.03872063235418718
25.911,0.045182335228224985,0.045182335228224985
25.912000000000003,0.04149613895269476,0.04149613895269476
25.913,0.0270874378335286,0.0270874378335286
25.914,0.003806615270710782,0.003806615270710782
25.915000000000003,0.024416170644192044,-0.024416170644192044
25.916,0.05241675886085585,-0.05241675886085585
25.917,0.07492595045262837,-0.07492595045262837
25.918000000000003,0.08769660756380923,-0.08769660756380923
25.919,0.08835537994287573,-0.08835537994287573
25.92,0.07679021427369181,-0.07679021427369181
25.921000000000003,0.05501541821665544,-0.05501541821665544
25.922,0.026593330669061905,-0.026593330669061905
25.923000000000002,0.004203513917436275,0.004203513917436275
25.924000000000003,0.03326057534959226,0.03326057534959226
25.925,0.057312618643404215,0.057312618643404215
25.926000000000002,0.07432704468572748,0.07432704468572748
25.927000000000003,0.08355039935284017,0.08355039935284017
25.928,0.08528431941418331,0.08528431941418331
25.929000000000002,0.0805175139626745,0.0805175139626745
25.930000000000003,0.0705523152693347,0.0705523152693347
25.931,0.05673123722966299,0.05673123722966299
25.932000000000002,0.040308444441792074,0.040308444441792074
25.933000000000003,0.022447545780793905,0.022447545780793905
25.934,0.00428303816402609,0.00428303816402609
25.935000000000002,0.013029224930486376,-0.013029224930486376
25.936000000000003,0.02832731644451934,-0.02832731644451934
25.937,0.040539307555744974,-0.040539307555744974
25.938000000000002,0.04883347967028693,-0.04883347967028693
25.939,0.05276909931215778,-0.05276909931215778
25.94,0.05239127989283406,-0.05239127989283406
25.941000000000003,0.048233547825597946,-0.048233547825597946
25.942,0.04122477353857257,-0.04122477353857257
25.943,0.03252879490661968,-0.03252879490661968
25.944000000000003,0.023362839927018177,-0.023362839927018177
25.945,0.014839039415074095,-0.014839039415074095
25.946,0.007854939277121718,-0.007854939277121718
25.947000000000003,0.0030339555634288223,-0.0030339555634288223
25.948,0.0006974318891006495,-0.0006974318891006495
25.949,0.0008453768508484725,-0.0008453768508484725
25.950000000000003,0.0031347744141622044,-0.0031347744141622044
25.951,0.006866065823783575,-0.006866065823783575
25.952,0.0110080265012517,-0.0110080265012517
25.953000000000003,0.014296655938606923,-0.014296655938606923
25.954,0.015428205355909795,-0.015428205355909795
25.955000000000002,0.013332581106958048,-0.013332581106958048
25.956000000000003,0.007472704841097771,-0.007472704841097771
25.957,0.001915207984233963,0.001915207984233963
25.958000000000002,0.013730598991193738,0.013730598991193738
25.959000000000003,0.02612898233139368,0.02612898233139368
25.96,0.03685963936261815,0.03685963936261815
25.961000000000002,0.04375770212623385,0.04375770212623385
25.962000000000003,0.045269758730086526,0.045269758730086526
25.963,0.04086669710481919,0.04086669710481919
25.964000000000002,0.03121708995633109,0.03121708995633109
25.965000000000003,0.018056704950203256,0.018056704950203256
25.966,0.0037773046005054986,0.0037773046005054986
25.967000000000002,0.00915658383977395,-0.00915658383977395
25.968000000000004,0.018799121367583077,-0.018799121367583077
25.969,0.02415374531807153,-0.02415374531807153
25.970000000000002,0.0253218122573481,-0.0253218122573481
25.971,0.023335136124410218,-0.023335136124410218
25.972,0.019736281701681756,-0.019736281701681756
25.973000000000003,0.016047535110953578,-0.016047535110953578
25.974,0.013300171845572153,-0.013300171845572153
25.975,0.011770015883721728,-0.011770015883721728
25.976000000000003,0.010992362212133433,-0.010992362212133433
25.977,0.010034136039704458,-0.010034136039704458
25.978,0.007916099355647894,-0.007916099355647894
25.979000000000003,0.004031610856232015,-0.004031610856232015
25.98,0.001584144587217099,0.001584144587217099
25.981,0.00822320025568066,0.00822320025568066
25.982000000000003,0.014714616698069298,0.014714616698069298
25.983,0.019793091114628677,0.019793091114628677
25.984,0.022491253632020706,0.022491253632020706
25.985000000000003,0.02241664626433047,0.02241664626433047
25.986,0.019819980292170022,0.019819980292170022
25.987000000000002,0.015439063641283673,0.015439063641283673
25.988000000000003,0.010184370265105037,0.010184370265105037
25.989,0.004788338094026635,0.004788338094026635
25.990000000000002,0.00044853042749868943,-0.00044853042749868943
25.991000000000003,0.005719053034724722,-0.005719053034724722
25.992,0.011554148821019438,-0.011554148821019438
25.993000000000002,0.018506743135625916,-0.018506743135625916
25.994000000000003,0.026789996361587912,-0.026789996361587912
25.995,0.03600339575495592,-0.03600339575495592
25.996000000000002,0.04505163464690246,-0.04505163464690246
25.997000000000003,0.05229649075456024,-0.05229649075456024
25.998,0.05590433469326882,-0.05590433469326882
25.999000000000002,0.05428844402281239,-0.05428844402281239
26.0,0.04651703350930407,-0.04651703350930407
26.001,0.03257274841777894,-0.03257274841777894
26.002000000000002,0.013399836559409585,-0.013399836559409585
26.003,0.009258102091925308,0.009258102091925308
26.004,0.03316774669985991,0.03316774669985991
26.005000000000003,0.05596868024332357,0.05596868024332357
26.006,0.07549710468100715,0.07549710468100715
26.007,0.09001068992514857,0.09001068992514857
26.008000000000003,0.09830023621317902,0.09830023621317902
26.009,0.09971380694945545,0.09971380694945545
26.01,0.09413824176356869,0.09413824176356869
26.011000000000003,0.08197648220606242,0.08197648220606242
26.012,0.0641334586889887,0.0641334586889887
26.013,0.041993127643364644,0.041993127643364644
26.014000000000003,0.01735088020723963,0.01735088020723963
26.015,0.007730466734757437,-0.007730466734757437
26.016000000000002,0.03114647987421138,-0.03114647987421138
26.017000000000003,0.05102606039796816,-0.05102606039796816
26.018,0.06599047029230835,-0.06599047029230835
26.019000000000002,0.07532100544439752,-0.07532100544439752
26.020000000000003,0.07897976661833205,-0.07897976661833205
26.021,0.07747380435059373,-0.07747380435059373
26.022000000000002,0.07160863959733653,-0.07160863959733653
26.023000000000003,0.06222074904070353,-0.06222074904070353
26.024,0.04999071567317108,-0.04999071567317108
26.025000000000002,0.03541102192848348,-0.03541102192848348
26.026000000000003,0.018921978554730077,-0.018921978554730077
26.027,0.0011571181853354717,-0.0011571181853354717
26.028000000000002,0.016816541031743806,0.016816541031743806
26.029000000000003,0.033393356920943196,0.033393356920943196
26.03,0.0465531875219732,0.0465531875219732
26.031000000000002,0.05423004120038659,0.05423004120038659
26.032,0.05484436243272063,0.05484436243272063
26.033,0.047839554561254986,0.047839554561254986
26.034000000000002,0.034034131855559424,0.034034131855559424
26.035,0.01563720350337832,0.01563720350337832
26.036,0.004129680581021734,-0.004129680581021734
26.037000000000003,0.02173554440541599,-0.02173554440541599
26.038,0.03418480101931207,-0.03418480101931207
26.039,0.03975893767045432,-0.03975893767045432
26.040000000000003,0.03842592935963716,-0.03842592935963716
26.041,0.031781287653611254,-0.031781287653611254
26.042,0.02252762204525565,-0.02252762204525565
26.043000000000003,0.013646455720722093,-0.013646455720722093
26.044,0.0075173402717099,-0.0075173402717099
26.045,0.005259291662498132,-0.005259291662498132
26.046000000000003,0.006499114241195519,-0.006499114241195519
26.047,0.00963189171538919,-0.00963189171538919
26.048000000000002,0.012476533339518448,-0.012476533339518448
26.049000000000003,0.013098414923659048,-0.013098414923659048
26.05,0.010516687539566137,-0.010516687539566137
26.051000000000002,0.005055052499231848,-0.005055052499231848
26.052000000000003,0.0017816307491453913,0.0017816307491453913
26.053,0.007858496166187664,0.007858496166187664
26.054000000000002,0.011194887553002958,0.011194887553002958
26.055000000000003,0.010705628251947291,0.010705628251947291
26.056,0.006637342841922613,0.006637342841922613
26.057000000000002,0.0005426287202879381,0.0005426287202879381
26.058000000000003,0.005205590686414669,-0.005205590686414669
26.059,0.00819808361683122,-0.00819808361683122
26.060000000000002,0.006806635199999643,-0.006806635199999643
26.061000000000003,0.0007572927291223105,-0.0007572927291223105
26.062,0.008734886834339045,0.008734886834339045
26.063000000000002,0.01931488339489699,0.01931488339489699
26.064,0.028202569023628228,0.028202569023628228
26.065,0.03303447080031432,0.03303447080031432
26.066000000000003,0.032556190417251094,0.032556190417251094
26.067,0.026946959777292542,0.026946959777292542
26.068,0.017688666584223637,0.017688666584223637
26.069000000000003,0.007048357896459195,0.007048357896459195
26.07,0.002629852830963168,-0.002629852830963168
26.071,0.00957432933694145,-0.00957432933694145
26.072000000000003,0.012964960459823992,-0.012964960459823992
26.073,0.012941214874416771,-0.012941214874416771
26.074,0.01028158530390532,-0.01028158530390532
26.075000000000003,0.005917526960904464,-0.005917526960904464
26.076,0.0004989272124696333,-0.0004989272124696333
26.077,0.005803988936204428,0.005803988936204428
26.078000000000003,0.01318244606762135,0.01318244606762135
26.079,0.021811912317297084,0.021811912317297084
26.080000000000002,0.0313892882096332,0.0313892882096332
26.081000000000003,0.04080688517906532,0.04080688517906532
26.082,0.04814621723084335,0.04814621723084335
26.083000000000002,0.05105866777594693,0.05105866777594693
26.084000000000003,0.047448775882539374,0.047448775882539374
26.085,0.03624529170941195,0.03624529170941195
26.086000000000002,0.017985825761346556,0.017985825761346556
26.087000000000003,0.005020941599778886,-0.005020941599778886
26.088,0.029064430553067507,-0.029064430553067507
26.089000000000002,0.04986682248136756,-0.04986682248136756
26.090000000000003,0.0636547693444215,-0.0636547693444215
26.091,0.06814724831173899,-0.06814724831173899
26.092000000000002,0.06315121113638342,-0.06315121113638342
26.093000000000004,0.05057332840826741,-0.05057332840826741
26.094,0.033839646997750175,-0.033839646997750175
26.095000000000002,0.01690419306692591,-0.01690419306692591
26.096,0.0031583538383259543,-0.0031583538383259543
26.097,0.005419477966045328,0.005419477966045328
26.098000000000003,0.00861962443108126,0.00861962443108126
26.099,0.007776610659557779,0.007776610659557779
26.1,0.0050733904619750525,0.0050733904619750525
26.101000000000003,0.0026370227609704183,0.0026370227609704183
26.102,0.0017492221494399246,0.0017492221494399246
26.103,0.002443205574948355,0.002443205574948355
26.104000000000003,0.0036131417745340964,0.0036131417745340964
26.105,0.003576139772281968,0.003576139772281968
26.106,0.000864907848642412,0.000864907848642412
26.107000000000003,0.005051378607537818,-0.005051378607537818
26.108,0.013392194291568684,-0.013392194291568684
26.109,0.022184726587980305,-0.022184726587980305
26.110000000000003,0.028846023296658953,-0.028846023296658953
26.111,0.03102963635229078,-0.03102963635229078
26.112000000000002,0.02744096044528698,-0.02744096044528698
26.113000000000003,0.018333000000372822,-0.018333000000372822
26.114,0.005503666540527199,-0.005503666540527199
26.115000000000002,0.008211920906761427,0.008211920906761427
26.116000000000003,0.01978614336118913,0.01978614336118913
26.117,0.02689723283869831,0.02689723283869831
26.118000000000002,0.02858176150313053,0.02858176150313053
26.119000000000003,0.02542975115560977,0.02542975115560977
26.12,0.019271206502607604,0.019271206502607604
26.121000000000002,0.01247853913414954,0.01247853913414954
26.122000000000003,0.007138487780462122,0.007138487780462122
26.123,0.004384922257441131,0.004384922257441131
26.124000000000002,0.004118277640898457,0.004118277640898457
26.125,0.0051930178746858275,0.0051930178746858275
26.126,0.00598391908945461,0.00598391908945461
26.127000000000002,0.005106425980657418,0.005106425980657418
26.128,0.0020142000810299105,0.0020142000810299105
26.129,0.0027535874602991855,-0.0027535874602991855
26.130000000000003,0.007770023860172424,-0.007770023860172424
26.131,0.011290469166490062,-0.011290469166490062
26.132,0.011980240390162555,-0.011980240390162555
26.133000000000003,0.009521192889019975,-0.009521192889019975
26.134,0.004855904167959498,-0.004855904167959498
26.135,4.4874324860072495e-05,4.4874324860072495e-05
26.136000000000003,0.0028337181881388195,0.0028337181881388195
26.137,0.001642873762106336,0.001642873762106336
26.138,0.00415310499265636,-0.00415310499265636
26.139000000000003,0.013548043829286488,-0.013548043829286488
26.14,0.024049850659113,-0.024049850659113
26.141000000000002,0.03234497465486503,-0.03234497465486503
26.142000000000003,0.03528765612215162,-0.03528765612215162
26.143,0.03090339580431143,-0.03090339580431143
26.144000000000002,0.019081114234900942,-0.019081114234900942
26.145000000000003,0.0017214832709741541,-0.0017214832709741541
26.146,0.01772017167564441,0.01772017167564441
26.147000000000002,0.03516539036026418,0.03516539036026418
26.148000000000003,0.04703652573503369,0.04703652573503369
26.149,0.05123093998557199,0.05123093998557199
26.150000000000002,0.04765264359377568,0.04765264359377568
26.151000000000003,0.03815008805074988,0.03815008805074988
26.152,0.02589525829948203,0.02589525829948203
26.153000000000002,0.014409765737760798,0.014409765737760798
26.154000000000003,0.006544280038443179,0.006544280038443179
26.155,0.003718634739581375,0.003718634739581375
26.156000000000002,0.005634843789264422,0.005634843789264422
26.157,0.01051852691883672,0.01051852691883672
26.158,0.015778714636508696,0.015778714636508696
26.159000000000002,0.01885484872418246,0.01885484872418246
26.16,0.01797906221344937,0.01797906221344937
26.161,0.012629511376896583,0.012629511376896583
26.162000000000003,0.0035654789515836595,0.0035654789515836595
26.163,0.00752452045197474,-0.00752452045197474
26.164,0.018611570413694677,-0.018611570413694677
26.165000000000003,0.027941742975068747,-0.027941742975068747
26.166,0.034480794579507895,-0.034480794579507895
26.167,0.03806701449702989,-0.03806701449702989
26.168000000000003,0.039259637034168744,-0.039259637034168744
26.169,0.038972382196938625,-0.038972382196938625
26.17,0.03804391612223333,-0.03804391612223333
26.171000000000003,0.036902073196233814,-0.036902073196233814
26.172,0.035430128032747206,-0.035430128032747206
26.173000000000002,0.03306272102968915,-0.03306272102968915
26.174000000000003,0.0290567535755073,-0.0290567535755073
26.175,0.022826986362835856,-0.022826986362835856
26.176000000000002,0.014223696134197493,-0.014223696134197493
26.177000000000003,0.0036605846556267813,-0.0036605846556267813
26.178,0.007939791712089509,0.007939791712089509
26.179000000000002,0.01935181727241428,0.01935181727241428
26.180000000000003,0.029326332249088555,0.029326332249088555
26.181,0.03685185036486354,0.03685185036486354
26.182000000000002,0.04132390823774692,0.04132390823774692
26.183000000000003,0.042589708141050085,0.042589708141050085
26.184,0.040880806163614135,0.040880806163614135
26.185000000000002,0.036680014940773074,0.036680014940773074
26.186000000000003,0.030579605072539647,0.030579605072539647
26.187,0.023175838514897837,0.023175838514897837
26.188000000000002,0.015018324815568298,0.015018324815568298
26.189,0.00660474395246826,0.00660474395246826
26.19,0.0016059345803206078,-0.0016059345803206078
26.191000000000003,0.009189502915725248,-0.009189502915725248
26.192,0.0157759245825545,-0.0157759245825545
26.193,0.021086327930859315,-0.021086327930859315
26.194000000000003,0.024966450104080554,-0.024966450104080554
26.195,0.02739258855171586,-0.02739258855171586
26.196,0.028437620587521965,-0.028437620587521965
26.197000000000003,0.028205167178871667,-0.028205167178871667
26.198,0.02675950126603249,-0.02675950126603249
26.199,0.024087128471100713,-0.024087128471100713
26.200000000000003,0.020117414080619966,-0.020117414080619966
26.201,0.014805938711810466,-0.014805938711810466
26.202,0.008254394877879809,-0.008254394877879809
26.203000000000003,0.000817584810061096,-0.000817584810061096
26.204,0.006857179204903235,0.006857179204903235
26.205000000000002,0.013895321824870677,0.013895321824870677
26.206000000000003,0.01936563861236453,0.01936563861236453
26.207,0.02251460461577958,0.02251460461577958
26.208000000000002,0.022990496309924596,0.022990496309924596
26.209000000000003,0.020975711185949677,0.020975711185949677
26.21,0.017168217586379757,0.017168217586379757
26.211000000000002,0.01260059536582502,0.01260059536582502
26.212000000000003,0.008342188116977487,0.008342188116977487
26.213,0.005176007225582979,0.005176007225582979
26.214000000000002,0.0033590921951218156,0.0033590921951218156
26.215000000000003,0.002554280097112595,0.002554280097112595
26.216,0.0019673075856541174,0.0019673075856541174
26.217000000000002,0.0006529364547798015,0.0006529364547798015
26.218000000000004,0.0021084753160423124,-0.0021084753160423124
26.219,0.006493951039486875,-0.006493951039486875
26.220000000000002,0.011997737610784258,-0.011997737610784258
26.221,0.01753029047800809,-0.01753029047800809
26.222,0.021738190773677134,-0.021738190773677134
26.223000000000003,0.02344771378046479,-0.02344771378046479
26.224,0.02208493198763946,-0.02208493198763946
26.225,0.017923653991114823,-0.017923653991114823
26.226000000000003,0.012062335167377553,-0.012062335167377553
26.227,0.006117861269738487,-0.006117861269738487
26.228,0.0017199487504002764,-0.0017199487504002764
26.229000000000003,3.733760819760386e-05,3.733760819760386e-05
26.23,0.0009935820066737612,-0.0009935820066737612
26.231,0.003886265306013894,-0.003886265306013894
26.232000000000003,0.006857026872561939,-0.006857026872561939
26.233,0.0077786829657822045,-0.0077786829657822045
26.234,0.004846378294725049,-0.004846378294725049
26.235000000000003,0.0028041857753008693,0.0028041857753008693
26.236,0.014719172225810522,0.014719172225810522
26.237000000000002,0.029115474678369203,0.029115474678369203
26.238000000000003,0.043254161237535484,0.043254161237535484
26.239,0.05410176291357869,0.05410176291357869
26.240000000000002,0.05909616984936339,0.05909616984936339
26.241000000000003,0.05680233060065626,0.05680233060065626
26.242,0.0472755618552847,0.0472755618552847
26.243000000000002,0.03203631056090586,0.03203631056090586
26.244000000000003,0.013672667087451684,0.013672667087451684
26.245,0.004808604028600198,-0.004808604028600198
26.246000000000002,0.020696162854476816,-0.020696162854476816
26.247000000000003,0.03215818457855454,-0.03215818457855454
26.248,0.038549256211144266,-0.038549256211144266
26.249000000000002,0.040380383912804,-0.040380383912804
26.25,0.03899128237671423,-0.03899128237671423
26.251,0.036044506380293245,-0.036044506380293245
26.252000000000002,0.03300059449065987,-0.03300059449065987
26.253,0.03072378075228442,-0.03072378075228442
26.254,0.029315951578978115,-0.029315951578978115
26.255000000000003,0.028201390013666026,-0.028201390013666026
26.256,0.026410687366943044,-0.026410687366943044
26.257,0.022960609404767674,-0.022960609404767674
26.258000000000003,0.017210338266237454,-0.017210338266237454
26.259,0.009094185702414707,-0.009094185702414707
26.26,0.0008233648201486977,0.0008233648201486977
26.261000000000003,0.01146900424419477,0.01146900424419477
26.262,0.021509072961726872,0.021509072961726872
26.263,0.029647929066632085,0.029647929066632085
26.264000000000003,0.03489587850651683,0.03489587850651683
26.265,0.03674506350410939,0.03674506350410939
26.266000000000002,0.035223500543176786,0.035223500543176786
26.267000000000003,0.03083149260524369,0.03083149260524369
26.268,0.024391606366917166,0.024391606366917166
26.269000000000002,0.016857911813731582,0.016857911813731582
26.270000000000003,0.00913138531303081,0.00913138531303081
26.271,0.0019190302783203138,0.0019190302783203138
26.272000000000002,0.004341104691853052,-0.004341104691853052
26.273000000000003,0.009483753383017463,-0.009483753383017463
26.274,0.0135590131916233,-0.0135590131916233
26.275000000000002,0.016735071757858648,-0.016735071757858648
26.276000000000003,0.019189280624489283,-0.019189280624489283
26.277,0.021017253237708422,-0.021017253237708422
26.278000000000002,0.022185243029229973,-0.022185243029229973
26.279000000000003,0.02254061249234747,-0.02254061249234747
26.28,0.021879774876057072,-0.021879774876057072
26.281000000000002,0.020055398588899678,-0.020055398588899678
26.282,0.017089476125747252,-0.017089476125747252
26.283,0.013251382497179415,-0.013251382497179415
26.284000000000002,0.009064525734473434,-0.009064525734473434
26.285,0.00522280213139749,-0.00522280213139749
26.286,0.002425598772882884,-0.002425598772882884
26.287000000000003,0.0011700384680738366,-0.0011700384680738366
26.288,0.0015615861382757678,-0.0015615861382757678
26.289,0.0032097994932332222,-0.0032097994932332222
26.290000000000003,0.005259916999716172,-0.005259916999716172
26.291,0.006574937025021531,-0.006574937025021531
26.292,0.006035928785390509,-0.006035928785390509
26.293000000000003,0.002884771866005256,-0.002884771866005256
26.294,0.002991502363117461,0.002991502363117461
26.295,0.010931187756363649,0.010931187756363649
26.296000000000003,0.01958341099793981,0.01958341099793981
26.297,0.027208859092654757,0.027208859092654757
26.298000000000002,0.03212887305993591,0.03212887305993591
26.299000000000003,0.033202877836478746,0.033202877836478746
26.3,0.03019324274490566,0.03019324274490566
26.301000000000002,0.02389777577901865,0.02389777577901865
26.302000000000003,0.015990180182311197,0.015990180182311197
26.303,0.008592298242110833,0.008592298242110833
26.304000000000002,0.0036846327828476484,0.0036846327828476484
26.305000000000003,0.002517872508187241,0.002517872508187241
26.306,0.005198984244905226,0.005198984244905226
26.307000000000002,0.010584865627139567,0.010584865627139567
26.308000000000003,0.01653404751919893,0.01653404751919893
26.309,0.020465195725290732,0.020465195725290732
26.310000000000002,0.020079642792806083,0.020079642792806083
26.311000000000003,0.01405132693698978,0.01405132693698978
26.312,0.0024883815621837726,0.0024883815621837726
26.313000000000002,0.012972495844995007,-0.012972495844995007
26.314,0.029479980520969017,-0.029479980520969017
26.315,0.043620007036826516,-0.043620007036826516
26.316000000000003,0.05224158592718286,-0.05224158592718286
26.317,0.053243082382083834,-0.053243082382083834
26.318,0.04611405985003398,-0.04611405985003398
26.319000000000003,0.03209170833659786,-0.03209170833659786
26.32,0.013892020300606916,-0.013892020300606916
26.321,0.004913847146085634,0.004913847146085634
26.322000000000003,0.020718066287301305,0.020718066287301305
26.323,0.03068405462824911,0.03068405462824911
26.324,0.03334743562216168,0.03334743562216168
26.325000000000003,0.028872657564941964,0.028872657564941964
26.326,0.01891913410501148,0.01891913410501148
26.327,0.006169053485464748,0.006169053485464748
26.328000000000003,0.006351233655903001,-0.006351233655903001
26.329,0.015982178686975244,-0.015982178686975244
26.330000000000002,0.021003802600348193,-0.021003802600348193
26.331000000000003,0.02094476130078474,-0.02094476130078474
26.332,0.016574482290179875,-0.016574482290179875
26.333000000000002,0.009604780025880461,-0.009604780025880461
26.334000000000003,0.002194385279995179,-0.002194385279995179
26.335,0.0036108385087629735,0.0036108385087629735
26.336000000000002,0.006364588008420505,0.006364588008420505
26.337000000000003,0.005524485492604623,0.005524485492604623
26.338,0.001516397120436292,0.001516397120436292
26.339000000000002,0.004438151895431367,-0.004438151895431367
26.340000000000003,0.010672985388633847,-0.010672985388633847
26.341,0.015510727843591199,-0.015510727843591199
26.342000000000002,0.01767030081046134,-0.01767030081046134
26.343000000000004,0.01655376090433338,-0.01655376090433338
26.344,0.012352670437271002,-0.012352670437271002
26.345000000000002,0.005960894836571866,-0.005960894836571866
26.346,0.001272327497051733,0.001272327497051733
26.347,0.007879079012081578,0.007879079012081578
26.348000000000003,0.01261209897528228,0.01261209897528228
26.349,0.014704806072339724,0.014704806072339724
26.35,0.013995391416948978,0.013995391416948978
26.351000000000003,0.010896739705243765,0.010896739705243765
26.352,0.006234972621975201,0.006234972621975201
26.353,0.0010121391190931232,0.0010121391190931232
26.354000000000003,0.0038356568112071325,-0.0038356568112071325
26.355,0.007618535762498353,-0.007618535762498353
26.356,0.00996941869258087,-0.00996941869258087
26.357000000000003,0.010810247810284284,-0.010810247810284284
26.358,0.010237148947147664,-0.010237148947147664
26.359,0.008379084792407718,-0.008379084792407718
26.360000000000003,0.005291081038723412,-0.005291081038723412
26.361,0.0009286401655736471,-0.0009286401655736471
26.362000000000002,0.0047811291898980325,0.0047811291898980325
26.363000000000003,0.011793949152750359,0.011793949152750359
26.364,0.01978272489114554,0.01978272489114554
26.365000000000002,0.028021347258786404,0.028021347258786404
26.366000000000003,0.035379614797060165,0.035379614797060165
26.367,0.040461028034435124,0.040461028034435124
26.368000000000002,0.04187141842968813,0.04187141842968813
26.369000000000003,0.0385617722836378,0.0385617722836378
26.37,0.030157226793409268,0.030157226793409268
26.371000000000002,0.01717669361826544,0.01717669361826544
26.372000000000003,0.0010677393998386573,0.0010677393998386573
26.373,0.015975138210743554,-0.015975138210743554
26.374000000000002,0.031385301219747044,-0.031385301219747044
26.375,0.042716242358449036,-0.042716242358449036
26.376,0.048141633753071573,-0.048141633753071573
26.377000000000002,0.04684693532879982,-0.04684693532879982
26.378,0.03921943271840911,-0.03921943271840911
26.379,0.026790141537705602,-0.026790141537705602
26.380000000000003,0.011938730766618897,-0.011938730766618897
26.381,0.002573422443114478,0.002573422443114478
26.382,0.014140014759271402,0.014140014759271402
26.383000000000003,0.020802692494309154,0.020802692494309154
26.384,0.021601007579169273,0.021601007579169273
26.385,0.016716157371646584,0.016716157371646584
26.386000000000003,0.007391844069004148,0.007391844069004148
26.387,0.0043384616593402665,-0.0043384616593402665
26.388,0.01605330222723764,-0.01605330222723764
26.389000000000003,0.02539107189286655,-0.02539107189286655
26.39,0.030460732342883573,-0.030460732342883573
26.391000000000002,0.03014748821557175,-0.03014748821557175
26.392000000000003,0.024270743160090633,-0.024270743160090633
26.393,0.013580555892182667,-0.013580555892182667
26.394000000000002,0.00039417423118140807,0.00039417423118140807
26.395000000000003,0.015611298086364198,0.015611298086364198
26.396,0.029846742114043336,0.029846742114043336
26.397000000000002,0.04103812721683507,0.04103812721683507
26.398000000000003,0.04758943511008648,0.04758943511008648
26.399,0.04859416947139663,0.04859416947139663
26.400000000000002,0.04394821305344707,0.04394821305344707
26.401000000000003,0.034340599933025455,0.034340599933025455
26.402,0.02112849829730442,0.02112849829730442
26.403000000000002,0.006119317640499116,0.006119317640499116
26.404000000000003,0.008704468656869626,-0.008704468656869626
26.405,0.02147538980407492,-0.02147538980407492
26.406000000000002,0.03070348112120152,-0.03070348112120152
26.407,0.03547502837627327,-0.03547502837627327
26.408,0.03556231500915689,-0.03556231500915689
26.409000000000002,0.03143252328371106,-0.03143252328371106
26.41,0.02415751877905194,-0.02415751877905194
26.411,0.015238390919063188,-0.015238390919063188
26.412000000000003,0.0063685512075803774,-0.0063685512075803774
26.413,0.0008332483902936032,0.0008332483902936032
26.414,0.005083490368199171,0.005083490368199171
26.415000000000003,0.00564942389290666,0.00564942389290666
26.416,0.0024829711047987158,0.0024829711047987158
26.417,0.003755743109830225,-0.003755743109830225
26.418000000000003,0.01179931517277203,-0.01179931517277203
26.419,0.019991533053437704,-0.019991533053437704
26.42,0.02659208091014905,-0.02659208091014905
26.421000000000003,0.030113580587033863,-0.030113580587033863
26.422,0.029622831339351986,-0.029622831339351986
26.423000000000002,0.02493808937266232,-0.02493808937266232
26.424000000000003,0.016671406915416038,-0.016671406915416038
26.425,0.006097762203861429,-0.006097762203861429
26.426000000000002,0.005125799730224401,0.005125799730224401
26.427000000000003,0.015328119246479468,0.015328119246479468
26.428,0.0231898155973941,0.0231898155973941
26.429000000000002,0.02801416007261441,0.02801416007261441
26.430000000000003,0.029831806638944424,0.029831806638944424
26.431,0.0293114371580248,0.0293114371580248
26.432000000000002,0.027501685105440724,0.027501685105440724
26.433000000000003,0.02547796886296143,0.02547796886296143
26.434,0.023996469772722517,0.023996469772722517
26.435000000000002,0.023257014347026254,0.023257014347026254
26.436000000000003,0.02284612821598107,0.02284612821598107
26.437,0.021879271714824365,0.021879271714824365
26.438000000000002,0.019302442734016604,0.019302442734016604
26.439,0.014265518709616858,0.014265518709616858
26.44,0.006457383601303436,0.006457383601303436
26.441000000000003,0.0036971729087215536,-0.0036971729087215536
26.442,0.015039682186757058,-0.015039682186757058
26.443,0.025883928534321646,-0.025883928534321646
26.444000000000003,0.03437362044869456,-0.03437362044869456
26.445,0.03889961086449233,-0.03889961086449233
26.446,0.03847149329908455,-0.03847149329908455
26.447000000000003,0.032954752356047126,-0.032954752356047126
26.448,0.023123412320244657,-0.023123412320244657
26.449,0.0105261832070285,-0.0105261832070285
26.450000000000003,0.0027931503729462354,0.0027931503729462354
26.451,0.014654078760245071,0.014654078760245071
26.452,0.02310401029610544,0.02310401029610544
26.453000000000003,0.026729111526431093,0.026729111526431093
26.454,0.024872984342327858,0.024872984342327858
26.455000000000002,0.017746209281232533,0.017746209281232533
26.456000000000003,0.006423906657865754,0.006423906657865754
26.457,0.007266118255208767,-0.007266118255208767
26.458000000000002,0.0209612411536896,-0.0209612411536896
26.459000000000003,0.0320810313692255,-0.0320810313692255
26.46,0.03822426264177205,-0.03822426264177205
26.461000000000002,0.03760431884573883,-0.03760431884573883
26.462000000000003,0.029454197938752525,-0.029454197938752525
26.463,0.014311510459617009,-0.014311510459617009
26.464000000000002,0.005907692522530511,0.005907692522530511
26.465000000000003,0.028110658403455478,0.028110658403455478
26.466,0.04851417135014882,0.04851417135014882
26.467000000000002,0.06335068587808786,0.06335068587808786
26.468000000000004,0.06965805435746311,0.06965805435746311
26.469,0.06597032587546633,0.06597032587546633
26.470000000000002,0.05272587479145706,0.05272587479145706
26.471,0.0322608186174191,0.0322608186174191
26.472,0.008352217897426425,0.008352217897426425
26.473000000000003,0.014606572044548665,-0.014606572044548665
26.474,0.03260977512275909,-0.03260977512275909
26.475,0.04297180157280173,-0.04297180157280173
26.476000000000003,0.044942650329453736,-0.044942650329453736
26.477,0.03983462290206938,-0.03983462290206938
26.478,0.030615706082390337,-0.030615706082390337
26.479000000000003,0.021069866463910854,-0.021069866463910854
26.48,0.014745989586715077,-0.014745989586715077
26.481,0.013979182770924367,-0.013979182770924367
26.482000000000003,0.01925111292538709,-0.01925111292538709
26.483,0.029063444416795214,-0.029063444416795214
26.484,0.04035619780605915,-0.04035619780605915
26.485000000000003,0.04935181247693182,-0.04935181247693182
26.486,0.05258942000275866,-0.05258942000275866
26.487000000000002,0.04786547284739973,-0.04786547284739973
26.488000000000003,0.03482926448577771,-0.03482926448577771
26.489,0.015083930314646183,-0.015083930314646183
26.490000000000002,0.008216042092764964,0.008216042092764964
26.491000000000003,0.031142552276899552,0.031142552276899552
26.492,0.04992382919971788,0.04992382919971788
26.493000000000002,0.06177622937622974,0.06177622937622974
26.494000000000003,0.0654318168609408,0.0654318168609408
26.495,0.06125429675756665,0.06125429675756665
26.496000000000002,0.050956695871737144,0.050956695871737144
26.497000000000003,0.03704054931702692,0.03704054931702692
26.498,0.022138534797776076,0.022138534797776076
26.499000000000002,0.008446229423575351,0.008446229423575351
26.5,0.0026216210389423157,-0.0026216210389423157
26.501,0.01049886570117649,-0.01049886570117649
26.502000000000002,0.015297086789984897,-0.015297086789984897
26.503,0.017499486186475816,-0.017499486186475816
26.504,0.017648178497254127,-0.017648178497254127
26.505000000000003,0.016134532703021065,-0.016134532703021065
26.506,0.013149617117770077,-0.013149617117770077
26.507,0.008786021707171267,-0.008786021707171267
26.508000000000003,0.0032260967537260173,-0.0032260967537260173
26.509,0.0030773448364504207,0.0030773448364504207
26.51,0.009316068761835503,0.009316068761835503
26.511000000000003,0.01438913084151911,0.01438913084151911
26.512,0.017111962065449952,0.017111962065449952
26.513,0.01651832881584517,0.01651832881584517
26.514000000000003,0.012166936006191792,0.012166936006191792
26.515,0.004357243673608389,0.004357243673608389
26.516000000000002,0.005819354456086255,-0.005819354456086255
26.517000000000003,0.016623670080024168,-0.016623670080024168
26.518,0.02598689241444592,-0.02598689241444592
26.519000000000002,0.0319351121734784,-0.0319351121734784
26.520000000000003,0.033023615940180336,-0.033023615940180336
26.521,0.028679628402826514,-0.028679628402826514
26.522000000000002,0.01937188659145088,-0.01937188659145088
26.523000000000003,0.006564087806513679,-0.006564087806513679
26.524,0.007542594388416691,0.007542594388416691
26.525000000000002,0.020426090613068264,0.020426090613068264
26.526000000000003,0.0297323200842329,0.0297323200842329
26.527,0.03373370474074726,0.03373370474074726
26.528000000000002,0.031661141023237,0.031661141023237
26.529000000000003,0.023840794764067287,0.023840794764067287
26.53,0.011609839466974886,0.011609839466974886
26.531000000000002,0.002966072836752114,-0.002966072836752114
26.532,0.01750726349349395,-0.01750726349349395
26.533,0.029771999851242317,-0.029771999851242317
26.534000000000002,0.038046200404715,-0.038046200404715
26.535,0.04139018871191434,-0.04139018871191434
26.536,0.03970086601383188,-0.03970086601383188
26.537000000000003,0.03359644281486156,-0.03359644281486156
26.538,0.02417588817295432,-0.02417588817295432
26.539,0.012733575563509542,-0.012733575563509542
26.540000000000003,0.0005128279997550608,-0.0005128279997550608
26.541,0.011440671682812835,0.011440671682812835
26.542,0.02230587405245092,0.02230587405245092
26.543000000000003,0.03141990476720022,0.03141990476720022
26.544,0.03817886027293921,0.03817886027293921
26.545,0.04197713833198749,0.04197713833198749
26.546000000000003,0.042238476234144125,0.042238476234144125
26.547,0.03855058977372861,0.03855058977372861
26.548000000000002,0.030865333539448873,0.030865333539448873
26.549000000000003,0.019686494747091502,0.019686494747091502
26.55,0.0061543505432791355,0.0061543505432791355
26.551000000000002,0.008041912890182613,-0.008041912890182613
26.552000000000003,0.02094009448761476,-0.02094009448761476
26.553,0.030718001695211973,-0.030718001695211973
26.554000000000002,0.0361337150118797,-0.0361337150118797
26.555000000000003,0.03685579936121671,-0.03685579936121671
26.556,0.03356378387855719,-0.03356378387855719
26.557000000000002,0.027760878554373005,-0.027760878554373005
26.558000000000003,0.02132983532088828,-0.02132983532088828
26.559,0.015951093539150484,-0.015951093539150484
26.560000000000002,0.012559461281019335,-0.012559461281019335
26.561000000000003,0.011019151800806372,-0.011019151800806372
26.562,0.010141009298636813,-0.010141009298636813
26.563000000000002,0.008063969411016818,-0.008063969411016818
26.564,0.0029054818899007773,-0.0029054818899007773
26.565,0.006509548287815956,0.006509548287815956
26.566000000000003,0.02007191655426312,0.02007191655426312
26.567,0.036162442661520966,0.036162442661520966
26.568,0.051879192075191094,0.051879192075191094
26.569000000000003,0.06368395455804504,0.06368395455804504
26.57,0.06830244594488405,0.06830244594488405
26.571,0.06362646647089312,0.06362646647089312
26.572000000000003,0.04935475865717651,0.04935475865717651
26.573,0.02717860071306583,0.02717860071306583
26.574,0.00044860045834298933,0.00044860045834298933
26.575000000000003,0.026588888988380407,-0.026588888988380407
26.576,0.049770991149202304,-0.049770991149202304
26.577,0.06593734438059629,-0.06593734438059629
26.578000000000003,0.07353645437608365,-0.07353645437608365
26.579,0.07276694643831923,-0.07276694643831923
26.580000000000002,0.06524607112304544,-0.06524607112304544
26.581000000000003,0.053341055502606205,-0.053341055502606205
26.582,0.03939523462874494,-0.03939523462874494
26.583000000000002,0.025100509048646715,-0.025100509048646715
26.584000000000003,0.011205831750269414,-0.011205831750269414
26.585,0.0023701461380522177,0.0023701461380522177
26.586000000000002,0.01609459727204869,0.01609459727204869
26.587000000000003,0.03022940393522406,0.03022940393522406
26.588,0.04432702340079629,0.04432702340079629
26.589000000000002,0.057015579335241304,0.057015579335241304
26.590000000000003,0.06617522148042314,0.06617522148042314
26.591,0.0694721420715982,0.0694721420715982
26.592000000000002,0.0650902582162181,0.0650902582162181
26.593000000000004,0.052424924106675645,0.052424924106675645
26.594,0.03250300429236472,0.03250300429236472
26.595000000000002,0.007969759194796432,0.007969759194796432
26.596,0.017388368878538903,-0.017388368878538903
26.597,0.039474806600660245,-0.039474806600660245
26.598000000000003,0.054847294453177084,-0.054847294453177084
26.599,0.06154962057105764,-0.06154962057105764
26.6,0.05957686586477903,-0.05957686586477903
26.601000000000003,0.050840573035337816,-0.050840573035337816
26.602,0.03863835339622967,-0.03863835339622967
26.603,0.026768259436289625,-0.026768259436289625
26.604000000000003,0.018523508934782676,-0.018523508934782676
26.605,0.015832471566151883,-0.015832471566151883
26.606,0.018766309690373115,-0.018766309690373115
26.607000000000003,0.025536419959660196,-0.025536419959660196
26.608,0.03297486216316899,-0.03297486216316899
26.609,0.037368302468654906,-0.037368302468654906
26.610000000000003,0.035430874993731654,-0.035430874993731654
26.611,0.02517334361259029,-0.02517334361259029
26.612000000000002,0.006458860328423087,-0.006458860328423087
26.613000000000003,0.0188820333208717,0.0188820333208717
26.614,0.04739538205773193,0.04739538205773193
26.615000000000002,0.07471645815032123,0.07471645815032123
26.616000000000003,0.09647814769240862,0.09647814769240862
26.617,0.10920318235752026,0.10920318235752026
26.618000000000002,0.11097977237929788,0.11097977237929788
26.619000000000003,0.10177730705047788,0.10177730705047788
26.62,0.08334689214794197,0.08334689214794197
26.621000000000002,0.05874955128906152,0.05874955128906152
26.622000000000003,0.0316401028667507,0.0316401028667507
26.623,0.005487298215204475,0.005487298215204475
26.624000000000002,0.017081518720040226,-0.017081518720040226
26.625000000000004,0.034662020136191324,-0.034662020136191324
26.626,0.0471077819175144,-0.0471077819175144
26.627000000000002,0.05523959323449683,-0.05523959323449683
26.628,0.060337681850181665,-0.060337681850181665
26.629,0.0635819426733012,-0.0635819426733012
26.630000000000003,0.06561449211602269,-0.06561449211602269
26.631,0.06635681356718266,-0.06635681356718266
26.632,0.0651313047099198,-0.0651313047099198
26.633000000000003,0.06103782776263692,-0.06103782776263692
26.634,0.053450062485929185,-0.053450062485929185
26.635,0.04245185836945936,-0.04245185836945936
26.636000000000003,0.029046798983560725,-0.029046798983560725
26.637,0.015043729745013954,-0.015043729745013954
26.638,0.0026274606963686037,-0.0026274606963686037
26.639000000000003,0.006265831474162427,0.006265831474162427
26.64,0.010571430926693414,0.010571430926693414
26.641000000000002,0.010503543878629909,0.010503543878629909
26.642000000000003,0.007588151784676041,0.007588151784676041
26.643,0.0042740884015330894,0.0042740884015330894
26.644000000000002,0.0032115924521093583,0.0032115924521093583
26.645000000000003,0.0064045810949039635,0.0064045810949039635
26.646,0.01450027467497161,0.01450027467497161
26.647000000000002,0.026454676459691774,0.026454676459691774
26.648000000000003,0.03970785916039343,0.03970785916039343
26.649,0.050848585707302066,0.050848585707302066
26.650000000000002,0.05659111605845298,0.05659111605845298
26.651000000000003,0.05477891109504071,0.05477891109504071
26.652,0.045107597590028845,0.045107597590028845
26.653000000000002,0.029333813160205557,0.029333813160205557
26.654000000000003,0.010887141020924217,0.010887141020924217
26.655,0.006016500935123552,-0.006016500935123552
26.656000000000002,0.01750695409378594,-0.01750695409378594
26.657,0.021105924315421572,-0.021105924315421572
26.658,0.016379615084003284,-0.016379615084003284
26.659000000000002,0.005010152447871345,-0.005010152447871345
26.66,0.009724121185549914,0.009724121185549914
26.661,0.02389022119870925,0.02389022119870925
26.662000000000003,0.033971309253958824,0.033971309253958824
26.663,0.037745247802372005,0.037745247802372005
26.664,0.03472289275039926,0.03472289275039926
26.665000000000003,0.026047765176283877,0.026047765176283877
26.666,0.013933973695206736,0.013933973695206736
26.667,0.0008618098824816396,0.0008618098824816396
26.668000000000003,0.011185855613964742,-0.011185855613964742
26.669,0.021197072959347356,-0.021197072959347356
26.67,0.029181534893524257,-0.029181534893524257
26.671000000000003,0.03582268899483331,-0.03582268899483331
26.672,0.041897049478172715,-0.041897049478172715
26.673000000000002,0.04770400884368123,-0.04770400884368123
26.674000000000003,0.05273715638766915,-0.05273715638766915
26.675,0.05573227688195317,-0.05573227688195317
26.676000000000002,0.05508333430496842,-0.05508333430496842
26.677000000000003,0.04947781054492381,-0.04947781054492381
26.678,0.03851677543886967,-0.03851677543886967
26.679000000000002,0.023083508901521586,-0.023083508901521586
26.680000000000003,0.005307827164545637,-0.005307827164545637
26.681,0.011888002499166238,0.011888002499166238
26.682000000000002,0.02553053762730328,0.02553053762730328
26.683000000000003,0.0333912746495232,0.0333912746495232
26.684,0.034583322794410794,0.034583322794410794
26.685000000000002,0.029768761080321237,0.029768761080321237
26.686000000000003,0.020914639943545102,0.020914639943545102
26.687,0.010682381205099368,0.010682381205099368
26.688000000000002,0.0016508650374431903,0.0016508650374431903
26.689,0.00438057246134462,-0.00438057246134462
26.69,0.006800059670517879,-0.006800059670517879
26.691000000000003,0.006197295483485129,-0.006197295483485129
26.692,0.004012623718120103,-0.004012623718120103
26.693,0.001965570011094468,-0.001965570011094468
26.694000000000003,0.0014665897628738742,-0.0014665897628738742
26.695,0.0032015281978719284,-0.0032015281978719284
26.696,0.007000349111290848,-0.007000349111290848
26.697000000000003,0.011992106271594307,-0.011992106271594307
26.698,0.016948689815611862,-0.016948689815611862
26.699,0.02066636409342481,-0.02066636409342481
26.700000000000003,0.022243258358655062,-0.022243258358655062
26.701,0.021174838530343888,-0.021174838530343888
26.702,0.01727913440554246,-0.01727913440554246
26.703000000000003,0.010540998666637047,-0.010540998666637047
26.704,0.0009975501364909802,-0.0009975501364909802
26.705000000000002,0.011238710845739805,0.011238710845739805
26.706000000000003,0.025796678155798326,0.025796678155798326
26.707,0.04177276416872537,0.04177276416872537
26.708000000000002,0.05750628091324102,0.05750628091324102
26.709000000000003,0.07056026020622583,0.07056026020622583
26.71,0.07801302156389511,0.07801302156389511
26.711000000000002,0.07706065867500977,0.07706065867500977
26.712000000000003,0.06580644529147793,0.06580644529147793
26.713,0.044015491646840585,0.044015491646840585
26.714000000000002,0.013581259116245078,0.013581259116245078
26.715000000000003,0.02149670776487592,-0.02149670776487592
26.716,0.055697475603306304,-0.055697475603306304
26.717000000000002,0.08303506482567646,-0.08303506482567646
26.718000000000004,0.09834558786504087,-0.09834558786504087
26.719,0.09847811645264042,-0.09847811645264042
26.720000000000002,0.08307027960047693,-0.08307027960047693
26.721,0.054692654398610326,-0.054692654398610326
26.722,0.018314385927455084,-0.018314385927455084
26.723000000000003,0.019774394548681514,0.019774394548681514
26.724,0.05330488150997971,0.05330488150997971
26.725,0.07729717421748497,0.07729717421748497
26.726000000000003,0.08894990851550542,0.08894990851550542
26.727,0.08796713259617718,0.08796713259617718
26.728,0.07629871701708404,0.07629871701708404
26.729000000000003,0.05742429287374146,0.05742429287374146
26.73,0.035412850160609015,0.035412850160609015
26.731,0.014016090374911631,0.014016090374911631
26.732000000000003,0.003995346685254867,-0.003995346685254867
26.733,0.01714322850573002,-0.01714322850573002
26.734,0.02520405136008531,-0.02520405136008531
26.735000000000003,0.02891570039050225,-0.02891570039050225
26.736,0.029565268927901296,-0.029565268927901296
26.737000000000002,0.028587538970522748,-0.028587538970522748
26.738000000000003,0.027259314085835984,-0.027259314085835984
26.739,0.02651774931617964,-0.02651774931617964
26.740000000000002,0.0268851493453088,-0.0268851493453088
26.741000000000003,0.028463024676285927,-0.028463024676285927
26.742,0.030965087827557553,-0.030965087827557553
26.743000000000002,0.03378056706261767,-0.03378056706261767
26.744000000000003,0.03607837646563371,-0.03607837646563371
26.745,0.036965151307944824,-0.036965151307944824
26.746000000000002,0.03569184246327282,-0.03569184246327282
26.747000000000003,0.03187250249165372,-0.03187250249165372
26.748,0.025651648259197166,-0.025651648259197166
26.749000000000002,0.01775048139153991,-0.01775048139153991
26.750000000000004,0.009346845917172502,-0.009346845917172502
26.751,0.0017953080653542108,-0.0017953080653542108
26.752000000000002,0.0037449714297609843,0.0037449714297609843
26.753,0.006660318574656672,0.006660318574656672
26.754,0.007086475519629319,0.007086475519629319
26.755000000000003,0.005878973250800202,0.005878973250800202
26.756,0.004337794451390415,0.004337794451390415
26.757,0.003763370182622487,0.003763370182622487
26.758000000000003,0.004991006770400427,0.004991006770400427
26.759,0.008072505068997177,0.008072505068997177
26.76,0.012233570852096294,0.012233570852096294
26.761000000000003,0.01614279376740876,0.01614279376740876
26.762,0.018412856055396148,0.018412856055396148
26.763,0.018159013264359578,0.018159013264359578
26.764000000000003,0.015402000314255912,0.015402000314255912
26.765,0.011142158623781326,0.011142158623781326
26.766000000000002,0.007041037551963526,0.007041037551963526
26.767000000000003,0.004791330241098612,0.004791330241098612
26.768,0.005384856350235175,0.005384856350235175
26.769000000000002,0.008551844191315185,0.008551844191315185
26.770000000000003,0.01261319386311234,0.01261319386311234
26.771,0.014863193166439017,0.014863193166439017
26.772000000000002,0.012419681229466475,0.012419681229466475
26.773000000000003,0.0033016272981379728,0.0033016272981379728
26.774,0.012616114694540215,-0.012616114694540215
26.775000000000002,0.03311977485417549,-0.03311977485417549
26.776000000000003,0.053872378321828125,-0.053872378321828125
26.777,0.0693450486608424,-0.0693450486608424
26.778000000000002,0.07424714982414136,-0.07424714982414136
26.779000000000003,0.06505845145381511,-0.06505845145381511
26.78,0.04120335540506431,-0.04120335540506431
26.781000000000002,0.005488486392935389,-0.005488486392935389
26.782,0.03636870695638071,0.03636870695638071
26.783,0.07702286458559712,0.07702286458559712
26.784000000000002,0.10924911539946533,0.10924911539946533
26.785,0.1276640740920162,0.1276640740920162
26.786,0.12993055127323613,0.12993055127323613
26.787000000000003,0.11711293689599771,0.11711293689599771
26.788,0.09310943307553168,0.09310943307553168
26.789,0.06336735675306923,0.06336735675306923
26.790000000000003,0.033298929365531305,0.033298929365531305
26.791,0.0068901241325261394,0.0068901241325261394
26.792,0.014088164362363221,-0.014088164362363221
26.793000000000003,0.030069366382509743,-0.030069366382509743
26.794,0.04295247616177043,-0.04295247616177043
26.795,0.05494278535699751,-0.05494278535699751
26.796000000000003,0.06740513818536023,-0.06740513818536023
26.797,0.0801385313590691,-0.0801385313590691
26.798000000000002,0.09131860294545571,-0.09131860294545571
26.799000000000003,0.09811231281224436,-0.09811231281224436
26.8,0.09773121064126902,-0.09773121064126902
26.801000000000002,0.08853758984966374,-0.08853758984966374
26.802000000000003,0.07080241464550632,-0.07080241464550632
26.803,0.04683842474667499,-0.04683842474667499
26.804000000000002,0.020451332674256237,-0.020451332674256237
26.805000000000003,0.004110570183703271,0.004110570183703271
26.806,0.023355142055003917,0.023355142055003917
26.807000000000002,0.03549086074029954,0.03549086074029954
26.808000000000003,0.04080447666101791,0.04080447666101791
26.809,0.04135610181958622,0.04135610181958622
26.810000000000002,0.04011040503263721,0.04011040503263721
26.811000000000003,0.03981318904218907,0.03981318904218907
26.812,0.04200407859335029,0.04200407859335029
26.813000000000002,0.04650156072625657,0.04650156072625657
26.814,0.05152682166266315,0.05152682166266315
26.815,0.054408092845226436,0.054408092845226436
26.816000000000003,0.05260626005974552,0.05260626005974552
26.817,0.04469478474182679,0.04469478474182679
26.818,0.03094872165620497,0.03094872165620497
26.819000000000003,0.01333945806448592,0.01333945806448592
26.82,0.005057345517118788,-0.005057345517118788
26.821,0.02102782639344072,-0.02102782639344072
26.822000000000003,0.03221919762210754,-0.03221919762210754
26.823,0.03782456866051581,-0.03782456866051581
26.824,0.03872088955193441,-0.03872088955193441
26.825000000000003,0.03702307146049919,-0.03702307146049919
26.826,0.035223433147491184,-0.035223433147491184
26.827,0.03522969450924927,-0.03522969450924927
26.828000000000003,0.03764662280317851,-0.03764662280317851
26.829,0.04155590110947989,-0.04155590110947989
26.830000000000002,0.04486881694528579,-0.04486881694528579
26.831000000000003,0.04512125241252801,-0.04512125241252801
26.832,0.04042295583246421,-0.04042295583246421
26.833000000000002,0.03021873886491189,-0.03021873886491189
26.834000000000003,0.015586919862444051,-0.015586919862444051
26.835,0.0010343299617329154,0.0010343299617329154
26.836000000000002,0.016597920951527456,0.016597920951527456
26.837000000000003,0.028410757840160193,0.028410757840160193
26.838,0.03496710702959548,0.03496710702959548
26.839000000000002,0.03635626594764696,0.03635626594764696
26.840000000000003,0.03409975985762528,0.03409975985762528
26.841,0.030477568815722438,0.030477568815722438
26.842000000000002,0.027587987481375413,0.027587987481375413
26.843000000000004,0.02648581191275407,0.02648581191275407
26.844,0.026722135233656807,0.026722135233656807
26.845000000000002,0.026471888314237565,0.026471888314237565
26.846,0.023228691136719545,0.023228691136719545
26.847,0.014841641462613634,0.014841641462613634
26.848000000000003,0.0005367595535464156,0.0005367595535464156
26.849,0.018445931596045947,-0.018445931596045947
26.85,0.03885375771872259,-0.03885375771872259
26.851000000000003,0.05611018598046031,-0.05611018598046031
26.852,0.0655124215546341,-0.0655124215546341
26.853,0.06358469062269843,-0.06358469062269843
26.854000000000003,0.049171326768448,-0.049171326768448
26.855,0.0239244726018147,-0.0239244726018147
26.856,0.007976862164033911,0.007976862164033911
26.857000000000003,0.040805120352937124,0.040805120352937124
26.858,0.068676956635478,0.068676956635478
26.859,0.08695597957373354,0.08695597957373354
26.860000000000003,0.09326689484149275,0.09326689484149275
26.861,0.08785128023168569,0.08785128023168569
26.862000000000002,0.07320311880391865,0.07320311880391865
26.863000000000003,0.05314113165140349,0.05314113165140349
26.864,0.03163535379931554,0.03163535379931554
26.865000000000002,0.011758880002327441,0.011758880002327441
26.866000000000003,0.004930008301559655,-0.004930008301559655
26.867,0.018428500085081616,-0.018428500085081616
26.868000000000002,0.02980163894035606,-0.02980163894035606
26.869000000000003,0.04038368524917242,-0.04038368524917242
26.87,0.050973556770806276,-0.050973556770806276
26.871000000000002,0.06131244560590793,-0.06131244560590793
26.872000000000003,0.07002068028829442,-0.07002068028829442
26.873,0.07500669145263487,-0.07500669145263487
26.874000000000002,0.07419964516067364,-0.07419964516067364
26.875000000000004,0.0663512602769427,-0.0663512602769427
26.876,0.05163329349646917,-0.05163329349646917
26.877000000000002,0.03182719364433705,-0.03182719364433705
26.878,0.010034844043479825,-0.010034844043479825
26.879,0.010010895388248104,0.010010895388248104
26.880000000000003,0.024837737400117833,0.024837737400117833
26.881,0.032075561816365415,0.032075561816365415
26.882,0.031019664641279195,0.031019664641279195
26.883000000000003,0.022775698906118587,0.022775698906118587
26.884,0.009967965323983481,0.009967965323983481
26.885,0.0038911195056511496,-0.0038911195056511496
26.886000000000003,0.015194706181910248,-0.015194706181910248
26.887,0.021000636712786847,-0.021000636712786847
26.888,0.019590601490726688,-0.019590601490726688
26.889000000000003,0.010733216698049402,-0.010733216698049402
26.89,0.004364169066680211,0.004364169066680211
26.891000000000002,0.023361593859404797,0.023361593859404797
26.892000000000003,0.04325623146715541,0.04325623146715541
26.893,0.06091134823660122,0.06091134823660122
26.894000000000002,0.07355367899498177,0.07355367899498177
26.895000000000003,0.0791735919749351,0.0791735919749351
26.896,0.07678777720031846,0.07678777720031846
26.897000000000002,0.06654380254054244,0.06654380254054244
26.898000000000003,0.04966028097759554,0.04966028097759554
26.899,0.02821038085587206,0.02821038085587206
26.900000000000002,0.004774780358838345,0.004774780358838345
26.901000000000003,0.01798636078895024,-0.01798636078895024
26.902,0.03776943033440183,-0.03776943033440183
26.903000000000002,0.05298467780573608,-0.05298467780573608
26.904000000000003,0.06295389996755521,-0.06295389996755521
26.905,0.06789785143512635,-0.06789785143512635
26.906000000000002,0.0687136910197348,-0.0687136910197348
26.907,0.06660146069396648,-0.06660146069396648
26.908,0.06264635906298043,-0.06264635906298043
26.909000000000002,0.05748251904074598,-0.05748251904074598
26.91,0.05114406302989212,-0.05114406302989212
26.911,0.04315304156470493,-0.04315304156470493
26.912000000000003,0.032817365966665714,-0.032817365966665714
26.913,0.019639704783625297,-0.019639704783625297
26.914,0.0036957869417025423,-0.0036957869417025423
26.915000000000003,0.01415565426965184,0.01415565426965184
26.916,0.03231749985442937,0.03231749985442937
26.917,0.04875567815665081,0.04875567815665081
26.918000000000003,0.061471080756778894,0.061471080756778894
26.919,0.06899330864302085,0.06899330864302085
26.92,0.07073465357999,0.07073465357999
26.921000000000003,0.06708580162767373,0.06708580162767373
26.922,0.059220839245881916,0.059220839245881916
26.923000000000002,0.04867932446555358,0.04867932446555358
26.924000000000003,0.03687228448763848,0.03687228448763848
26.925,0.024687946618894237,0.024687946618894237
26.926000000000002,0.012339533075241887,0.012339533075241887
26.927000000000003,0.0004887942950272433,-0.0004887942950272433
26.928,0.014251726526966962,-0.014251726526966962
26.929000000000002,0.0290571011941586,-0.0290571011941586
26.930000000000003,0.04427813644795011,-0.04427813644795011
26.931,0.058432867466078876,-0.058432867466078876
26.932000000000002,0.06941220161064168,-0.06941220161064168
26.933000000000003,0.07501470472584608,-0.07501470472584608
26.934,0.07362968194740338,-0.07362968194740338
26.935000000000002,0.06484219201148567,-0.06484219201148567
26.936000000000003,0.049741071717890446,-0.049741071717890446
26.937,0.03079541751483172,-0.03079541751483172
26.938000000000002,0.011301091088757109,-0.011301091088757109
26.939,0.005457550999519644,0.005457550999519644
26.94,0.017083049028999712,0.017083049028999712
26.941000000000003,0.022704944135556123,0.022704944135556123
26.942,0.02317653956124828,0.02317653956124828
26.943,0.02075534141140814,0.02075534141140814
26.944000000000003,0.01835723368587992,0.01835723368587992
26.945,0.018612158469400238,0.018612158469400238
26.946,0.023015468598639777,0.023015468598639777
26.947000000000003,0.031441116920303845,0.031441116920303845
26.948,0.04216843797248878,0.04216843797248878
26.949,0.05241028139737949,0.05241028139737949
26.950000000000003,0.05917027890813312,0.05917027890813312
26.951,0.060153632885275844,0.060153632885275844
26.952,0.05444289778054955,0.05444289778054955
26.953000000000003,0.04273157342786843,0.04273157342786843
26.954,0.027056309568329023,0.027056309568329023
26.955000000000002,0.010133377591036902,0.010133377591036902
26.956000000000003,0.005468294549505148,-0.005468294549505148
26.957,0.018038651080805317,-0.018038651080805317
26.958000000000002,0.027091745324233633,-0.027091745324233633
26.959000000000003,0.03327889356995523,-0.03327889356995523
26.96,0.03790257975237338,-0.03790257975237338
26.961000000000002,0.04222164110556866,-0.04222164110556866
26.962000000000003,0.04680814834759218,-0.04680814834759218
26.963,0.051195108217950265,-0.051195108217950265
26.964000000000002,0.05394964831898547,-0.05394964831898547
26.965000000000003,0.05315510152709653,-0.05315510152709653
26.966,0.04713961175852083,-0.04713961175852083
26.967000000000002,0.035198644250267544,-0.035198644250267544
26.968000000000004,0.018055008560146087,-0.018055008560146087
26.969,0.0021160254341619457,0.0021160254341619457
26.970000000000002,0.02212579891951866,0.02212579891951866
26.971,0.03855099752971701,0.03855099752971701
26.972,0.04861483049368193,0.04861483049368193
26.973000000000003,0.05089933076732946,0.05089933076732946
26.974,0.045672545519837175,0.045672545519837175
26.975,0.034739205403880154,0.034739205403880154
26.976000000000003,0.020875454784356567,0.020875454784356567
26.977,0.007036537496220015,0.007036537496220015
26.978,0.004410846413627927,-0.004410846413627927
26.979000000000003,0.012201267288093568,-0.012201267288093568
26.98,0.016293823692377377,-0.016293823692377377
26.981,0.017606485197206603,-0.017606485197206603
26.982000000000003,0.017489539317143785,-0.017489539317143785
26.983,0.017143122441772133,-0.017143122441772133
26.984,0.017186210887367822,-0.017186210887367822
26.985000000000003,0.017514813188214212,-0.017514813188214212
26.986,0.017472953157300394,-0.017472953157300394
26.987000000000002,0.016243586898621452,-0.016243586898621452
26.988000000000003,0.013289583194585895,-0.013289583194585895
26.989,0.00866381770121223,-0.00866381770121223
26.990000000000002,0.003064461474812733,-0.003064461474812733
26.991000000000003,0.002385824296695439,0.002385824296695439
26.992,0.006548621370866285,0.006548621370866285
26.993000000000002,0.008702903967226247,0.008702903967226247
26.994000000000003,0.008826154876200988,0.008826154876200988
26.995,0.0076019132970503115,0.0076019132970503115
26.996000000000002,0.00613553463627932,0.00613553463627932
26.997000000000003,0.0054741427129341965,0.0054741427129341965
26.998,0.006109582168624568,0.006109582168624568
26.999000000000002,0.007662753405235689,0.007662753405235689
27.000000000000004,0.008894142068861383,0.008894142068861383
27.001,0.008074735763337481,0.008074735763337481
27.002000000000002,0.0036208631002711557,0.0036208631002711557
27.003,0.005208745568726834,-0.005208745568726834
27.004,0.0177968968135418,-0.0177968968135418
27.005000000000003,0.032036189879525286,-0.032036189879525286
27.006,0.04467305834481021,-0.04467305834481021
27.007,0.05206940690377402,-0.05206940690377402
27.008000000000003,0.051184086109443035,-0.051184086109443035
27.009,0.04049300027221093,-0.04049300027221093
27.01,0.020568254298213903,-0.020568254298213903
27.011000000000003,0.00587444976254198,0.00587444976254198
27.012,0.034500634541730316,0.034500634541730316
27.013,0.06032819183209121,0.06032819183209121
27.014000000000003,0.0788874140623716,0.0788874140623716
27.015,0.08725594626380367,0.08725594626380367
27.016000000000002,0.08469012617681254,0.08469012617681254
27.017000000000003,0.07269026056404472,0.07269026056404472
27.018,0.05449845777853439,0.05449845777853439
27.019000000000002,0.03418519177810833,0.03418519177810833
27.020000000000003,0.015588652212881844,0.015588652212881844
27.021,0.0013993507129954545,0.0013993507129954545
27.022000000000002,0.007373543375698883,-0.007373543375698883
27.023000000000003,0.011437714607473087,-0.011437714607473087
27.024,0.012784421502625772,-0.012784421502625772
27.025000000000002,0.013943536676215694,-0.013943536676215694
27.026000000000003,0.01715802928916298,-0.01715802928916298
27.027,0.023711883255503205,-0.023711883255503205
27.028000000000002,0.0335820602247881,-0.0335820602247881
27.029000000000003,0.04547951026180966,-0.04547951026180966
27.03,0.05723080585200087,-0.05723080585200087
27.031000000000002,0.06636421465408028,-0.06636421465408028
27.032,0.07072446102316475,-0.07072446102316475
27.033,0.06895486285934675,-0.06895486285934675
27.034000000000002,0.060743032970474196,-0.060743032970474196
27.035,0.0468044292978751,-0.0468044292978751
27.036,0.02865099482897765,-0.02865099482897765
27.037000000000003,0.00823935246591822,-0.00823935246591822
27.038,0.012395157734828648,0.012395157734828648
27.039,0.03143307250081126,0.03143307250081126
27.040000000000003,0.0474492433678665,0.0474492433678665
27.041,0.05947424837296872,0.05947424837296872
27.042,0.06697025555474855,0.06697025555474855
27.043000000000003,0.06976560015463572,0.06976560015463572
27.044,0.06798599165931765,0.06798599165931765
27.045,0.062002091537242364,0.062002091537242364
27.046000000000003,0.052393492531465136,0.052393492531465136
27.047,0.03991669661339042,0.03991669661339042
27.048000000000002,0.025463530920866055,0.025463530920866055
27.049000000000003,0.010004743846867838,0.010004743846867838
27.05,0.00547483684991372,-0.00547483684991372
27.051000000000002,0.0200354449573377,-0.0200354449573377
27.052000000000003,0.03282263060478342,-0.03282263060478342
27.053,0.04308525900680559,-0.04308525900680559
27.054000000000002,0.05018188595648622,-0.05018188595648622
27.055000000000003,0.05359687775959578,-0.05359687775959578
27.056,0.052988259187885856,-0.052988259187885856
27.057000000000002,0.048276848068697316,-0.048276848068697316
27.058000000000003,0.039763631822095385,-0.039763631822095385
27.059,0.02823773033770154,-0.02823773033770154
27.060000000000002,0.015021379245702578,-0.015021379245702578
27.061000000000003,0.0019002850509781514,-0.0019002850509781514
27.062,0.009088945297077659,0.009088945297077659
27.063000000000002,0.016001942249675674,0.016001942249675674
27.064,0.017401323860543053,0.017401323860543053
27.065,0.012746909021302284,0.012746909021302284
27.066000000000003,0.0026517459039957073,0.0026517459039957073
27.067,0.011087385758422075,-0.011087385758422075
27.068,0.025727725621419964,-0.025727725621419964
27.069000000000003,0.03806184668128356,-0.03806184668128356
27.07,0.04505018723561958,-0.04505018723561958
27.071,0.044464702712523715,-0.044464702712523715
27.072000000000003,0.035391081928205725,-0.035391081928205725
27.073,0.01846536712942872,-0.01846536712942872
27.074,0.0042163661085102885,0.0042163661085102885
27.075000000000003,0.02949620041566529,0.02949620041566529
27.076,0.05376567224193909,0.05376567224193909
27.077,0.0736454958049098,0.0736454958049098
27.078000000000003,0.08657836963494066,0.08657836963494066
27.079,0.09120988437136138,0.09120988437136138
27.080000000000002,0.0874937283715875,0.0874937283715875
27.081000000000003,0.07653053826606579,0.07653053826606579
27.082,0.060213439770448664,0.060213439770448664
27.083000000000002,0.0407902581833604,0.0407902581833604
27.084000000000003,0.02045453263794767,0.02045453263794767
27.085,0.001048138801389066,0.001048138801389066
27.086000000000002,0.016089619292512142,-0.016089619292512142
27.087000000000003,0.030140517073874284,-0.030140517073874284
27.088,0.040741306929581826,-0.040741306929581826
27.089000000000002,0.0478899893986353,-0.0478899893986353
27.090000000000003,0.05186650104055302,-0.05186650104055302
27.091,0.053180193931582645,-0.053180193931582645
27.092000000000002,0.05252659432655647,-0.05252659432655647
27.093000000000004,0.0507197265069482,-0.0507197265069482
27.094,0.048571654814068214,-0.048571654814068214
27.095000000000002,0.04671652691904161,-0.04671652691904161
27.096,0.045412076417354744,-0.045412076417354744
27.097,0.04438181509015774,-0.04438181509015774
27.098000000000003,0.042771166038805195,-0.042771166038805195
27.099,0.039272213493687626,-0.039272213493687626
27.1,0.03242654773333977,-0.03242654773333977
27.101000000000003,0.02105638901550577,-0.02105638901550577
27.102,0.004720230474896017,-0.004720230474896017
27.103,0.015939383542359537,0.015939383542359537
27.104000000000003,0.039078197784258965,0.039078197784258965
27.105,0.06183445590901924,0.06183445590901924
27.106,0.08080759765276344,0.08080759765276344
27.107000000000003,0.09273850035068476,0.09273850035068476
27.108,0.09523238517165697,0.09523238517165697
27.109,0.08734083901291896,0.08734083901291896
27.110000000000003,0.0698460148004511,0.0698460148004511
27.111,0.04516260827274554,0.04516260827274554
27.112000000000002,0.016872030722746068,0.016872030722746068
27.113000000000003,0.010999896717723225,-0.010999896717723225
27.114,0.03478358247243303,-0.03478358247243303
27.115000000000002,0.051849163548208656,-0.051849163548208656
27.116000000000003,0.061014127574861514,-0.061014127574861514
27.117,0.0625954817264592,-0.0625954817264592
27.118000000000002,0.058124350883275604,-0.058124350883275604
27.119000000000003,0.0498276980292683,-0.0498276980292683
27.12,0.04003333990923331,-0.04003333990923331
27.121000000000002,0.03065771100321708,-0.03065771100321708
27.122000000000003,0.022893439652965492,-0.022893439652965492
27.123,0.017142202119588196,-0.017142202119588196
27.124000000000002,0.013161975379853499,-0.013161975379853499
27.125000000000004,0.010340870408211073,-0.010340870408211073
27.126,0.00798817903306831,-0.00798817903306831
27.127000000000002,0.005550138257400734,-0.005550138257400734
27.128,0.0027030821990622154,-0.0027030821990622154
27.129,0.0006688608724978595,0.0006688608724978595
27.130000000000003,0.004561221137515493,0.004561221137515493
27.131,0.008934590462722066,0.008934590462722066
27.132,0.013744232407769728,0.013744232407769728
27.133000000000003,0.018896254773374872,0.018896254773374872
27.134,0.024155298885009186,0.024155298885009186
27.135,0.02905958900500183,0.02905958900500183
27.136000000000003,0.032905108611070086,0.032905108611070086
27.137,0.034838382596243306,0.034838382596243306
27.138,0.03405486601597243,0.03405486601597243
27.139000000000003,0.030053556757864516,0.030053556757864516
27.14,0.02286657617635301,0.02286657617635301
27.141000000000002,0.013178641207463855,0.013178641207463855
27.142000000000003,0.002278989964140589,0.002278989964140589
27.143,0.008160865158929038,-0.008160865158929038
27.144000000000002,0.016433399817396485,-0.016433399817396485
27.145000000000003,0.02117243228246207,-0.02117243228246207
27.146,0.02165540312057369,-0.02165540312057369
27.147000000000002,0.01794597514186277,-0.01794597514186277
27.148000000000003,0.01084170283857779,-0.01084170283857779
27.149,0.0016517483977542583,-0.0016517483977542583
27.150000000000002,0.008120059872485338,0.008120059872485338
27.151000000000003,0.01708826694455088,0.01708826694455088
27.152,0.02420744914187861,0.02420744914187861
27.153000000000002,0.028855240718087982,0.028855240718087982
27.154000000000003,0.030783139900826074,0.030783139900826074
27.155,0.02998823797145177,0.02998823797145177
27.156000000000002,0.026581451395750664,0.026581451395750664
27.157,0.02071816376255258,0.02071816376255258
27.158,0.012620145736901388,0.012620145736901388
27.159000000000002,0.002668774707999484,0.002668774707999484
27.16,0.008490630713863653,-0.008490630713863653
27.161,0.019907712230354563,-0.019907712230354563
27.162000000000003,0.030404307208738282,-0.030404307208738282
27.163,0.03877839698857928,-0.03877839698857928
27.164,0.044086498652398345,-0.044086498652398345
27.165000000000003,0.04591243475125107,-0.04591243475125107
27.166,0.04451881492840017,-0.04451881492840017
27.167,0.04080623954890307,-0.04080623954890307
27.168000000000003,0.03606707974354544,-0.03606707974354544
27.169,0.03159506548022116,-0.03159506548022116
27.17,0.02827158931755108,-0.02827158931755108
27.171000000000003,0.02627064888250913,-0.02627064888250913
27.172,0.02499530103087726,-0.02499530103087726
27.173000000000002,0.02328572003938449,-0.02328572003938449
27.174000000000003,0.019845439162268688,-0.019845439162268688
27.175,0.01375046449626636,-0.01375046449626636
27.176000000000002,0.004866183895530717,-0.004866183895530717
27.177000000000003,0.0059832356452618075,0.0059832356452618075
27.178,0.017171804922165947,0.017171804922165947
27.179000000000002,0.02672408063200079,0.02672408063200079
27.180000000000003,0.0329256859261992,0.0329256859261992
27.181,0.03488976490360283,0.03488976490360283
27.182000000000002,0.03287911302026433,0.03287911302026433
27.183000000000003,0.028256077982908225,0.028256077982908225
27.184,0.023053979172611143,0.023053979172611143
27.185000000000002,0.019295162622643122,0.019295162622643122
27.186000000000003,0.018276695552692557,0.018276695552692557
27.187,0.020069788723232593,0.020069788723232593
27.188000000000002,0.02342066165778202,0.02342066165778202
27.189,0.02611424972330689,0.02611424972330689
27.19,0.025707564517081987,0.025707564517081987
27.191000000000003,0.02040795327170023,0.02040795327170023
27.192,0.009808807950658718,0.009808807950658718
27.193,0.004774035982045612,-0.004774035982045612
27.194000000000003,0.020503929655614223,-0.020503929655614223
27.195,0.03373210942467014,-0.03373210942467014
27.196,0.04101560146582454,-0.04101560146582454
27.197000000000003,0.04013777107611241,-0.04013777107611241
27.198,0.03081231870252023,-0.03081231870252023
27.199,0.014842038186306802,-0.014842038186306802
27.200000000000003,0.0043295765740475264,0.0043295765740475264
27.201,0.02254552131938908,0.02254552131938908
27.202,0.036060799239762874,0.036060799239762874
27.203000000000003,0.04252208256909173,0.04252208256909173
27.204,0.04150395124139271,0.04150395124139271
27.205000000000002,0.03444698251129468,0.03444698251129468
27.206000000000003,0.02403602494000885,0.02403602494000885
27.207,0.013237215421417618,0.013237215421417618
27.208000000000002,0.004320308010880074,0.004320308010880074
27.209000000000003,0.0018072824115065375,-0.0018072824115065375
27.21,0.005737031802572438,-0.005737031802572438
27.211000000000002,0.00913036039516682,-0.00913036039516682
27.212000000000003,0.013882411350695189,-0.013882411350695189
27.213,0.02117893974917527,-0.02117893974917527
27.214000000000002,0.03078862456516918,-0.03078862456516918
27.215000000000003,0.04085962352036379,-0.04085962352036379
27.216,0.048323283736666736,-0.048323283736666736
27.217000000000002,0.0498034835282452,-0.0498034835282452
27.218000000000004,0.04275430881364254,-0.04275430881364254
27.219,0.026460126313289093,-0.026460126313289093
27.220000000000002,0.002561079669232065,-0.002561079669232065
27.221,0.025094033922494235,0.025094033922494235
27.222,0.05126005464749887,0.05126005464749887
27.223000000000003,0.07055854919897926,0.07055854919897926
27.224,0.07883477035828683,0.07883477035828683
27.225,0.07421855502668591,0.07421855502668591
27.226000000000003,0.05758594710229437,0.05758594710229437
27.227,0.03229691730298782,0.03229691730298782
27.228,0.0032984352676268926,0.0032984352676268926
27.229000000000003,0.024135503585327442,-0.024135503585327442
27.23,0.0456600995856143,-0.0456600995856143
27.231,0.05876428198427216,-0.05876428198427216
27.232000000000003,0.0630988055451533,-0.0630988055451533
27.233,0.060188376153144624,-0.060188376153144624
27.234,0.05267507574952584,-0.05267507574952584
27.235000000000003,0.04337009918611969,-0.04337009918611969
27.236,0.03442539788941957,-0.03442539788941957
27.237000000000002,0.02687026325762093,-0.02687026325762093
27.238000000000003,0.020617075207923358,-0.020617075207923358
27.239,0.014875204969170226,-0.014875204969170226
27.240000000000002,0.008778003237173182,-0.008778003237173182
27.241000000000003,0.001967861814282391,-0.001967861814282391
27.242,0.005084910833864021,0.005084910833864021
27.243000000000002,0.011146532406035267,0.011146532406035267
27.244000000000003,0.014640534253597657,0.014640534253597657
27.245,0.01426734674938534,0.01426734674938534
27.246000000000002,0.00959249142662902,0.00959249142662902
27.247000000000003,0.0013820638411798495,0.0013820638411798495
27.248,0.008449965254516032,-0.008449965254516032
27.249000000000002,0.017285728980021193,-0.017285728980021193
27.250000000000004,0.02250840930429499,-0.02250840930429499
27.251,0.02224834595780285,-0.02224834595780285
27.252000000000002,0.015934369678714606,-0.015934369678714606
27.253,0.004476056001130714,-0.004476056001130714
27.254,0.009979477898713774,0.009979477898713774
27.255000000000003,0.024638051175203027,0.024638051175203027
27.256,0.03681105474336471,0.03681105474336471
27.257,0.04459992368356391,0.04459992368356391
27.258000000000003,0.04731161859128186,0.04731161859128186
27.259,0.04549660737264067,0.04549660737264067
27.26,0.04062392734837624,0.04062392734837624
27.261000000000003,0.034520711384165834,0.034520711384165834
27.262,0.0287698699632255,0.0287698699632255
27.263,0.02425986437380298,0.02425986437380298
27.264000000000003,0.021017651658432442,0.021017651658432442
27.265,0.018353637506907036,0.018353637506907036
27.266000000000002,0.015241637752412173,0.015241637752412173
27.267000000000003,0.01078291449309535,0.01078291449309535
27.268,0.004584628741041783,0.004584628741041783
27.269000000000002,0.003076716958648646,-0.003076716958648646
27.270000000000003,0.011353449829399231,-0.011353449829399231
27.271,0.01913791231581929,-0.01913791231581929
27.272000000000002,0.025463785288571426,-0.025463785288571426
27.273000000000003,0.0298462739146156,-0.0298462739146156
27.274,0.03243570227995883,-0.03243570227995883
27.275000000000002,0.033928502925869804,-0.033928502925869804
27.276000000000003,0.0352673139170246,-0.0352673139170246
27.277,0.03723697960664366,-0.03723697960664366
27.278000000000002,0.04009996163625703,-0.04009996163625703
27.279000000000003,0.04340118120625781,-0.04340118120625781
27.28,0.04601440004684206,-0.04601440004684206
27.281000000000002,0.0464207838660533,-0.0464207838660533
27.282,0.04313363880347095,-0.04313363880347095
27.283,0.035137307408504403,-0.035137307408504403
27.284000000000002,0.022207325026444374,-0.022207325026444374
27.285,0.0050216284448826596,-0.0050216284448826596
27.286,0.014957594524191405,0.014957594524191405
27.287000000000003,0.035780038664382424,0.035780038664382424
27.288,0.05538085921368107,0.05538085921368107
27.289,0.07192003020526924,0.07192003020526924
27.290000000000003,0.08400378642931801,0.08400378642931801
27.291,0.09075836156365892,0.09075836156365892
27.292,0.09178405922092145,0.09178405922092145
27.293000000000003,0.0870569994892383,0.0870569994892383
27.294,0.07685231010446295,0.07685231010446295
27.295,0.06173513945096924,0.06173513945096924
27.296000000000003,0.04261737795566016,0.04261737795566016
27.297,0.02082978307098451,0.02082978307098451
27.298000000000002,0.0018669864881586784,-0.0018669864881586784
27.299000000000003,0.023399756846217493,-0.023399756846217493
27.3,0.04165211568163944,-0.04165211568163944
27.301000000000002,0.05484560275285984,-0.05484560275285984
27.302000000000003,0.061934218513733756,-0.061934218513733756
27.303,0.06288460059227625,-0.06288460059227625
27.304000000000002,0.05873016590022541,-0.05873016590022541
27.305000000000003,0.051347944494362543,-0.051347944494362543
27.306,0.04299420024674947,-0.04299420024674947
27.307000000000002,0.03571993474716197,-0.03571993474716197
27.308000000000003,0.03083890120274506,-0.03083890120274506
27.309,0.028617220431614077,-0.028617220431614077
27.310000000000002,0.02829159070656788,-0.02829159070656788
27.311000000000003,0.028419594460807194,-0.028419594460807194
27.312,0.027453882122463236,-0.027453882122463236
27.313000000000002,0.02435046511926464,-0.02435046511926464
27.314,0.019000377496380495,-0.019000377496380495
27.315,0.012324732570360958,-0.012324732570360958
27.316000000000003,0.005982523495419366,-0.005982523495419366
27.317,0.001774005860058621,-0.001774005860058621
27.318,0.0009353005418661111,-0.0009353005418661111
27.319000000000003,0.0035716194559902294,-0.0035716194559902294
27.32,0.008445626239081705,-0.008445626239081705
27.321,0.013229494201966547,-0.013229494201966547
27.322000000000003,0.015176569391544967,-0.015176569391544967
27.323,0.012020630830644152,-0.012020630830644152
27.324,0.00281810877490791,-0.00281810877490791
27.325000000000003,0.011554192499434398,0.011554192499434398
27.326,0.02844025452882588,0.02844025452882588
27.327,0.04401609776438023,0.04401609776438023
27.328000000000003,0.05431942859965768,0.05431942859965768
27.329,0.05640253538264624,0.05640253538264624
27.330000000000002,0.049257989136949384,0.049257989136949384
27.331000000000003,0.03422119864378046,0.03422119864378046
27.332,0.014704690156088938,0.014704690156088938
27.333000000000002,0.004679136412560688,-0.004679136412560688
27.334000000000003,0.019360221852012235,-0.019360221852012235
27.335,0.026054595582601432,-0.026054595582601432
27.336000000000002,0.02364089203491401,-0.02364089203491401
27.337000000000003,0.013410523772558757,-0.013410523772558757
27.338,0.0013764573924192893,0.0013764573924192893
27.339000000000002,0.016485196015940493,0.016485196015940493
27.340000000000003,0.02793833966430852,0.02793833966430852
27.341,0.03310792244340187,0.03310792244340187
27.342000000000002,0.031340442812076284,0.031340442812076284
27.343000000000004,0.023943922131074727,0.023943922131074727
27.344,0.013572883321582312,0.013572883321582312
27.345000000000002,0.0032389750803384844,0.0032389750803384844
27.346,0.004710674073513884,-0.004710674073513884
27.347,0.009304870942784897,-0.009304870942784897
27.348000000000003,0.011119651208938135,-0.011119651208938135
27.349,0.011867244492996585,-0.011867244492996585
27.35,0.013560799769853435,-0.013560799769853435
27.351000000000003,0.017559429271367027,-0.017559429271367027
27.352,0.023842135873238374,-0.023842135873238374
27.353,0.03078578724826576,-0.03078578724826576
27.354000000000003,0.03555506068077621,-0.03555506068077621
27.355,0.03500554783897014,-0.03500554783897014
27.356,0.026822383989763093,-0.026822383989763093
27.357000000000003,0.010524479907657674,-0.010524479907657674
27.358,0.012010316740798107,0.012010316740798107
27.359,0.03670747939131708,0.03670747939131708
27.360000000000003,0.05814809314511284,0.05814809314511284
27.361,0.07090209936076292,0.07090209936076292
27.362000000000002,0.07098090921753479,0.07098090921753479
27.363000000000003,0.057001028344685026,0.057001028344685026
27.364,0.030723201639865014,0.030723201639865014
27.365000000000002,0.0031982223192344433,-0.0031982223192344433
27.366000000000003,0.03820435601516177,-0.03820435601516177
27.367,0.06730805894598323,-0.06730805894598323
27.368000000000002,0.0846795356781089,-0.0846795356781089
27.369000000000003,0.086942893114258,-0.086942893114258
27.37,0.0738723831104238,-0.0738723831104238
27.371000000000002,0.048342464983426155,-0.048342464983426155
27.372000000000003,0.015580205835566765,-0.015580205835566765
27.373,0.018062115590434077,0.018062115590434077
27.374000000000002,0.046495017668065144,0.046495017668065144
27.375000000000004,0.06510879085870601,0.06510879085870601
27.376,0.07155911605520959,0.07155911605520959
27.377000000000002,0.0659892153277162,0.0659892153277162
27.378,0.05070262677343647,0.05070262677343647
27.379,0.029426028582500336,0.029426028582500336
27.380000000000003,0.006377632557800021,0.006377632557800021
27.381,0.01462830213981148,-0.01462830213981148
27.382,0.030851042059025276,-0.030851042059025276
27.383000000000003,0.04095561092404611,-0.04095561092404611
27.384,0.04498804332615827,-0.04498804332615827
27.385,0.044056198229216595,-0.044056198229216595
27.386000000000003,0.039834612373975696,-0.039834612373975696
27.387,0.034033839292743694,-0.034033839292743694
27.388,0.027963495716486268,-0.027963495716486268
27.389000000000003,0.02228096823074575,-0.02228096823074575
27.39,0.016965110942846917,-0.016965110942846917
27.391000000000002,0.011498040207076801,-0.011498040207076801
27.392000000000003,0.005189349685083266,-0.005189349685083266
27.393,0.002455106355537396,0.002455106355537396
27.394000000000002,0.011426963913154033,0.011426963913154033
27.395000000000003,0.02106262760068084,0.02106262760068084
27.396,0.030096047021309198,0.030096047021309198
27.397000000000002,0.03691481216412611,0.03691481216412611
27.398000000000003,0.039960523158757075,0.039960523158757075
27.399,0.03816955078281435,0.03816955078281435
27.400000000000002,0.03133089350773163,0.03133089350773163
27.401000000000003,0.0202517529707167,0.0202517529707167
27.402,0.006667815975167348,0.006667815975167348
27.403000000000002,0.007096606292072732,-0.007096606292072732
27.404000000000003,0.018641836529819725,-0.018641836529819725
27.405,0.02604886859561784,-0.02604886859561784
27.406000000000002,0.028328888480951255,-0.028328888480951255
27.407,0.02564134425456657,-0.02564134425456657
27.408,0.019217916753784477,-0.019217916753784477
27.409000000000002,0.011012616179136608,-0.011012616179136608
27.41,0.0031769894981637232,-0.0031769894981637232
27.411,0.0024903467320984566,0.0024903467320984566
27.412000000000003,0.004965085119969914,0.004965085119969914
27.413,0.004176177012113479,0.004176177012113479
27.414,0.0009046578976728192,0.0009046578976728192
27.415000000000003,0.003549422234550449,-0.003549422234550449
27.416,0.007814960685772096,-0.007814960685772096
27.417,0.010865883478813721,-0.010865883478813721
27.418000000000003,0.012276766400514616,-0.012276766400514616
27.419,0.012248602764585828,-0.012248602764585828
27.42,0.011414985631994798,-0.011414985631994798
27.421000000000003,0.01051204226279304,-0.01051204226279304
27.422,0.010037583848535241,-0.010037583848535241
27.423000000000002,0.010022756834271125,-0.010022756834271125
27.424000000000003,0.009995075200152507,-0.009995075200152507
27.425,0.009141613279606383,-0.009141613279606383
27.426000000000002,0.006610353695860006,-0.006610353695860006
27.427000000000003,0.0018408117602541144,-0.0018408117602541144
27.428,0.005192320881069561,0.005192320881069561
27.429000000000002,0.013905363756143055,0.013905363756143055
27.430000000000003,0.02322344129055331,0.02322344129055331
27.431,0.03184541927544113,0.03184541927544113
27.432000000000002,0.03856373475880519,0.03856373475880519
27.433000000000003,0.04253375808431592,0.04253375808431592
27.434,0.04341206227266391,0.04341206227266391
27.435000000000002,0.041334895948925095,0.041334895948925095
27.436000000000003,0.03676703813924404,0.03676703813924404
27.437,0.030294974229113796,0.030294974229113796
27.438000000000002,0.022451266491356123,0.022451266491356123
27.439,0.013635488220868413,0.013635488220868413
27.44,0.004150739766061667,0.004150739766061667
27.441000000000003,0.005677495501660227,-0.005677495501660227
27.442,0.015370622093574064,-0.015370622093574064
27.443,0.0242320700856009,-0.0242320700856009
27.444000000000003,0.03140018466482063,-0.03140018466482063
27.445,0.036021578122380264,-0.036021578122380264
27.446,0.03749426572078805,-0.03749426572078805
27.447000000000003,0.035693470307156375,-0.035693470307156375
27.448,0.031088657666908496,-0.031088657666908496
27.449,0.02469143657528043,-0.02469143657528043
27.450000000000003,0.01783035951944258,-0.01783035951944258
27.451,0.011810495940613196,-0.011810495940613196
27.452,0.007560406310592975,-0.007560406310592975
27.453000000000003,0.0053799484790697065,-0.0053799484790697065
27.454,0.004874214742514683,-0.004874214742514683
27.455000000000002,0.005100679047913186,-0.005100679047913186
27.456000000000003,0.00488793007162028,-0.00488793007162028
27.457,0.0032285628007751818,-0.0032285628007751818
27.458000000000002,0.0003752290700911029,0.0003752290700911029
27.459000000000003,0.0057193183350409335,0.0057193183350409335
27.46,0.011915392744528783,0.011915392744528783
27.461000000000002,0.01761001670809137,0.01761001670809137
27.462000000000003,0.021336289835631624,0.021336289835631624
27.463,0.02189424922110295,0.02189424922110295
27.464000000000002,0.018655499857085093,0.018655499857085093
27.465000000000003,0.011718684364578612,0.011718684364578612
27.466,0.0018920296860038006,0.0018920296860038006
27.467000000000002,0.009471048730897012,-0.009471048730897012
27.468000000000004,0.02072386267534072,-0.02072386267534072
27.469,0.030197897559541952,-0.030197897559541952
27.470000000000002,0.03644033724337349,-0.03644033724337349
27.471,0.03839142690895824,-0.03839142690895824
27.472,0.03550127140665435,-0.03550127140665435
27.473000000000003,0.02779870225292689,-0.02779870225292689
27.474,0.015921130144169758,-0.015921130144169758
27.475,0.0010988410335344581,-0.0010988410335344581
27.476000000000003,0.014928534829144599,0.014928534829144599
27.477,0.030089152281306424,0.030089152281306424
27.478,0.042259306878634044,0.042259306878634044
27.479000000000003,0.049622686700849,0.049622686700849
27.48,0.05104382694683417,0.05104382694683417
27.481,0.04636140895821284,0.04636140895821284
27.482000000000003,0.036504114196972366,0.036504114196972366
27.483,0.02336346479000838,0.02336346479000838
27.484,0.009419791167495632,0.009419791167495632
27.485000000000003,0.002807946366358645,-0.002807946366358645
27.486,0.011354780677774508,-0.011354780677774508
27.487000000000002,0.015283189528337977,-0.015283189528337977
27.488000000000003,0.014896517160633957,-0.014896517160633957
27.489,0.011618838819980826,-0.011618838819980826
27.490000000000002,0.007563286741343877,-0.007563286741343877
27.491000000000003,0.0049052830389990565,-0.0049052830389990565
27.492,0.005239669443790426,-0.005239669443790426
27.493000000000002,0.009109738751385446,-0.009109738751385446
27.494000000000003,0.015846947082426833,-0.015846947082426833
27.495,0.02376704674015981,-0.02376704674015981
27.496000000000002,0.030660717107539218,-0.030660717107539218
27.497000000000003,0.03442885733812473,-0.03442885733812473
27.498,0.03367256128617025,-0.03367256128617025
27.499000000000002,0.028067625036457374,-0.028067625036457374
27.500000000000004,0.01842555209930464,-0.01842555209930464
27.501,0.006442617800671189,-0.006442617800671189
27.502000000000002,0.005767626803960703,0.005767626803960703
27.503,0.016205222302086864,0.016205222302086864
27.504,0.023420003835443026,0.023420003835443026
27.505000000000003,0.026741471172007366,0.026741471172007366
27.506,0.026269053009409463,0.026269053009409463
27.507,0.02267068218729506,0.02267068218729506
27.508000000000003,0.016893061417396205,0.016893061417396205
27.509,0.00989912150727734,0.00989912150727734
27.51,0.002516191911736545,0.002516191911736545
27.511000000000003,0.004581991569812569,-0.004581991569812569
27.512,0.010799447498873108,-0.010799447498873108
27.513,0.015528533848003685,-0.015528533848003685
27.514000000000003,0.01812886082067411,-0.01812886082067411
27.515,0.018019577359170733,-0.018019577359170733
27.516000000000002,0.01487045537494951,-0.01487045537494951
27.517000000000003,0.008819998394539261,-0.008819998394539261
27.518,0.0006188049165984477,-0.0006188049165984477
27.519000000000002,0.008391808306564852,0.008391808306564852
27.520000000000003,0.01650400744698189,0.01650400744698189
27.521,0.022034229329117538,0.022034229329117538
27.522000000000002,0.023775111133901947,0.023775111133901947
27.523000000000003,0.021366175389963864,0.021366175389963864
27.524,0.015452651032101583,0.015452651032101583
27.525000000000002,0.007561423954011579,0.007561423954011579
27.526000000000003,0.0002879546250221703,-0.0002879546250221703
27.527,0.006131032929408094,-0.006131032929408094
27.528000000000002,0.00860225272517804,-0.00860225272517804
27.529000000000003,0.0073079137032099435,-0.0073079137032099435
27.53,0.0029127239960527527,-0.0029127239960527527
27.531000000000002,0.0030853150008454005,0.0030853150008454005
27.532,0.008817680855664025,0.008817680855664025
27.533,0.012597051026745068,0.012597051026745068
27.534000000000002,0.013384268709541309,0.013384268709541309
27.535,0.011029558290714178,0.011029558290714178
27.536,0.006225512906269961,0.006225512906269961
27.537000000000003,0.00020618775407353485,0.00020618775407353485
27.538,0.0056916448489011395,-0.0056916448489011395
27.539,0.01044989557860372,-0.01044989557860372
27.540000000000003,0.013633588396275252,-0.013633588396275252
27.541,0.015421645158235906,-0.015421645158235906
27.542,0.016413967212449063,-0.016413967212449063
27.543000000000003,0.01730363752565494,-0.01730363752565494
27.544,0.018546447057293147,-0.018546447057293147
27.545,0.020153538308038614,-0.020153538308038614
27.546000000000003,0.02168076789255204,-0.02168076789255204
27.547,0.022410897851052707,-0.022410897851052707
27.548000000000002,0.021651143214919153,-0.021651143214919153
27.549000000000003,0.01902610411883565,-0.01902610411883565
27.55,0.014649955026048237,-0.014649955026048237
27.551000000000002,0.009109877576580704,-0.009109877576580704
27.552000000000003,0.003266640481980162,-0.003266640481980162
27.553,0.002050010062017411,0.002050010062017411
27.554000000000002,0.006331026283383131,0.006331026283383131
27.555000000000003,0.009545878620295498,0.009545878620295498
27.556,0.012100006007769911,0.012100006007769911
27.557000000000002,0.014599799755742096,0.014599799755742096
27.558000000000003,0.01750961026476205,0.01750961026476205
27.559,0.020833507594372514,0.020833507594372514
27.560000000000002,0.023955490193998362,0.023955490193998362
27.561000000000003,0.025723087037834665,0.025723087037834665
27.562,0.024776055938822508,0.024776055938822508
27.563000000000002,0.020032007000028662,0.020032007000028662
27.564,0.011175357252990119,0.011175357252990119
27.565,0.0010212307221499218,-0.0010212307221499218
27.566000000000003,0.014674638322255943,-0.014674638322255943
27.567,0.027114744772796358,-0.027114744772796358
27.568,0.035494137633973084,-0.035494137633973084
27.569000000000003,0.037531028412208414,-0.037531028412208414
27.57,0.032180452832174994,-0.032180452832174994
27.571,0.020035865943169095,-0.020035865943169095
27.572000000000003,0.003328624917844267,-0.003328624917844267
27.573,0.014501313126109095,0.014501313126109095
27.574,0.029573564041220177,0.029573564041220177
27.575000000000003,0.03848972927740578,0.03848972927740578
27.576,0.039178730982080176,0.039178730982080176
27.577,0.03144767581695035,0.03144767581695035
27.578000000000003,0.017091427014030405,0.017091427014030405
27.579,0.000477478992227888,-0.000477478992227888
27.580000000000002,0.016998594769566385,-0.016998594769566385
27.581000000000003,0.028354447366736688,-0.028354447366736688
27.582,0.031549012057449755,-0.031549012057449755
27.583000000000002,0.025441425864393276,-0.025441425864393276
27.584000000000003,0.01105886015578278,-0.01105886015578278
27.585,0.008590001000008531,0.008590001000008531
27.586000000000002,0.029163552574705133,0.029163552574705133
27.587000000000003,0.045953028736178785,0.045953028736178785
27.588,0.05494579506449837,0.05494579506449837
27.589000000000002,0.053741853434664505,0.053741853434664505
27.590000000000003,0.042110788641177864,0.042110788641177864
27.591,0.022057803796158442,0.022057803796158442
27.592000000000002,0.0026191075250522043,-0.0026191075250522043
27.593000000000004,0.02717930447662921,-0.02717930447662921
27.594,0.04699813668576994,-0.04699813668576994
27.595000000000002,0.05858438768215165,-0.05858438768215165
27.596,0.060316208196637106,-0.060316208196637106
27.597,0.05272415202062887,-0.05272415202062887
27.598000000000003,0.03826241090783145,-0.03826241090783145
27.599,0.020637321007506072,-0.020637321007506072
27.6,0.0038724236585225436,-0.0038724236585225436
27.601000000000003,0.008647745255984536,0.008647745255984536
27.602,0.014914736124586625,0.014914736124586625
27.603,0.01463980487506848,0.01463980487506848
27.604000000000003,0.009141458198948377,0.009141458198948377
27.605,0.0008396788501236446,0.0008396788501236446
27.606,0.007477519201161717,-0.007477519201161717
27.607000000000003,0.013398486433085133,-0.013398486433085133
27.608,0.01544079850076438,-0.01544079850076438
27.609,0.013282915266693516,-0.013282915266693516
27.610000000000003,0.0076515480853709735,-0.0076515480853709735
27.611,5.2942418774100164e-05,5.2942418774100164e-05
27.612000000000002,0.008240119480186983,0.008240119480186983
27.613000000000003,0.015554193925132945,0.015554193925132945
27.614,0.02111480861353364,0.02111480861353364
27.615000000000002,0.024530999432613856,0.024530999432613856
27.616000000000003,0.025735787063170524,0.025735787063170524
27.617,0.02475392232585973,0.02475392232585973
27.618000000000002,0.02153165837081737,0.02153165837081737
27.619000000000003,0.015920097241178835,0.015920097241178835
27.62,0.007828094782115515,0.007828094782115515
27.621000000000002,0.0025228241613928855,-0.0025228241613928855
27.622000000000003,0.014366671660710328,-0.014366671660710328
27.623,0.026316359013506943,-0.026316359013506943
27.624000000000002,0.03652471179340758,-0.03652471179340758
27.625000000000004,0.04307584117251729,-0.04307584117251729
27.626,0.04450248747310789,-0.04450248747310789
27.627000000000002,0.04025854801441726,-0.04025854801441726
27.628,0.030969056288912666,-0.030969056288912666
27.629,0.018340459949564177,-0.018340459949564177
27.630000000000003,0.004725137322083003,-0.004725137322083003
27.631,0.007541651225990026,0.007541651225990026
27.632,0.01682185845724226,0.01682185845724226
27.633000000000003,0.02263754252013622,0.02263754252013622
27.634,0.02574133293768784,0.02574133293768784
27.635,0.027746048899428676,0.027746048899428676
27.636000000000003,0.030419053842011507,0.030419053842011507
27.637,0.034874992487865505,0.034874992487865505
27.638,0.04095523134512869,0.04095523134512869
27.639000000000003,0.04703911814672744,0.04703911814672744
27.64,0.05039956026666355,0.05039956026666355
27.641000000000002,0.048033703735869876,0.048033703735869876
27.642000000000003,0.0377284345290736,0.0377284345290736
27.643,0.01901945984449957,0.01901945984449957
27.644000000000002,0.006289587390195287,-0.006289587390195287
27.645000000000003,0.0342617791934756,-0.0342617791934756
27.646,0.05963141624381454,-0.05963141624381454
27.647000000000002,0.07708111763134981,-0.07708111763134981
27.648000000000003,0.08263437448774812,-0.08263437448774812
27.649,0.07475452223805144,-0.07475452223805144
27.650000000000002,0.05481708507077008,-0.05481708507077008
27.651000000000003,0.026804972183873437,-0.026804972183873437
27.652,0.0036915895560770983,0.0036915895560770983
27.653000000000002,0.030879895418861,0.030879895418861
27.654000000000003,0.05016564972390686,0.05016564972390686
27.655,0.05915079124720511,0.05915079124720511
27.656000000000002,0.0579625750118476,0.0579625750118476
27.657,0.04886127334710073,0.04886127334710073
27.658,0.03529691706139866,0.03529691706139866
27.659000000000002,0.020746692457622982,0.020746692457622982
27.66,0.007713543586276188,0.007713543586276188
27.661,0.0028093520200363365,-0.0028093520200363365
27.662000000000003,0.011275433116915229,-0.011275433116915229
27.663,0.018998124870739475,-0.018998124870739475
27.664,0.02728975204254377,-0.02728975204254377
27.665000000000003,0.03665767919576731,-0.03665767919576731
27.666,0.046355972460166504,-0.046355972460166504
27.667,0.05445628036624992,-0.05445628036624992
27.668000000000003,0.058414430496887396,-0.058414430496887396
27.669,0.05593454121723419,-0.05593454121723419
27.67,0.04582940969425768,-0.04582940969425768
27.671000000000003,0.028577863165438446,-0.028577863165438446
27.672,0.006383474074756241,-0.006383474074756241
27.673000000000002,0.017293065961135938,0.017293065961135938
27.674000000000003,0.03858186542784449,0.03858186542784449
27.675,0.05416502091764135,0.05416502091764135
27.676000000000002,0.06205486163260463,0.06205486163260463
27.677000000000003,0.0619623697478117,0.0619623697478117
27.678,0.05516994230789645,0.05516994230789645
27.679000000000002,0.04398533134486832,0.04398533134486832
27.680000000000003,0.03098240619285913,0.03098240619285913
27.681,0.018287578903629725,0.018287578903629725
27.682000000000002,0.00713408261796784,0.00713408261796784
27.683000000000003,0.00220310951494699,-0.00220310951494699
27.684,0.010119766076376003,-0.010119766076376003
27.685000000000002,0.017192237600401845,-0.017192237600401845
27.686000000000003,0.023696044170733347,-0.023696044170733347
27.687,0.02932683133224833,-0.02932683133224833
27.688000000000002,0.033230140283746996,-0.033230140283746996
27.689,0.03432368091459353,-0.03432368091459353
27.69,0.03178262743404303,-0.03178262743404303
27.691000000000003,0.025495191761155212,-0.025495191761155212
27.692,0.01630387266473935,-0.01630387266473935
27.693,0.0059230874134002754,-0.0059230874134002754
27.694000000000003,0.0034613568410510652,0.0034613568410510652
27.695,0.009792159303589591,0.009792159303589591
27.696,0.011748503895933442,0.011748503895933442
27.697000000000003,0.009163606459986227,0.009163606459986227
27.698,0.003112842181557314,0.003112842181557314
27.699,0.0043614679275569045,-0.0043614679275569045
27.700000000000003,0.01080782723987041,-0.01080782723987041
27.701,0.014038668683719356,-0.014038668683719356
27.702,0.012720480822216359,-0.012720480822216359
27.703000000000003,0.006714573542145466,-0.006714573542145466
27.704,0.002916245983867801,0.002916245983867801
27.705000000000002,0.014217164788571603,0.014217164788571603
27.706000000000003,0.02485914304056351,0.02485914304056351
27.707,0.032707038030232984,0.032707038030232984
27.708000000000002,0.036282152917021575,0.036282152917021575
27.709000000000003,0.035011713203760945,0.035011713203760945
27.71,0.029232430502015547,0.029232430502015547
27.711000000000002,0.01998957182480662,0.01998957182480662
27.712000000000003,0.008723260832570535,0.008723260832570535
27.713,0.0030527359318260803,-0.0030527359318260803
27.714000000000002,0.013996609751646898,-0.013996609751646898
27.715000000000003,0.023069983173090572,-0.023069983173090572
27.716,0.029564621906686142,-0.029564621906686142
27.717000000000002,0.03306715354808262,-0.03306715354808262
27.718000000000004,0.03341348413485165,-0.03341348413485165
27.719,0.030669608898964286,-0.030669608898964286
27.720000000000002,0.025146378331076878,-0.025146378331076878
27.721,0.017426819111707306,-0.017426819111707306
27.722,0.008368686126732012,-0.008368686126732012
27.723000000000003,0.0009514925429839905,0.0009514925429839905
27.724,0.009365549328185615,0.009365549328185615
27.725,0.01579530456096156,0.01579530456096156
27.726000000000003,0.01944666868471547,0.01944666868471547
27.727,0.01996330199633522,0.01996330199633522
27.728,0.017494948416793853,0.017494948416793853
27.729000000000003,0.012659590102703051,0.012659590102703051
27.73,0.006409661484166759,0.006409661484166759
27.731,0.00016054232614431415,-0.00016054232614431415
27.732000000000003,0.006015615039907075,-0.006015615039907075
27.733,0.010340915181604383,-0.010340915181604383
27.734,0.01263648028495879,-0.01263648028495879
27.735000000000003,0.012738291075058097,-0.012738291075058097
27.736,0.010783479463910145,-0.010783479463910145
27.737000000000002,0.007146801104894603,-0.007146801104894603
27.738000000000003,0.0023733563362158382,-0.0023733563362158382
27.739,0.0028797575471508144,0.0028797575471508144
27.740000000000002,0.007895355206985057,0.007895355206985057
27.741000000000003,0.011954287678455917,0.011954287678455917
27.742,0.01441232838158842,0.01441232838158842
27.743000000000002,0.014797636497762943,0.014797636497762943
27.744000000000003,0.012914014733423402,0.012914014733423402
27.745,0.008920624485207624,0.008920624485207624
27.746000000000002,0.003354070718769937,0.003354070718769937
27.747000000000003,0.0029319325647465693,-0.0029319325647465693
27.748,0.00891207695795761,-0.00891207695795761
27.749000000000002,0.01359493830317022,-0.01359493830317022
27.750000000000004,0.01623923994642552,-0.01623923994642552
27.751,0.016521268535782903,-0.016521268535782903
27.752000000000002,0.014602244594442513,-0.014602244594442513
27.753,0.011070735870514374,-0.011070735870514374
27.754,0.006771861216098534,-0.006771861216098534
27.755000000000003,0.0025704528798892582,-0.0025704528798892582
27.756,0.0008823527437276861,0.0008823527437276861
27.757,0.003308489528190108,0.003308489528190108
27.758000000000003,0.004839054378632482,0.004839054378632482
27.759,0.0059156764214193394,0.0059156764214193394
27.76,0.007088350129648001,0.007088350129648001
27.761000000000003,0.00877487138210063,0.00877487138210063
27.762,0.011061247548097349,0.011061247548097349
27.763,0.013611955212770532,0.013611955212770532
27.764000000000003,0.015726360781602264,0.015726360781602264
27.765,0.016532568928631763,0.016532568928631763
27.766000000000002,0.015265970049756385,0.015265970049756385
27.767000000000003,0.011550233317793977,0.011550233317793977
27.768,0.005592688682981533,0.005592688682981533
27.769000000000002,0.0017736800994591156,-0.0017736800994591156
27.770000000000003,0.009228252023932758,-0.009228252023932758
27.771,0.015256638241638035,-0.015256638241638035
27.772000000000002,0.018529980136008452,-0.018529980136008452
27.773000000000003,0.01827058195878774,-0.01827058195878774
27.774,0.014502198992047782,-0.014502198992047782
27.775000000000002,0.008108411073992534,-0.008108411073992534
27.776000000000003,0.0006695837469513099,-0.0006695837469513099
27.777,0.0058936998367891185,0.0058936998367891185
27.778000000000002,0.009789849330891134,0.009789849330891134
27.779000000000003,0.00982266575608841,0.00982266575608841
27.78,0.005733222412686654,0.005733222412686654
27.781000000000002,0.0016793391564643438,-0.0016793391564643438
27.782,0.010702931977535822,-0.010702931977535822
27.783,0.019101932353342548,-0.019101932353342548
27.784000000000002,0.024664385759050125,-0.024664385759050125
27.785,0.025774232715391924,-0.025774232715391924
27.786,0.021861312070744165,-0.021861312070744165
27.787000000000003,0.0136050981227867,-0.0136050981227867
27.788,0.0028253181764506126,-0.0028253181764506126
27.789,0.007929174153840831,0.007929174153840831
27.790000000000003,0.01600210645771885,0.01600210645771885
27.791,0.019310790443378367,0.019310790443378367
27.792,0.016911969864933988,0.016911969864933988
27.793000000000003,0.009300149809102447,0.009300149809102447
27.794,0.00165024795913552,-0.00165024795913552
27.795,0.013097536415185542,-0.013097536415185542
27.796000000000003,0.021905882445537414,-0.021905882445537414
27.797,0.025413866784912302,-0.025413866784912302
27.798000000000002,0.022105052726289463,-0.022105052726289463
27.799000000000003,0.012009823064322243,-0.012009823064322243
27.8,0.0032637819425271265,0.0032637819425271265
27.801000000000002,0.020876566968487092,0.020876566968487092
27.802000000000003,0.037391315171518114,0.037391315171518114
27.803,0.049530452519993134,0.049530452519993134
27.804000000000002,0.054869811870239205,0.054869811870239205
27.805000000000003,0.05230508224598546,0.05230508224598546
27.806,0.042195256685815904,0.042195256685815904
27.807000000000002,0.026177008718654644,0.026177008718654644
27.808000000000003,0.006728887789594387,0.006728887789594387
27.809,0.013379564830371695,-0.013379564830371695
27.810000000000002,0.031605558952813,-0.031605558952813
27.811000000000003,0.045999904257292175,-0.045999904257292175
27.812,0.05536629936926399,-0.05536629936926399
27.813000000000002,0.059226361917563246,-0.059226361917563246
27.814,0.057659427613032076,-0.057659427613032076
27.815,0.051110763247401346,-0.051110763247401346
27.816000000000003,0.04025003647897486,-0.04025003647897486
27.817,0.02592119529493197,-0.02592119529493197
27.818,0.009172585808911504,-0.009172585808911504
27.819000000000003,0.008687211851913394,0.008687211851913394
27.82,0.026080136949773142,0.026080136949773142
27.821,0.04125379126193397,0.04125379126193397
27.822000000000003,0.05249737530132458,0.05249737530132458
27.823,0.05844205102334624,0.05844205102334624
27.824,0.058365264173425115,0.058365264173425115
27.825000000000003,0.05240051578574425,0.05240051578574425
27.826,0.04157055332592598,0.04157055332592598
27.827,0.027609342248550373,0.027609342248550373
27.828000000000003,0.012601810840544202,0.012601810840544202
27.829,0.0014706137594567325,-0.0014706137594567325
27.830000000000002,0.013156238183179722,-0.013156238183179722
27.831000000000003,0.021811195251230184,-0.021811195251230184
27.832,0.027649436792853928,-0.027649436792853928
27.833000000000002,0.031550340877883803,-0.031550340877883803
27.834000000000003,0.0346809515526998,-0.0346809515526998
27.835,0.03804480909222285,-0.03804480909222285
27.836000000000002,0.042091057351183285,-0.042091057351183285
27.837000000000003,0.04649960971294182,-0.04649960971294182
27.838,0.05020644561100016,-0.05020644561100016
27.839000000000002,0.051663559793204895,-0.051663559793204895
27.840000000000003,0.049261552319249544,-0.049261552319249544
27.841,0.04179851097448513,-0.04179851097448513
27.842000000000002,0.028868472724355988,-0.028868472724355988
27.843000000000004,0.011067590043671346,-0.011067590043671346
27.844,0.010032832542193029,0.010032832542193029
27.845000000000002,0.03213585764962594,0.03213585764962594
27.846,0.052626083642087505,0.052626083642087505
27.847,0.06903612675511184,0.06903612675511184
27.848000000000003,0.07946814062855406,0.07946814062855406
27.849,0.08288595021504906,0.08288595021504906
27.85,0.0792306129172838,0.0792306129172838
27.851000000000003,0.06935507918624245,0.06935507918624245
27.852,0.05481086196375201,0.05481086196375201
27.853,0.03754357194424104,0.03754357194424104
27.854000000000003,0.019562163056632945,0.019562163056632945
27.855,0.0026406894270839605,0.0026406894270839605
27.856,0.01190390101788308,-0.01190390101788308
27.857000000000003,0.023333457787174133,-0.023333457787174133
27.858,0.03150381059293992,-0.03150381059293992
27.859,0.0367829977744551,-0.0367829977744551
27.860000000000003,0.039894062143055395,-0.039894062143055395
27.861,0.04171251707184533,-0.04171251707184533
27.862000000000002,0.04305382996727496,-0.04305382996727496
27.863000000000003,0.044487567993468535,-0.044487567993468535
27.864,0.04621112801302345,-0.04621112801302345
27.865000000000002,0.04800646435102718,-0.04800646435102718
27.866000000000003,0.04928839595584439,-0.04928839595584439
27.867,0.04923514590904123,-0.04923514590904123
27.868000000000002,0.0469745288634013,-0.0469745288634013
27.869000000000003,0.04178702313425099,-0.04178702313425099
27.87,0.033283358259053195,-0.033283358259053195
27.871000000000002,0.02152055075895557,-0.02152055075895557
27.872000000000003,0.007035021815070276,-0.007035021815070276
27.873,0.009209502057581769,0.009209502057581769
27.874000000000002,0.025943481430974396,0.025943481430974396
27.875000000000004,0.04175429315549497,0.04175429315549497
27.876,0.05525827621135028,0.05525827621135028
27.877000000000002,0.06525482888640333,0.06525482888640333
27.878,0.07084549498333699,0.07084549498333699
27.879,0.07151233489907512,0.07151233489907512
27.880000000000003,0.06715820212609244,0.06715820212609244
27.881,0.05811444652610151,0.05811444652610151
27.882,0.04511929646663852,0.04511929646663852
27.883000000000003,0.029265404787485766,0.029265404787485766
27.884,0.011911660629749524,0.011911660629749524
27.885,0.005444257167325725,-0.005444257167325725
27.886000000000003,0.021328672820618073,-0.021328672820618073
27.887,0.034474174370327966,-0.034474174370327966
27.888,0.04399300464970337,-0.04399300464970337
27.889000000000003,0.04950546611902571,-0.04950546611902571
27.89,0.05118852814155556,-0.05118852814155556
27.891000000000002,0.04972206942881045,-0.04972206942881045
27.892000000000003,0.0461316970474956,-0.0461316970474956
27.893,0.041552838154827104,-0.041552838154827104
27.894000000000002,0.03696377420605664,-0.03696377420605664
27.895000000000003,0.032948511936070735,-0.032948511936070735
