Czas,AbsSum,Sum
221.488,0.06680349663134932,0.06680349663134932
221.489,0.02847230598932793,0.02847230598932793
221.49,0.026342914841264053,-0.026342914841264053
221.491,0.0852305652472567,-0.0852305652472567
221.492,0.13442520642919753,-0.13442520642919753
221.493,0.16239179916376523,-0.16239179916376523
221.494,0.16299997512716835,-0.16299997512716835
221.495,0.13735070270511773,-0.13735070270511773
221.496,0.09364849675118503,-0.09364849675118503
221.497,0.045052532273194945,-0.045052532273194945
221.498,0.006038212455486969,-0.006038212455486969
221.499,0.011724919495159414,0.011724919495159414
221.5,0.0027785453609456834,0.0027785453609456834
221.501,0.0304728445960899,-0.0304728445960899
221.502,0.07841068960900477,-0.07841068960900477
221.503,0.12701659370265206,-0.12701659370265206
221.504,0.16204954860489196,-0.16204954860489196
221.505,0.17334021300204583,-0.17334021300204583
221.506,0.15788619194105646,-0.15788619194105646
221.507,0.12077181187053643,-0.12077181187053643
221.508,0.07359199805963412,-0.07359199805963412
221.509,0.030834582590368198,-0.030834582590368198
221.51,0.005325878812413198,-0.005325878812413198
221.511,0.004159953713363862,-0.004159953713363862
221.512,0.026403479475551883,-0.026403479475551883
221.513,0.06332611455261405,-0.06332611455261405
221.514,0.10111577993244436,-0.10111577993244436
221.515,0.1252476106356668,-0.1252476106356668
221.516,0.12513852482889232,-0.12513852482889232
221.517,0.09761270295850633,-0.09761270295850633
221.518,0.04806704379354043,-0.04806704379354043
221.519,0.01105153587734331,0.01105153587734331
221.52,0.06399230544810242,0.06399230544810242
221.521,0.09649658459949073,0.09649658459949073
221.522,0.10013323882786351,0.10013323882786351
221.523,0.07481059311078742,0.07481059311078742
221.524,0.02868514837512226,0.02868514837512226
221.525,0.024480339862631983,-0.024480339862631983
221.526,0.06964534049312943,-0.06964534049312943
221.527,0.09511401555801091,-0.09511401555801091
221.528,0.09598331210191546,-0.09598331210191546
221.529,0.07534667159486463,-0.07534667159486463
221.53,0.042922513027630615,-0.042922513027630615
221.531,0.011612805363255374,-0.011612805363255374
221.532,0.006843378668523803,0.006843378668523803
221.533,0.005686671640140473,0.005686671640140473
221.534,0.014806838547180123,-0.014806838547180123
221.535,0.0476592214000493,-0.0476592214000493
221.536,0.0817427784768282,-0.0817427784768282
221.537,0.10565027251072667,-0.10565027251072667
221.538,0.1115629106210363,-0.1115629106210363
221.539,0.09781927248217992,-0.09781927248217992
221.54,0.06934180239006404,-0.06934180239006404
221.541,0.035805170935114705,-0.035805170935114705
221.542,0.00818870117953796,-0.00818870117953796
221.543,0.005107670665270847,0.005107670665270847
221.544,0.0012626412510776674,0.0012626412510776674
221.545,0.01587697760036877,-0.01587697760036877
221.546,0.03700868280280112,-0.03700868280280112
221.547,0.05052137394987677,-0.05052137394987677
221.548,0.04657193305405671,-0.04657193305405671
221.549,0.020774257108642336,-0.020774257108642336
221.55,0.023705931680444214,0.023705931680444214
221.551,0.07636537839534263,0.07636537839534263
221.552,0.12188925289646568,0.12188925289646568
221.553,0.14428469600105087,0.14428469600105087
221.554,0.13143459624315934,0.13143459624315934
221.555,0.07876530171997409,0.07876530171997409
221.556,0.009009112452323054,-0.009009112452323054
221.557,0.11854221981188806,-0.11854221981188806
221.558,0.23071170225401538,-0.23071170225401538
221.559,0.32489187788351725,-0.32489187788351725
221.56,0.38352104724352687,-0.38352104724352687
221.561,0.3958323674806843,-0.3958323674806843
221.562,0.3599076654023722,-0.3599076654023722
221.563,0.2826956175226769,-0.2826956175226769
221.564,0.17815742887315034,-0.17815742887315034
221.565,0.0641209564951003,-0.0641209564951003
221.566,0.04135578731635636,0.04135578731635636
221.567,0.12331254253661394,0.12331254253661394
221.568,0.17228897283425604,0.17228897283425604
221.569,0.1854645823618184,0.1854645823618184
221.57,0.16649038296806973,0.16649038296806973
221.571,0.12420019397171544,0.12420019397171544
221.572,0.07053710369459232,0.07053710369459232
221.573,0.018096976192066405,0.018096976192066405
221.574,0.02230018526992128,-0.02230018526992128
221.575,0.0436256601640056,-0.0436256601640056
221.576,0.043910592656970504,-0.043910592656970504
221.577,0.026521025374505958,-0.026521025374505958
221.578,0.0006697160699928872,0.0006697160699928872
221.579,0.02712727041462193,0.02712727041462193
221.58,0.04220935299004336,0.04220935299004336
221.581,0.037902268490995095,0.037902268490995095
221.582,0.011091129199700012,0.011091129199700012
221.583,0.03526245266981809,-0.03526245266981809
221.584,0.0924575393871957,-0.0924575393871957
221.585,0.14796784573951482,-0.14796784573951482
221.586,0.18855995068938491,-0.18855995068938491
221.587,0.20385756790550802,-0.20385756790550802
221.588,0.1893845077479286,-0.1893845077479286
221.589,0.14817492605062632,-0.14817492605062632
221.59,0.09037504775209693,-0.09037504775209693
221.591,0.030801920128351923,-0.030801920128351923
221.592,0.014975658448837637,0.014975658448837637
221.593,0.03499127463258356,0.03499127463258356
221.594,0.024428857816021665,0.024428857816021665
221.595,0.012714682757272944,-0.012714682757272944
221.596,0.06443453261167753,-0.06443453261167753
221.597,0.11387387330616472,-0.11387387330616472
221.598,0.144014575954726,-0.144014575954726
221.599,0.1426005158814132,-0.1426005158814132
221.6,0.10587485363190596,-0.10587485363190596
221.601,0.04001478265846603,-0.04001478265846603
221.602,0.040209844817333806,0.040209844817333806
221.603,0.11522847290871963,0.11522847290871963
221.604,0.16586834957089258,0.16586834957089258
221.605,0.17849485485036332,0.17849485485036332
221.606,0.1486361105097973,0.1486361105097973
221.607,0.08207121264166473,0.08207121264166473
221.608,0.006900456786338105,-0.006900456786338105
221.609,0.09947232006626383,-0.09947232006626383
221.61,0.17743464088102712,-0.17743464088102712
221.611,0.2278822537794194,-0.2278822537794194
221.612,0.24618758388746587,-0.24618758388746587
221.613,0.23644451310786851,-0.23644451310786851
221.614,0.20935913966701203,-0.20935913966701203
221.615,0.1783253105239616,-0.1783253105239616
221.616,0.15494647394550842,-0.15494647394550842
221.617,0.14539680803153654,-0.14539680803153654
221.618,0.14872083481762555,-0.14872083481762555
221.619,0.15754830281943755,-0.15754830281943755
221.62,0.1609445258808826,-0.1609445258808826
221.621,0.14845757597239584,-0.14845757597239584
221.622,0.11406133614691794,-0.11406133614691794
221.623,0.05873324027977833,-0.05873324027977833
221.624,0.009169647614780452,0.009169647614780452
221.625,0.07589556384659812,0.07589556384659812
221.626,0.12608070771598268,0.12608070771598268
221.627,0.1472153007731869,0.1472153007731869
221.628,0.13346223096539855,0.13346223096539855
221.629,0.08767709529663326,0.08767709529663326
221.63,0.0209979666220641,0.0209979666220641
221.631,0.0499225748789508,-0.0499225748789508
221.632,0.10728855080973865,-0.10728855080973865
221.633,0.13691769605481574,-0.13691769605481574
221.634,0.1320553224496338,-0.1320553224496338
221.635,0.09518218405355616,-0.09518218405355616
221.636,0.03731826468784438,-0.03731826468784438
221.637,0.024976499389994133,0.024976499389994133
221.638,0.07406876149946462,0.07406876149946462
221.639,0.09595604086592946,0.09595604086592946
221.64,0.08393208319808143,0.08393208319808143
221.641,0.040242596925024854,0.040242596925024854
221.642,0.024672410341635476,-0.024672410341635476
221.643,0.09508807768639083,-0.09508807768639083
221.644,0.1542165128147237,-0.1542165128147237
221.645,0.18856874038249982,-0.18856874038249982
221.646,0.19128228019195892,-0.19128228019195892
221.647,0.16356012319782376,-0.16356012319782376
221.648,0.113912283991501,-0.113912283991501
221.649,0.0555041421808824,-0.0555041421808824
221.65,0.002423978753678613,-0.002423978753678613
221.651,0.034053450287220066,0.034053450287220066
221.652,0.04817691553412895,0.04817691553412895
221.653,0.04070710628914842,0.04070710628914842
221.654,0.01800864591088258,0.01800864591088258
221.655,0.010377529897165338,-0.010377529897165338
221.656,0.03488196928670073,-0.03488196928670073
221.657,0.04880080889779603,-0.04880080889779603
221.658,0.050081272289684065,-0.050081272289684065
221.659,0.04151407538746488,-0.04151407538746488
221.66,0.029354341255264038,-0.029354341255264038
221.661,0.020879329057332807,-0.020879329057332807
221.662,0.0217107093421266,-0.0217107093421266
221.663,0.03378500443385568,-0.03378500443385568
221.664,0.054632782927332646,-0.054632782927332646
221.665,0.0781958417988774,-0.0781958417988774
221.666,0.09690745587803595,-0.09690745587803595
221.667,0.10434307733620118,-0.10434307733620118
221.668,0.09755143016107659,-0.09755143016107659
221.669,0.0782649276556322,-0.0782649276556322
221.67,0.05254028028826274,-0.05254028028826274
221.671,0.028887520317905424,-0.028887520317905424
221.672,0.015448916264392931,-0.015448916264392931
221.673,0.017126120631473896,-0.017126120631473896
221.674,0.03361083101647422,-0.03361083101647422
221.675,0.05902383867448069,-0.05902383867448069
221.676,0.08337951127178078,-0.08337951127178078
221.677,0.09551535002801392,-0.09551535002801392
221.678,0.08664028231410514,-0.08664028231410514
221.679,0.053418353535741536,-0.053418353535741536
221.68,0.00040021312625038163,0.00040021312625038163
221.681,0.06438049715959049,0.06438049715959049
221.682,0.1238147467596118,0.1238147467596118
221.683,0.16350957026734525,0.16350957026734525
221.684,0.17188042341096343,0.17188042341096343
221.685,0.14417047948559314,0.14417047948559314
221.686,0.08385486450192547,0.08385486450192547
221.687,0.0018225564957454754,0.0018225564957454754
221.688,0.08641543044545064,-0.08641543044545064
221.689,0.16466461150687006,-0.16466461150687006
221.69,0.2199843091802134,-0.2199843091802134
221.691,0.24551000534656164,-0.24551000534656164
221.692,0.24142222213102094,-0.24142222213102094
221.693,0.21391586321335831,-0.21391586321335831
221.694,0.17264170323287187,-0.17264170323287187
221.695,0.12753631592257075,-0.12753631592257075
221.696,0.0860883195155745,-0.0860883195155745
221.697,0.05187202208787456,-0.05187202208787456
221.698,0.02469501166013066,-0.02469501166013066
221.699,0.002123511438809178,-0.002123511438809178
221.7,0.018330199752576437,0.018330199752576437
221.701,0.03728532943113372,0.03728532943113372
221.702,0.05263316685587793,0.05263316685587793
221.703,0.06011594696605349,0.06011594696605349
221.704,0.05515239389268678,0.05515239389268678
221.705,0.03521073848311307,0.03521073848311307
221.706,0.001767949108844702,0.001767949108844702
221.707,0.039018520353681474,-0.039018520353681474
221.708,0.07737992103607927,-0.07737992103607927
221.709,0.10258265069282346,-0.10258265069282346
221.71,0.10638542981114585,-0.10638542981114585
221.711,0.08616797678478949,-0.08616797678478949
221.712,0.046594886895851007,-0.046594886895851007
221.713,0.0009209361200155364,0.0009209361200155364
221.714,0.04100682532633759,0.04100682532633759
221.715,0.05867190591684435,0.05867190591684435
221.716,0.04393612127934965,0.04393612127934965
221.717,0.004701444091458007,-0.004701444091458007
221.718,0.07912151888390029,-0.07912151888390029
221.719,0.16326253413825065,-0.16326253413825065
221.72,0.23724479519959008,-0.23724479519959008
221.721,0.2827882539195925,-0.2827882539195925
221.722,0.28833049731121807,-0.28833049731121807
221.723,0.25230200263891245,-0.25230200263891245
221.724,0.18355328008809235,-0.18355328008809235
221.725,0.09879116605758187,-0.09879116605758187
221.726,0.017798959204539777,-0.017798959204539777
221.727,0.04210475040365802,0.04210475040365802
221.728,0.07068962802803425,0.07068962802803425
221.729,0.06714586483696583,0.06714586483696583
221.73,0.03948863605889685,0.03948863605889685
221.731,0.00132948572018865,0.00132948572018865
221.732,0.03286600144801177,-0.03286600144801177
221.733,0.05246256794695914,-0.05246256794695914
221.734,0.05377335484111745,-0.05377335484111745
221.735,0.040656291526163235,-0.040656291526163235
221.736,0.022489420203739785,-0.022489420203739785
221.737,0.010299718601569974,-0.010299718601569974
221.738,0.012422877332060933,-0.012422877332060933
221.739,0.031206239853007522,-0.031206239853007522
221.74,0.061893577623888474,-0.061893577623888474
221.741,0.09407789229482377,-0.09407789229482377
221.742,0.11523177670923457,-0.11523177670923457
221.743,0.11511841389315047,-0.11511841389315047
221.744,0.08958538937103411,-0.08958538937103411
221.745,0.042446067699602574,-0.042446067699602574
221.746,0.015211950167438815,0.015211950167438815
221.747,0.06810009407182172,0.06810009407182172
221.748,0.10120983575773801,0.10120983575773801
221.749,0.10427328350733589,0.10427328350733589
221.75,0.07479627737013317,0.07479627737013317
221.751,0.018738847157471428,0.018738847157471428
221.752,0.051307761558310294,-0.051307761558310294
221.753,0.11979504420003761,-0.11979504420003761
221.754,0.17252553515008973,-0.17252553515008973
221.755,0.20023516683577702,-0.20023516683577702
221.756,0.2004012013543801,-0.2004012013543801
221.757,0.17687356626250705,-0.17687356626250705
221.758,0.13767607246845714,-0.13767607246845714
221.759,0.09191367964834107,-0.09191367964834107
221.76,0.04695349636398405,-0.04695349636398405
221.761,0.0068518325142493675,-0.0068518325142493675
221.762,0.027538842507956796,0.027538842507956796
221.763,0.0570260969288523,0.0570260969288523
221.764,0.0819038066090334,0.0819038066090334
221.765,0.10019799315419897,0.10019799315419897
221.766,0.10721265223022125,0.10721265223022125
221.767,0.09673545512091919,0.09673545512091919
221.768,0.06358117859965695,0.06358117859965695
221.769,0.0065598602495313685,0.0065598602495313685
221.77,0.06931771488919436,-0.06931771488919436
221.771,0.15242598480420777,-0.15242598480420777
221.772,0.2263754852638692,-0.2263754852638692
221.773,0.273829834349269,-0.273829834349269
221.774,0.28126444681700935,-0.28126444681700935
221.775,0.24322072880700385,-0.24322072880700385
221.776,0.1646523230845991,-0.1646523230845991
221.777,0.060474440110673267,-0.060474440110673267
221.778,0.047739573365416677,0.047739573365416677
221.779,0.1370828097933945,0.1370828097933945
221.78,0.1891756064043726,0.1891756064043726
221.781,0.19487511350718623,0.19487511350718623
221.782,0.1564662592813848,0.1564662592813848
221.783,0.08671211904890574,0.08671211904890574
221.784,0.005077398915114717,0.005077398915114717
221.785,0.06773043895901931,-0.06773043895901931
221.786,0.11529068845793322,-0.11529068845793322
221.787,0.129492816207587,-0.129492816207587
221.788,0.11198968132341736,-0.11198968132341736
221.789,0.07283065625079876,-0.07283065625079876
221.79,0.026874104533890608,-0.026874104533890608
221.791,0.010804166887219635,0.010804166887219635
221.792,0.02908611684524276,0.02908611684524276
221.793,0.0233990016102692,0.0233990016102692
221.794,0.0038634605796307175,-0.0038634605796307175
221.795,0.044943257316439555,-0.044943257316439555
221.796,0.08959310353589234,-0.08959310353589234
221.797,0.12816991178815795,-0.12816991178815795
221.798,0.15396623893080086,-0.15396623893080086
221.799,0.16419180534830247,-0.16419180534830247
221.8,0.15956381848076595,-0.15956381848076595
221.801,0.14295910058036465,-0.14295910058036465
221.802,0.1178498247035542,-0.1178498247035542
221.803,0.08720828374124268,-0.08720828374124268
221.804,0.053262362451509504,-0.053262362451509504
221.805,0.018048429699017987,-0.018048429699017987
221.806,0.01567751171524656,0.01567751171524656
221.807,0.04379088960540023,0.04379088960540023
221.808,0.060936473453443885,0.060936473453443885
221.809,0.0616415683892344,0.0616415683892344
221.81,0.042148095961341614,0.042148095961341614
221.811,0.002330675375798341,0.002330675375798341
221.812,0.05308462251099688,-0.05308462251099688
221.813,0.11463921841906621,-0.11463921841906621
221.814,0.1698257891807421,-0.1698257891807421
221.815,0.2060240848458027,-0.2060240848458027
221.816,0.21389700105847342,-0.21389700105847342
221.817,0.1902133796663319,-0.1902133796663319
221.818,0.13915940887409062,-0.13915940887409062
221.819,0.07161869838375623,-0.07161869838375623
221.82,0.002515549980680376,-0.002515549980680376
221.821,0.053071140326528266,0.053071140326528266
221.822,0.08390731114631444,0.08390731114631444
221.823,0.0855353336190392,0.0855353336190392
221.824,0.06126295249507274,0.06126295249507274
221.825,0.02091908792645114,0.02091908792645114
221.826,0.022236086042259462,-0.022236086042259462
221.827,0.055502702316475916,-0.055502702316475916
221.828,0.07042968898484592,-0.07042968898484592
221.829,0.06510933490717752,-0.06510933490717752
221.83,0.04443357958035621,-0.04443357958035621
221.831,0.018300448025833638,-0.018300448025833638
221.832,0.0016233205768092507,0.0016233205768092507
221.833,0.005565465722990215,0.005565465722990215
221.834,0.011367674365656777,-0.011367674365656777
221.835,0.04773996538637193,-0.04773996538637193
221.836,0.09622506908364925,-0.09622506908364925
221.837,0.14571825736842814,-0.14571825736842814
221.838,0.18442526911313728,-0.18442526911313728
221.839,0.20299456490725787,-0.20299456490725787
221.84,0.196814471589287,-0.196814471589287
221.841,0.166906230384963,-0.166906230384963
221.842,0.11929328539040374,-0.11929328539040374
221.843,0.06316834822274509,-0.06316834822274509
221.844,0.008481012449234715,-0.008481012449234715
221.845,0.03634564861229683,0.03634564861229683
221.846,0.06599191386836045,0.06599191386836045
221.847,0.07881508893018085,0.07881508893018085
221.848,0.07644945730125707,0.07644945730125707
221.849,0.06272725540128476,0.06272725540128476
221.85,0.042347882185203245,0.042347882185203245
221.851,0.019702781626820265,0.019702781626820265
221.852,0.0018759170484500265,-0.0018759170484500265
221.853,0.020367289979914438,-0.020367289979914438
221.854,0.03491059521825324,-0.03491059521825324
221.855,0.04544633945386456,-0.04544633945386456
221.856,0.05235046729044879,-0.05235046729044879
221.857,0.056193919706947315,-0.056193919706947315
221.858,0.057657971910983985,-0.057657971910983985
221.859,0.05754761742742298,-0.05754761742742298
221.86,0.05680420392242691,-0.05680420392242691
221.861,0.05643381484721399,-0.05643381484721399
221.862,0.057324586670720046,-0.057324586670720046
221.863,0.0599943744922431,-0.0599943744922431
221.864,0.0643589837219124,-0.0643589837219124
221.865,0.06962102213726629,-0.06962102213726629
221.866,0.07434843445886641,-0.07434843445886641
221.867,0.07675418166236891,-0.07675418166236891
221.868,0.07512679277986423,-0.07512679277986423
221.869,0.06831638629864223,-0.06831638629864223
221.87,0.05616359582176533,-0.05616359582176533
221.871,0.03976930908701437,-0.03976930908701437
221.872,0.02153246582273083,-0.02153246582273083
221.873,0.004920600080844717,-0.004920600080844717
221.874,0.006023435292259238,0.006023435292259238
221.875,0.0073956704190112355,0.0073956704190112355
221.876,0.0037198181104060035,-0.0037198181104060035
221.877,0.028399908035081745,-0.028399908035081745
221.878,0.06520626457103795,-0.06520626457103795
221.879,0.10988310240994859,-0.10988310240994859
221.88,0.1556067435112175,-0.1556067435112175
221.881,0.19388263193402755,-0.19388263193402755
221.882,0.21604211044695987,-0.21604211044695987
221.883,0.21511165498057594,-0.21511165498057594
221.884,0.18766031472426048,-0.18766031472426048
221.885,0.13513772380901423,-0.13513772380901423
221.886,0.06424762699808773,-0.06424762699808773
221.887,0.013918095692468047,0.013918095692468047
221.888,0.08595733530677663,0.08595733530677663
221.889,0.13906745489889705,0.13906745489889705
221.89,0.16410802257375723,0.16410802257375723
221.891,0.1579977425709811,0.1579977425709811
221.892,0.12471451602443073,0.12471451602443073
221.893,0.07448803160416473,0.07448803160416473
221.894,0.021257153718102773,0.021257153718102773
221.895,0.021022087271623024,-0.021022087271623024
221.896,0.04224468894103295,-0.04224468894103295
221.897,0.039099538879113216,-0.039099538879113216
221.898,0.016179485324266607,-0.016179485324266607
221.899,0.01516592817425777,0.01516592817425777
221.9,0.040015418122251845,0.040015418122251845
221.901,0.04426129643152854,0.04426129643152854
221.902,0.018958681242165154,0.018958681242165154
221.903,0.036643730249354745,-0.036643730249354745
221.904,0.11433451347734036,-0.11433451347734036
221.905,0.19873832119884094,-0.19873832119884094
221.906,0.2712381283020767,-0.2712381283020767
221.907,0.31493757793965227,-0.31493757793965227
221.908,0.3192515505904424,-0.3192515505904424
221.909,0.2828019187745944,-0.2828019187745944
221.91,0.2137815105990135,-0.2137815105990135
221.911,0.1276889286416133,-0.1276889286416133
221.912,0.043106221448899196,-0.043106221448899196
221.913,0.02324392824952004,0.02324392824952004
221.914,0.06073608264879615,0.06073608264879615
221.915,0.06719071205446969,0.06719071205446969
221.916,0.04874033718103532,0.04874033718103532
221.917,0.017372779729365684,0.017372779729365684
221.918,0.013009102842857168,-0.013009102842857168
221.919,0.030772403147187766,-0.030772403147187766
221.92,0.029739775000678037,-0.029739775000678037
221.921,0.010506613808563325,-0.010506613808563325
221.922,0.020357517258090096,0.020357517258090096
221.923,0.05280913813395394,0.05280913813395394
221.924,0.07662873520455249,0.07662873520455249
221.925,0.08444008751137666,0.08444008751137666
221.926,0.0735567329920579,0.0735567329920579
221.927,0.04621568358844841,0.04621568358844841
221.928,0.008318197790509574,0.008318197790509574
221.929,0.03273083702162494,-0.03273083702162494
221.93,0.07026233137041482,-0.07026233137041482
221.931,0.09991020206460988,-0.09991020206460988
221.932,0.1200830061441358,-0.1200830061441358
221.933,0.13136635710074918,-0.13136635710074918
221.934,0.1352832937743167,-0.1352832937743167
221.935,0.13304621612345702,-0.13304621612345702
221.936,0.12487778241923397,-0.12487778241923397
221.937,0.11019108345974027,-0.11019108345974027
221.938,0.08851972955340293,-0.08851972955340293
221.939,0.0607359818090516,-0.0607359818090516
221.94,0.029931183590199972,-0.029931183590199972
221.941,0.0014275466765483191,-0.0014275466765483191
221.942,0.01828461849690277,0.01828461849690277
221.943,0.023452875479365698,0.023452875479365698
221.944,0.011196529563875401,0.011196529563875401
221.945,0.016924870741367393,-0.016924870741367393
221.946,0.05459093259214309,-0.05459093259214309
221.947,0.09195141130276918,-0.09195141130276918
221.948,0.11818612839435161,-0.11818612839435161
221.949,0.12467843405496137,-0.12467843405496137
221.95,0.10780694739249053,-0.10780694739249053
221.951,0.07040635121693117,-0.07040635121693117
221.952,0.021324034042478512,-0.021324034042478512
221.953,0.026905768736310565,0.026905768736310565
221.954,0.061627302905385095,0.061627302905385095
221.955,0.0737872735492493,0.0737872735492493
221.956,0.06063867911140042,0.06063867911140042
221.957,0.026534433103479582,0.026534433103479582
221.958,0.018486014091984804,-0.018486014091984804
221.959,0.06190346789243717,-0.06190346789243717
221.96,0.09271078619189099,-0.09271078619189099
221.961,0.10490280256408813,-0.10490280256408813
221.962,0.0993161720418052,-0.0993161720418052
221.963,0.08319131137472147,-0.08319131137472147
221.964,0.0675676583521938,-0.0675676583521938
221.965,0.06334201829530761,-0.06334201829530761
221.966,0.07728025483873069,-0.07728025483873069
221.967,0.10931779713738665,-0.10931779713738665
221.968,0.15209090493054056,-0.15209090493054056
221.969,0.1929287045199215,-0.1929287045199215
221.97,0.21773265092327698,-0.21773265092327698
221.971,0.2155360821326623,-0.2155360821326623
221.972,0.1822817034084755,-0.1822817034084755
221.973,0.12256880532882519,-0.12256880532882519
221.974,0.04874356510879607,-0.04874356510879607
221.975,0.02245903073546951,0.02245903073546951
221.976,0.07472955814279625,0.07472955814279625
221.977,0.09698252139815944,0.09698252139815944
221.978,0.08664651677567603,0.08664651677567603
221.979,0.05040568621227082,0.05040568621227082
221.98,0.0021363369794396014,0.0021363369794396014
221.981,0.041345711833262855,-0.041345711833262855
221.982,0.06542667412227998,-0.06542667412227998
221.983,0.062142916434800854,-0.062142916434800854
221.984,0.032563818785241616,-0.032563818785241616
221.985,0.013624637775169202,0.013624637775169202
221.986,0.061203286347569774,0.061203286347569774
221.987,0.09421297805054984,0.09421297805054984
221.988,0.10097277038394048,0.10097277038394048
221.989,0.07777052111641813,0.07777052111641813
221.99,0.030084435304346346,0.030084435304346346
221.991,0.02904482945790532,-0.02904482945790532
221.992,0.0829966223338493,-0.0829966223338493
221.993,0.11669164291244338,-0.11669164291244338
221.994,0.12128894111047372,-0.12128894111047372
221.995,0.09702372208233223,-0.09702372208233223
221.996,0.053312425776023686,-0.053312425776023686
221.997,0.006072603013870026,-0.006072603013870026
221.998,0.026962911583750415,0.026962911583750415
221.999,0.031563239430959955,0.031563239430959955
222.0,0.0013893845885140088,0.0013893845885140088
222.001,0.059827638245424586,-0.059827638245424586
222.002,0.13895984879961076,-0.13895984879961076
222.003,0.2168243754704371,-0.2168243754704371
222.004,0.27325554016613496,-0.27325554016613496
222.005,0.29249157192296504,-0.29249157192296504
222.006,0.26739353890014017,-0.26739353890014017
222.007,0.2013639827769662,-0.2013639827769662
222.008,0.107488211362192,-0.107488211362192
222.009,0.0051884797864556464,-0.0051884797864556464
222.01,0.08465728122514515,0.08465728122514515
222.011,0.14480380733552134,0.14480380733552134
222.012,0.1656049734815812,0.1656049734815812
222.013,0.1468877333975902,0.1468877333975902
222.014,0.09736422807864664,0.09736422807864664
222.015,0.0318805471479322,0.0318805471479322
222.016,0.03265036642374375,-0.03265036642374375
222.017,0.08149587259405944,-0.08149587259405944
222.018,0.10542942299729341,-0.10542942299729341
222.019,0.10236031252064814,-0.10236031252064814
222.02,0.07700335474334596,-0.07700335474334596
222.021,0.03886699342898614,-0.03886699342898614
222.022,0.0007378619143685317,0.0007378619143685317
222.023,0.03176881742517734,0.03176881742517734
222.024,0.04777050410778405,0.04777050410778405
222.025,0.04690131046334445,0.04690131046334445
222.026,0.03154844525544087,0.03154844525544087
222.027,0.006828554899473316,0.006828554899473316
222.028,0.021434026012657315,-0.021434026012657315
222.029,0.048564231950636305,-0.048564231950636305
222.03,0.07216090501459238,-0.07216090501459238
222.031,0.09220690063522363,-0.09220690063522363
222.032,0.11023745902409043,-0.11023745902409043
222.033,0.1279514712134625,-0.1279514712134625
222.034,0.14582323163165478,-0.14582323163165478
222.035,0.162256108592846,-0.162256108592846
222.036,0.17362368310381815,-0.17362368310381815
222.037,0.17523358063478967,-0.17523358063478967
222.038,0.16292502460850844,-0.16292502460850844
222.039,0.1347777537254573,-0.1347777537254573
222.04,0.09234368795015191,-0.09234368795015191
222.041,0.0409376538296099,-0.0409376538296099
222.042,0.0111965919285677,0.0111965919285677
222.043,0.05467965748082704,0.05467965748082704
222.044,0.08127454472308293,0.08127454472308293
222.045,0.08600413870968993,0.08600413870968993
222.046,0.06848747093568797,0.06848747093568797
222.047,0.0330902706157814,0.0330902706157814
222.048,0.012170817175977233,-0.012170817175977233
222.049,0.057664437509040156,-0.057664437509040156
222.05,0.09453947107984673,-0.09453947107984673
222.051,0.1167979962223793,-0.1167979962223793
222.052,0.12247414638551057,-0.12247414638551057
222.053,0.11362844359416913,-0.11362844359416913
222.054,0.09523258252774058,-0.09523258252774058
222.055,0.07335287737592111,-0.07335287737592111
222.056,0.053236642811320234,-0.053236642811320234
222.057,0.037904494683685064,-0.037904494683685064
222.058,0.02765716994947065,-0.02765716994947065
222.059,0.02058510516483969,-0.02058510516483969
222.06,0.013830382403447028,-0.013830382403447028
222.061,0.005106215249062185,-0.005106215249062185
222.062,0.006091311263046295,0.006091311263046295
222.063,0.018020414667593743,0.018020414667593743
222.064,0.02714733655145496,0.02714733655145496
222.065,0.02935657028077787,0.02935657028077787
222.066,0.021488521034683794,0.021488521034683794
222.067,0.0026569399246438863,0.0026569399246438863
222.068,0.025130028126577053,-0.025130028126577053
222.069,0.05728551274143223,-0.05728551274143223
222.07,0.08781830831660165,-0.08781830831660165
222.071,0.11099656591150464,-0.11099656591150464
222.072,0.1229659569171091,-0.1229659569171091
222.073,0.12280297152544128,-0.12280297152544128
222.074,0.11267275817622735,-0.11267275817622735
222.075,0.09705629789362791,-0.09705629789362791
222.076,0.08131217409479918,-0.08131217409479918
222.077,0.07004295476967104,-0.07004295476967104
222.078,0.06577998146156716,-0.06577998146156716
222.079,0.06837492651563248,-0.06837492651563248
222.08,0.0752415721653783,-0.0752415721653783
222.081,0.08231506112460774,-0.08231506112460774
222.082,0.08538251088603899,-0.08538251088603899
222.083,0.08135509961648002,-0.08135509961648002
222.084,0.0691146965932109,-0.0691146965932109
222.085,0.04974230831897619,-0.04974230831897619
222.086,0.02614920951548494,-0.02614920951548494
222.087,0.002305557477847997,-0.002305557477847997
222.088,0.01766045643918779,0.01766045643918779
222.089,0.030250441165327047,0.030250441165327047
222.09,0.03313604138902515,0.03313604138902515
222.091,0.0254423933343495,0.0254423933343495
222.092,0.00784800531287333,0.00784800531287333
222.093,0.017420464789670298,-0.017420464789670298
222.094,0.0466843423081007,-0.0466843423081007
222.095,0.0750738144788553,-0.0750738144788553
222.096,0.09707635945934878,-0.09707635945934878
222.097,0.1074561150342519,-0.1074561150342519
222.098,0.1024907793628903,-0.1024907793628903
222.099,0.0812807338193362,-0.0812807338193362
222.1,0.04672025638992383,-0.04672025638992383
222.101,0.005673870680322435,-0.005673870680322435
222.102,0.031968177686985344,0.031968177686985344
222.103,0.055376639477588974,0.055376639477588974
222.104,0.05563366530985836,0.05563366530985836
222.105,0.028608040773127508,0.028608040773127508
222.106,0.02305799359254035,-0.02305799359254035
222.107,0.08964939648207804,-0.08964939648207804
222.108,0.15615066268164546,-0.15615066268164546
222.109,0.2058555559839662,-0.2058555559839662
222.11,0.22494375880485717,-0.22494375880485717
222.111,0.20671904748601067,-0.20671904748601067
222.112,0.15414708359373708,-0.15414708359373708
222.113,0.07971962529226817,-0.07971962529226817
222.114,0.0024261790729908084,-0.0024261790729908084
222.115,0.0574803320332995,0.0574803320332995
222.116,0.0844681603307531,0.0844681603307531
222.117,0.07264209916247677,0.07264209916247677
222.118,0.02796796903997323,0.02796796903997323
222.119,0.03307535500791403,-0.03307535500791403
222.12,0.08821785517013458,-0.08821785517013458
222.121,0.11620585190576171,-0.11620585190576171
222.122,0.10366312533030331,-0.10366312533030331
222.123,0.049840572680452166,-0.049840572680452166
222.124,0.03235515189146754,0.03235515189146754
222.125,0.11956322579009737,0.11956322579009737
222.126,0.18459450659082566,0.18459450659082566
222.127,0.20456124563887768,0.20456124563887768
222.128,0.1680442144043468,0.1680442144043468
222.129,0.07904955861037255,0.07904955861037255
222.13,0.04355435072112146,-0.04355435072112146
222.131,0.1710533211385067,-0.1710533211385067
222.132,0.2729056420296416,-0.2729056420296416
222.133,0.3253610144322926,-0.3253610144322926
222.134,0.3180740292719896,-0.3180740292719896
222.135,0.2567203378982831,-0.2567203378982831
222.136,0.1608665386017838,-0.1608665386017838
222.137,0.05782090292035513,-0.05782090292035513
222.138,0.025571337015291018,0.025571337015291018
222.139,0.0706227742721941,0.0706227742721941
222.14,0.0716448213485319,0.0716448213485319
222.141,0.03655484546037924,0.03655484546037924
222.142,0.016746986814050402,-0.016746986814050402
222.143,0.06688045131961917,-0.06688045131961917
222.144,0.09614450636058214,-0.09614450636058214
222.145,0.09598735043376994,-0.09598735043376994
222.146,0.06909114124252225,-0.06909114124252225
222.147,0.02756247222781949,-0.02756247222781949
222.148,0.011964121640761105,0.011964121640761105
222.149,0.03450042281663568,0.03450042281663568
222.15,0.031987371854746316,0.031987371854746316
222.151,0.005902991610409414,0.005902991610409414
222.152,0.033607910896869764,-0.033607910896869764
222.153,0.0716604852263707,-0.0716604852263707
222.154,0.09414617172352269,-0.09414617172352269
222.155,0.09286017508153122,-0.09286017508153122
222.156,0.06844587630470578,-0.06844587630470578
222.157,0.030161715094054298,-0.030161715094054298
222.158,0.00739900990079434,0.00739900990079434
222.159,0.029450489260540058,0.029450489260540058
222.16,0.026211970131442275,0.026211970131442275
222.161,0.003631725605325986,-0.003631725605325986
222.162,0.0523683441394337,-0.0523683441394337
222.163,0.10574284545897095,-0.10574284545897095
222.164,0.14759853240000786,-0.14759853240000786
222.165,0.16507994388029223,-0.16507994388029223
222.166,0.15266269023205803,-0.15266269023205803
222.167,0.11372870570103677,-0.11372870570103677
222.168,0.05927451206296297,-0.05927451206296297
222.169,0.0043098419127243215,-0.0043098419127243215
222.17,0.03676332478987754,0.03676332478987754
222.171,0.0542463700898177,0.0542463700898177
222.172,0.045454970197987166,0.045454970197987166
222.173,0.01468170989716211,0.01468170989716211
222.174,0.028916535355487216,-0.028916535355487216
222.175,0.0745607306903221,-0.0745607306903221
222.176,0.11299641005454464,-0.11299641005454464
222.177,0.13850753128744442,-0.13850753128744442
222.178,0.14931091456584789,-0.14931091456584789
222.179,0.14652533452065064,-0.14652533452065064
222.18,0.13244834287880392,-0.13244834287880392
222.181,0.10906719306582091,-0.10906719306582091
222.182,0.07751758732966019,-0.07751758732966019
222.183,0.038689116209542296,-0.038689116209542296
222.184,0.005416525697805374,0.005416525697805374
222.185,0.05038435948158693,0.05038435948158693
222.186,0.08900721563290892,0.08900721563290892
222.187,0.11235143024876426,0.11235143024876426
222.188,0.11217422850398173,0.11217422850398173
222.189,0.0839562864144261,0.0839562864144261
222.19,0.029409645773625925,0.029409645773625925
222.191,0.04265442895606508,-0.04265442895606508
222.192,0.11773253966599573,-0.11773253966599573
222.193,0.17915941336939434,-0.17915941336939434
222.194,0.21279646596087964,-0.21279646596087964
222.195,0.21138341457337506,-0.21138341457337506
222.196,0.17703250620367006,-0.17703250620367006
222.197,0.12087225465533158,-0.12087225465533158
222.198,0.059772375387799004,-0.059772375387799004
222.199,0.011093421997643071,-0.011093421997643071
222.2,0.012856121451958247,0.012856121451958247
222.201,0.008785693472168843,0.008785693472168843
222.202,0.016597599579853517,-0.016597599579853517
222.203,0.049028633078090134,-0.049028633078090134
222.204,0.07180694166908097,-0.07180694166908097
222.205,0.07190577640199658,-0.07190577640199658
222.206,0.04496497890454387,-0.04496497890454387
222.207,0.002623767434686952,0.002623767434686952
222.208,0.05538556811969664,0.05538556811969664
222.209,0.09375897190561111,0.09375897190561111
222.21,0.10082612002359448,0.10082612002359448
222.211,0.06852363245961746,0.06852363245961746
222.212,0.001175322732680062,0.001175322732680062
222.213,0.08497752122787083,-0.08497752122787083
222.214,0.16626291530911574,-0.16626291530911574
222.215,0.2187459863207254,-0.2187459863207254
222.216,0.22580651809790886,-0.22580651809790886
222.217,0.1836584106436664,-0.1836584106436664
222.218,0.10296380663808313,-0.10296380663808313
222.219,0.00593647037433831,-0.00593647037433831
222.22,0.0802141809680994,0.0802141809680994
222.221,0.13145616792593895,0.13145616792593895
222.222,0.13415231791088678,0.13415231791088678
222.223,0.08905383848873161,0.08905383848873161
222.224,0.010840102899408954,0.010840102899408954
222.225,0.07659792582159708,-0.07659792582159708
222.226,0.1475859457075276,-0.1475859457075276
222.227,0.18243203393558527,-0.18243203393558527
222.228,0.17310461766328689,-0.17310461766328689
222.229,0.125125310466069,-0.125125310466069
222.23,0.055230593560728014,-0.055230593560728014
222.231,0.014289526670294928,0.014289526670294928
222.232,0.06265359403210025,0.06265359403210025
222.233,0.07677259567798655,0.07677259567798655
222.234,0.05466852956518076,0.05466852956518076
222.235,0.0052221492784649826,0.0052221492784649826
222.236,0.055430570978770466,-0.055430570978770466
222.237,0.10947747459122315,-0.10947747459122315
222.238,0.14305964082906075,-0.14305964082906075
222.239,0.15013796384265565,-0.15013796384265565
222.24,0.13348403605199255,-0.13348403605199255
222.241,0.10270622855698897,-0.10270622855698897
222.242,0.070209823518535,-0.070209823518535
222.243,0.04661444297711048,-0.04661444297711048
222.244,0.03722534099354713,-0.03722534099354713
222.245,0.04068614764977285,-0.04068614764977285
222.246,0.050120814247198275,-0.050120814247198275
222.247,0.056200805328984194,-0.056200805328984194
222.248,0.05094875013507738,-0.05094875013507738
222.249,0.03090848112442912,-0.03090848112442912
222.25,0.0013927852467772173,0.0013927852467772173
222.251,0.03812245765418565,0.03812245765418565
222.252,0.06864547078396477,0.06864547078396477
222.253,0.0829436013660001,0.0829436013660001
222.254,0.07479331512574716,0.07479331512574716
222.255,0.043696992413307045,0.043696992413307045
222.256,0.0049658029048654795,-0.0049658029048654795
222.257,0.06149435638623657,-0.06149435638623657
222.258,0.11453182263050676,-0.11453182263050676
222.259,0.1539626119568569,-0.1539626119568569
222.26,0.17320006093526163,-0.17320006093526163
222.261,0.1703202663902662,-0.1703202663902662
222.262,0.14792413013353367,-0.14792413013353367
222.263,0.11200065135260795,-0.11200065135260795
222.264,0.07029146871338654,-0.07029146871338654
222.265,0.030669214754255436,-0.030669214754255436
222.266,0.00012154112059503674,0.00012154112059503674
222.267,0.01725089897753973,0.01725089897753973
222.268,0.018205719300882883,0.018205719300882883
222.269,0.0029708939033443738,0.0029708939033443738
222.27,0.025906324208574305,-0.025906324208574305
222.271,0.06340516941829666,-0.06340516941829666
222.272,0.10243466140119328,-0.10243466140119328
222.273,0.1347331445596135,-0.1347331445596135
222.274,0.15232202998341204,-0.15232202998341204
222.275,0.14933573385087007,-0.14933573385087007
222.276,0.12379713806723303,-0.12379713806723303
222.277,0.0787596582879968,-0.0787596582879968
222.278,0.02228832782370871,-0.02228832782370871
222.279,0.0339726544147132,0.0339726544147132
222.28,0.07746580934961855,0.07746580934961855
222.281,0.09798963487442736,0.09798963487442736
222.282,0.09064103099068532,0.09064103099068532
222.283,0.05748204807118218,0.05748204807118218
222.284,0.007287276366163331,0.007287276366163331
222.285,0.046714331394953845,-0.046714331394953845
222.286,0.09054866770987735,-0.09054866770987735
222.287,0.11359136951568183,-0.11359136951568183
222.288,0.1117865989588328,-0.1117865989588328
222.289,0.08893421280676728,-0.08893421280676728
222.29,0.05555472842018738,-0.05555472842018738
222.291,0.025596271446567842,-0.025596271446567842
222.292,0.01195116653651851,-0.01195116653651851
222.293,0.022167634892581334,-0.022167634892581334
222.294,0.05572639595852047,-0.05572639595852047
222.295,0.1037942502357242,-0.1037942502357242
222.296,0.15160424287415952,-0.15160424287415952
222.297,0.18278539347587075,-0.18278539347587075
222.298,0.18434004099586587,-0.18434004099586587
222.299,0.15074695247312475,-0.15074695247312475
222.3,0.08592676730095328,-0.08592676730095328
222.301,0.0024616401389419007,-0.0024616401389419007
222.302,0.08169641977194786,0.08169641977194786
222.303,0.14803261770000598,0.14803261770000598
222.304,0.18235534155603195,0.18235534155603195
222.305,0.17833758050068238,0.17833758050068238
222.306,0.1387419032467152,0.1387419032467152
222.307,0.07409194377937811,0.07409194377937811
222.308,0.0006698766032758874,-0.0006698766032758874
222.309,0.07042648261997253,-0.07042648261997253
222.31,0.12372402424774365,-0.12372402424774365
222.311,0.15511825034229432,-0.15511825034229432
222.312,0.165491815902032,-0.165491815902032
222.313,0.16048264358269004,-0.16048264358269004
222.314,0.14774425413471448,-0.14774425413471448
222.315,0.13406035861550725,-0.13406035861550725
222.316,0.12327809122938627,-0.12327809122938627
222.317,0.1156511974978428,-0.1156511974978428
222.318,0.10864319845123172,-0.10864319845123172
222.319,0.09872585575620396,-0.09872585575620396
222.32,0.08339443138228708,-0.08339443138228708
222.321,0.06260375088871106,-0.06260375088871106
222.322,0.03909604410532552,-0.03909604410532552
222.323,0.017533164086810604,-0.017533164086810604
222.324,0.0027970530742811306,-0.0027970530742811306
222.325,0.001877291899982314,0.001877291899982314
222.326,0.0037768998784454277,-0.0037768998784454277
222.327,0.01678541739747974,-0.01678541739747974
222.328,0.031824969364507516,-0.031824969364507516
222.329,0.04297520219337969,-0.04297520219337969
222.33,0.045720836627930916,-0.045720836627930916
222.331,0.03850789679537414,-0.03850789679537414
222.332,0.023316033266972624,-0.023316033266972624
222.333,0.005050326172258424,-0.005050326172258424
222.334,0.010041400355231156,0.010041400355231156
222.335,0.016395128257762126,0.016395128257762126
222.336,0.010932009738485293,0.010932009738485293
222.337,0.005945685225973385,-0.005945685225973385
222.338,0.030465620853992292,-0.030465620853992292
222.339,0.056636635487530396,-0.056636635487530396
222.34,0.07804141618776628,-0.07804141618776628
222.341,0.08968482461843053,-0.08968482461843053
222.342,0.08932484636798554,-0.08932484636798554
222.343,0.07791101307238946,-0.07791101307238946
222.344,0.05906239584174533,-0.05906239584174533
222.345,0.037825840872418914,-0.037825840872418914
222.346,0.019162937641398647,-0.019162937641398647
222.347,0.006659355733096173,-0.006659355733096173
222.348,0.0018294949025582374,-0.0018294949025582374
222.349,0.004155933489359387,-0.004155933489359387
222.35,0.01174459605888345,-0.01174459605888345
222.351,0.02228290447074477,-0.02228290447074477
222.352,0.033920661156295884,-0.033920661156295884
222.353,0.045765199713497906,-0.045765199713497906
222.354,0.057857085302234434,-0.057857085302234434
222.355,0.07070044024108246,-0.07070044024108246
222.356,0.0845860504011321,-0.0845860504011321
222.357,0.09900972251680074,-0.09900972251680074
222.358,0.11243617486176616,-0.11243617486176616
222.359,0.12251621326536277,-0.12251621326536277
222.36,0.12668921333521477,-0.12668921333521477
222.361,0.1229597857316681,-0.1229597857316681
222.362,0.11057715656613176,-0.11057715656613176
222.363,0.09038558912682249,-0.09038558912682249
222.364,0.06473411003995733,-0.06473411003995733
222.365,0.036985927518734085,-0.036985927518734085
222.366,0.01079547922734847,-0.01079547922734847
222.367,0.010620091411515098,0.010620091411515098
222.368,0.02501379965263717,0.02501379965263717
222.369,0.03133780059184477,0.03133780059184477
222.37,0.029679225172050128,0.029679225172050128
222.371,0.02100986286346762,0.02100986286346762
222.372,0.006893905557717961,0.006893905557717961
222.373,0.010733678612013686,-0.010733678612013686
222.374,0.02968611896962181,-0.02968611896962181
222.375,0.047597572540574284,-0.047597572540574284
222.376,0.06205769740180722,-0.06205769740180722
222.377,0.07090207368780854,-0.07090207368780854
222.378,0.07267267776955344,-0.07267267776955344
222.379,0.06714814326614305,-0.06714814326614305
222.38,0.055745595971931405,-0.055745595971931405
222.381,0.04156573167791666,-0.04156573167791666
222.382,0.028920052786611805,-0.028920052786611805
222.383,0.022336399122705908,-0.022336399122705908
222.384,0.025239842544044766,-0.025239842544044766
222.385,0.0386787559027556,-0.0386787559027556
222.386,0.06053754770989195,-0.06053754770989195
222.387,0.08560223242114784,-0.08560223242114784
222.388,0.10662459181806982,-0.10662459181806982
222.389,0.11622047718451278,-0.11622047718451278
222.39,0.10913313922014367,-0.10913313922014367
222.391,0.08419948636637054,-0.08419948636637054
222.392,0.04535665507591491,-0.04535665507591491
222.393,0.0012427887859715048,-0.0012427887859715048
222.394,0.03666655857553747,0.03666655857553747
222.395,0.056994481836412536,0.056994481836412536
222.396,0.051705428193922875,0.051705428193922875
222.397,0.01871883943228969,0.01871883943228969
222.398,0.03693566697623751,-0.03693566697623751
222.399,0.1038795482257232,-0.1038795482257232
222.4,0.1669812322235602,-0.1669812322235602
222.401,0.21115380365662284,-0.21115380365662284
222.402,0.22532969466835306,-0.22532969466835306
222.403,0.20548484083988938,-0.20548484083988938
222.404,0.1558171414041083,-0.1558171414041083
222.405,0.08769476467094262,-0.08769476467094262
222.406,0.016632826749199192,-0.016632826749199192
222.407,0.04186029486466558,0.04186029486466558
222.408,0.07638309614913408,0.07638309614913408
222.409,0.08251102743857608,0.08251102743857608
222.41,0.06362115865599582,0.06362115865599582
222.411,0.02946474974222335,0.02946474974222335
222.412,0.007047307974090811,-0.007047307974090811
222.413,0.03385255225254835,-0.03385255225254835
222.414,0.043321820532210564,-0.043321820532210564
222.415,0.03435442949372025,-0.03435442949372025
222.416,0.012391581677470787,-0.012391581677470787
222.417,0.012595686418029883,0.012595686418029883
222.418,0.02946891639995175,0.02946891639995175
222.419,0.029562730154419015,0.029562730154419015
222.42,0.009475068936820152,0.009475068936820152
222.421,0.027826391545197504,-0.027826391545197504
222.422,0.07387087385574254,-0.07387087385574254
222.423,0.11719747157334293,-0.11719747157334293
222.424,0.14669602620668387,-0.14669602620668387
222.425,0.1547401267238382,-0.1547401267238382
222.426,0.1391908246697321,-0.1391908246697321
222.427,0.10374455838609342,-0.10374455838609342
222.428,0.056634871893408545,-0.056634871893408545
222.429,0.008196199429371775,-0.008196199429371775
222.43,0.03189826731652823,0.03189826731652823
222.431,0.056889050862925616,0.056889050862925616
222.432,0.06408211661487417,0.06408211661487417
222.433,0.054720620801785635,0.054720620801785635
222.434,0.032825943499573684,0.032825943499573684
222.435,0.0035559601718095912,0.0035559601718095912
222.436,0.028294391115389894,-0.028294391115389894
222.437,0.059177438888384004,-0.059177438888384004
222.438,0.08689611066860015,-0.08689611066860015
222.439,0.11009569161041688,-0.11009569161041688
222.44,0.12754763570674055,-0.12754763570674055
222.441,0.1376772787854389,-0.1376772787854389
222.442,0.13863943033768833,-0.13863943033768833
222.443,0.12896819311824026,-0.12896819311824026
222.444,0.10853594883086726,-0.10853594883086726
222.445,0.07937183076950072,-0.07937183076950072
222.446,0.045890998312779985,-0.045890998312779985
222.447,0.014279255505618038,-0.014279255505618038
222.448,0.008905779985430629,0.008905779985430629
222.449,0.01853465111691399,0.01853465111691399
222.45,0.012524182858076882,0.012524182858076882
222.451,0.007305940611018968,-0.007305940611018968
222.452,0.035500594838131505,-0.035500594838131505
222.453,0.06436112330311772,-0.06436112330311772
222.454,0.08608024518112756,-0.08608024518112756
222.455,0.09497218077854952,-0.09497218077854952
222.456,0.08909719463259536,-0.08909719463259536
222.457,0.07076355512025967,-0.07076355512025967
222.458,0.04575056979831671,-0.04575056979831671
222.459,0.02151105007440468,-0.02151105007440468
222.46,0.004937983029185911,-0.004937983029185911
222.461,0.00040709239897995797,-0.00040709239897995797
222.462,0.008693555419280408,-0.008693555419280408
222.463,0.027051075631411958,-0.027051075631411958
222.464,0.050346556040344215,-0.050346556040344215
222.465,0.07280291865829291,-0.07280291865829291
222.466,0.08973256575146871,-0.08973256575146871
222.467,0.09869692818810216,-0.09869692818810216
222.468,0.09977435722609818,-0.09977435722609818
222.469,0.09496117496545153,-0.09496117496545153
222.47,0.0870395102602598,-0.0870395102602598
222.471,0.07840826982810611,-0.07840826982810611
222.472,0.07033642626349368,-0.07033642626349368
222.473,0.0628843686960654,-0.0628843686960654
222.474,0.05543990420509759,-0.05543990420509759
222.475,0.04755233423663674,-0.04755233423663674
222.476,0.039626364123210855,-0.039626364123210855
222.477,0.03310574296223345,-0.03310574296223345
222.478,0.030006651930362782,-0.030006651930362782
222.479,0.03195948887459643,-0.03195948887459643
222.48,0.03916184238054787,-0.03916184238054787
222.481,0.04973077820108529,-0.04973077820108529
222.482,0.05982526211985162,-0.05982526211985162
222.483,0.06462558694475551,-0.06462558694475551
222.484,0.05991054381159777,-0.05991054381159777
222.485,0.043699526565668334,-0.043699526565668334
222.486,0.017339475198518306,-0.017339475198518306
222.487,0.014436928638385638,0.014436928638385638
222.488,0.04461523554549518,0.04461523554549518
222.489,0.0658816144972636,0.0658816144972636
222.49,0.07285817485178914,0.07285817485178914
222.491,0.06383185862809992,0.06383185862809992
222.492,0.041353055574313125,0.041353055574313125
222.493,0.011449537849531177,0.011449537849531177
222.494,0.018319009094440286,-0.018319009094440286
222.495,0.041320621957981585,-0.041320621957981585
222.496,0.05397490952008055,-0.05397490952008055
222.497,0.05678509961361222,-0.05678509961361222
222.498,0.05389274194619054,-0.05389274194619054
222.499,0.05129292234165028,-0.05129292234165028
222.5,0.05434018741697899,-0.05434018741697899
222.501,0.06545689484378936,-0.06545689484378936
222.502,0.08291607396229639,-0.08291607396229639
222.503,0.1012115994461471,-0.1012115994461471
222.504,0.11296633187365512,-0.11296633187365512
222.505,0.11175811370592537,-0.11175811370592537
222.506,0.09486906675886508,-0.09486906675886508
222.507,0.06492844814045606,-0.06492844814045606
222.508,0.029751398907292614,-0.029751398907292614
222.509,0.00027452943342809455,-0.00027452943342809455
222.51,0.012843920676169462,0.012843920676169462
222.511,0.002886354960315307,0.002886354960315307
222.512,0.030234044850511732,-0.030234044850511732
222.513,0.07923764688549362,-0.07923764688549362
222.514,0.13108251306055851,-0.13108251306055851
222.515,0.17054031307435935,-0.17054031307435935
222.516,0.1847125195142807,-0.1847125195142807
222.517,0.16710447850682364,-0.16710447850682364
222.518,0.11996033326908528,-0.11996033326908528
222.519,0.054065809605737924,-0.054065809605737924
222.52,0.014006236630002,0.014006236630002
222.521,0.06644291720761464,0.06644291720761464
222.522,0.0892055271967711,0.0892055271967711
222.523,0.07603088557320681,0.07603088557320681
222.524,0.03023966776606879,0.03023966776606879
222.525,0.0361703550066268,-0.0361703550066268
222.526,0.10585945365453253,-0.10585945365453253
222.527,0.1609139578326385,-0.1609139578326385
222.528,0.18765672228210029,-0.18765672228210029
222.529,0.18013920992220767,-0.18013920992220767
222.53,0.14138477838607721,-0.14138477838607721
222.531,0.08213848527285983,-0.08213848527285983
222.532,0.017602957793136476,-0.017602957793136476
222.533,0.036814922690505236,0.036814922690505236
222.534,0.06950674659817535,0.06950674659817535
222.535,0.07533241832242399,0.07533241832242399
222.536,0.056332450357658326,0.056332450357658326
222.537,0.020458988863715444,0.020458988863715444
222.538,0.021141072535255212,-0.021141072535255212
222.539,0.05740266589175946,-0.05740266589175946
222.54,0.08022220426294446,-0.08022220426294446
222.541,0.08619368469691924,-0.08619368469691924
222.542,0.07685405062243278,-0.07685405062243278
222.543,0.05754494033726143,-0.05754494033726143
222.544,0.03537170849716953,-0.03537170849716953
222.545,0.016937379929305885,-0.016937379929305885
222.546,0.0065146591575433455,-0.0065146591575433455
222.547,0.005122710856305002,-0.005122710856305002
222.548,0.010673135249836152,-0.010673135249836152
222.549,0.01903599437161918,-0.01903599437161918
222.55,0.025636544318571985,-0.025636544318571985
222.551,0.027080389468144506,-0.027080389468144506
222.552,0.022333579939150194,-0.022333579939150194
222.553,0.013132939408572297,-0.013132939408572297
222.554,0.0035237678966242303,-0.0035237678966242303
222.555,0.0013407468185373528,0.0013407468185373528
222.556,0.003192835397097471,-0.003192835397097471
222.557,0.01970771533010085,-0.01970771533010085
222.558,0.04763127133910938,-0.04763127133910938
222.559,0.08297295500918356,-0.08297295500918356
222.56,0.11902242762554116,-0.11902242762554116
222.561,0.14789271574404994,-0.14789271574404994
222.562,0.16255017905975222,-0.16255017905975222
222.563,0.15880405696608368,-0.15880405696608368
222.564,0.1366882771231711,-0.1366882771231711
222.565,0.10078470783640858,-0.10078470783640858
222.566,0.059296845278946075,-0.059296845278946075
222.567,0.022028087022984755,-0.022028087022984755
222.568,0.002243381237283071,0.002243381237283071
222.569,0.008274209029762947,0.008274209029762947
222.57,0.004001520618023169,-0.004001520618023169
222.571,0.029254259567033314,-0.029254259567033314
222.572,0.05813834408691887,-0.05813834408691887
222.573,0.0799673987014361,-0.0799673987014361
222.574,0.08596206487593716,-0.08596206487593716
222.575,0.0721144407192863,-0.0721144407192863
222.576,0.04076250179935681,-0.04076250179935681
222.577,0.00030462643784201493,-0.00030462643784201493
222.578,0.0369764202506202,0.0369764202506202
222.579,0.05842674768772427,0.05842674768772427
222.58,0.054872970092777695,0.054872970092777695
222.581,0.02365593573873892,0.02365593573873892
222.582,0.03011375736528088,-0.03011375736528088
222.583,0.09453511411777904,-0.09453511411777904
222.584,0.15392321087459993,-0.15392321087459993
222.585,0.19301429222797883,-0.19301429222797883
222.586,0.20116095990121863,-0.20116095990121863
222.587,0.1752943793256464,-0.1752943793256464
222.588,0.12079130542884242,-0.12079130542884242
222.589,0.05000949550983225,-0.05000949550983225
222.59,0.021050679662671046,0.021050679662671046
222.591,0.07695648231194974,0.07695648231194974
222.592,0.10669795893110612,0.10669795893110612
222.593,0.1061191117403073,0.1061191117403073
222.594,0.07833602240962523,0.07833602240962523
222.595,0.032189890936311416,0.032189890936311416
222.596,0.020633758706443017,-0.020633758706443017
222.597,0.06884445011791007,-0.06884445011791007
222.598,0.10416288420673525,-0.10416288420673525
222.599,0.12264296517057638,-0.12264296517057638
222.6,0.12453025741607393,-0.12453025741607393
222.601,0.11299312203283574,-0.11299312203283574
222.602,0.09239538300682493,-0.09239538300682493
222.603,0.06683304166756188,-0.06683304166756188
222.604,0.039433676801748696,-0.039433676801748696
222.605,0.012520142757717623,-0.012520142757717623
222.606,0.011664460745575589,0.011664460745575589
222.607,0.030222969497573082,0.030222969497573082
222.608,0.0394098229684956,0.0394098229684956
222.609,0.035270446214488604,0.035270446214488604
222.61,0.015008021653807546,0.015008021653807546
222.611,0.02141163795078016,-0.02141163795078016
222.612,0.0701103930771464,-0.0701103930771464
222.613,0.12322571506310442,-0.12322571506310442
222.614,0.17020186215591215,-0.17020186215591215
222.615,0.20024050458190712,-0.20024050458190712
222.616,0.20524367669455157,-0.20524367669455157
222.617,0.18232308017448096,-0.18232308017448096
222.618,0.13500644854521793,-0.13500644854521793
222.619,0.0726435145492551,-0.0726435145492551
222.62,0.008085095845967838,-0.008085095845967838
222.621,0.04571439672420641,0.04571439672420641
222.622,0.07914112559483466,0.07914112559483466
222.623,0.08834008690239381,0.08834008690239381
222.624,0.0758537527276566,0.0758537527276566
222.625,0.04930580375702176,0.04930580375702176
222.626,0.018597681187803472,0.018597681187803472
222.627,0.007427169867128547,-0.007427169867128547
222.628,0.023733757979471193,-0.023733757979471193
222.629,0.030361472833746794,-0.030361472833746794
222.63,0.03182988173372092,-0.03182988173372092
222.631,0.0349553691712815,-0.0349553691712815
222.632,0.045894254971761916,-0.045894254971761916
222.633,0.06748245192929081,-0.06748245192929081
222.634,0.09782026461598892,-0.09782026461598892
222.635,0.13060027140922081,-0.13060027140922081
222.636,0.15705806443683845,-0.15705806443683845
222.637,0.16885865249637877,-0.16885865249637877
222.638,0.1609134556461297,-0.1609134556461297
222.639,0.1331613415495957,-0.1331613415495957
222.64,0.09072190647483946,-0.09072190647483946
222.641,0.042401499819318844,-0.042401499819318844
222.642,0.0019037095520264558,0.0019037095520264558
222.643,0.034006782762517895,0.034006782762517895
222.644,0.04950149644670976,0.04950149644670976
222.645,0.048475734096975476,0.048475734096975476
222.646,0.034745610981814945,0.034745610981814945
222.647,0.014017754530339266,0.014017754530339266
222.648,0.008258287339011572,-0.008258287339011572
222.649,0.02852977981906646,-0.02852977981906646
222.65,0.04570929703466309,-0.04570929703466309
222.651,0.060568241071305096,-0.060568241071305096
222.652,0.07433589003980956,-0.07433589003980956
222.653,0.08720501150706073,-0.08720501150706073
222.654,0.09747691159403449,-0.09747691159403449
222.655,0.10180773071311078,-0.10180773071311078
222.656,0.09654670138928112,-0.09654670138928112
222.657,0.07966836358387264,-0.07966836358387264
222.658,0.05248857923712846,-0.05248857923712846
222.659,0.020351242768690492,-0.020351242768690492
222.66,0.00820193037084449,0.00820193037084449
222.661,0.02371738659154321,0.02371738659154321
222.662,0.018933039205253577,0.018933039205253577
222.663,0.008329726144040595,-0.008329726144040595
222.664,0.05355883861270083,-0.05355883861270083
222.665,0.1059614246859939,-0.1059614246859939
222.666,0.15099200122559853,-0.15099200122559853
222.667,0.1743834902559307,-0.1743834902559307
222.668,0.1665076732551376,-0.1665076732551376
222.669,0.12569317774353372,-0.12569317774353372
222.67,0.05937565622773089,-0.05937565622773089
222.671,0.017415639570380614,0.017415639570380614
222.672,0.08591115188465226,0.08591115188465226
222.673,0.12872292534237895,0.12872292534237895
222.674,0.13473325581496343,0.13473325581496343
222.675,0.10228066608778685,0.10228066608778685
222.676,0.039667396255988585,0.039667396255988585
222.677,0.037183460645661914,-0.037183460645661914
222.678,0.10923014732231529,-0.10923014732231529
222.679,0.15963167508194953,-0.15963167508194953
222.68,0.17830629903006046,-0.17830629903006046
222.681,0.16440042501224128,-0.16440042501224128
222.682,0.12599191741206006,-0.12599191741206006
222.683,0.07719944738725193,-0.07719944738725193
222.684,0.033647029663882444,-0.033647029663882444
222.685,0.00770227794486289,-0.00770227794486289
222.686,0.004931452418317828,-0.004931452418317828
222.687,0.02279863870805987,-0.02279863870805987
222.688,0.051920654159802404,-0.051920654159802404
222.689,0.0794016604110751,-0.0794016604110751
222.69,0.09315446943813266,-0.09315446943813266
222.691,0.08585088992986689,-0.08585088992986689
222.692,0.0572988370114792,-0.0572988370114792
222.693,0.014557004186624312,-0.014557004186624312
222.694,0.030199081544517226,0.030199081544517226
222.695,0.06337060939519379,0.06337060939519379
222.696,0.07405234242724945,0.07405234242724945
222.697,0.05734064741511813,0.05734064741511813
222.698,0.0158704002838852,0.0158704002838852
222.699,0.04083962969939514,-0.04083962969939514
222.7,0.09900775775589798,-0.09900775775589798
222.701,0.1443926893696459,-0.1443926893696459
222.702,0.166179278844377,-0.166179278844377
222.703,0.15985375917297884,-0.15985375917297884
222.704,0.1282899151351784,-0.1282899151351784
222.705,0.08078917991246193,-0.08078917991246193
222.706,0.03039295730705527,-0.03039295730705527
222.707,0.009746402411149546,0.009746402411149546
222.708,0.02991314325516714,0.02991314325516714
222.709,0.02632293521397644,0.02632293521397644
222.71,0.0019096131751232814,0.0019096131751232814
222.711,0.0347654197110977,-0.0347654197110977
222.712,0.07213036923218508,-0.07213036923218508
222.713,0.09898371020127172,-0.09898371020127172
222.714,0.10767981053069986,-0.10767981053069986
222.715,0.09623163203204721,-0.09623163203204721
222.716,0.0687564857424443,-0.0687564857424443
222.717,0.03416001631640886,-0.03416001631640886
222.718,0.0034487818715501772,-0.0034487818715501772
222.719,0.013553324510829245,0.013553324510829245
222.72,0.011141690354116829,0.011141690354116829
222.721,0.010525531773338481,-0.010525531773338481
222.722,0.04538650817341727,-0.04538650817341727
222.723,0.08316270129992998,-0.08316270129992998
222.724,0.11230299696136015,-0.11230299696136015
222.725,0.12334750468992917,-0.12334750468992917
222.726,0.11174321538654808,-0.11174321538654808
222.727,0.07929089786719146,-0.07929089786719146
222.728,0.03378889841059152,-0.03378889841059152
222.729,0.013044000045269621,0.013044000045269621
222.73,0.048786799373915724,0.048786799373915724
222.731,0.06376272622967849,0.06376272622967849
222.732,0.05373200246599419,0.05373200246599419
222.733,0.021066047746995054,0.021066047746995054
222.734,0.02592180906043917,-0.02592180906043917
222.735,0.07528115847936456,-0.07528115847936456
222.736,0.11468938592796984,-0.11468938592796984
222.737,0.1347371917941863,-0.1347371917941863
222.738,0.13131112725372507,-0.13131112725372507
222.739,0.10643562920325955,-0.10643562920325955
222.74,0.0674022551510175,-0.0674022551510175
222.741,0.024514158375911976,-0.024514158375911976
222.742,0.011841961984683458,0.011841961984683458
222.743,0.03392753930603254,0.03392753930603254
222.744,0.038427222061962585,0.038427222061962585
222.745,0.02683577774315493,0.02683577774315493
222.746,0.004462498087442812,0.004462498087442812
222.747,0.021534911693083192,-0.021534911693083192
222.748,0.04442201532919743,-0.04442201532919743
222.749,0.059767512021634106,-0.059767512021634106
222.75,0.06641559666813734,-0.06641559666813734
222.751,0.06635756914614577,-0.06635756914614577
222.752,0.06366034856025748,-0.06366034856025748
222.753,0.06287689738842994,-0.06287689738842994
222.754,0.06747211205967074,-0.06747211205967074
222.755,0.07873056753417396,-0.07873056753417396
222.756,0.09541126252793175,-0.09541126252793175
222.757,0.11415973892305542,-0.11415973892305542
222.758,0.13046778019387228,-0.13046778019387228
222.759,0.13985008553476053,-0.13985008553476053
222.76,0.1389076340291422,-0.1389076340291422
222.761,0.12604560046355018,-0.12604560046355018
222.762,0.10175604153108841,-0.10175604153108841
222.763,0.0685027356951704,-0.0685027356951704
222.764,0.03031638782982482,-0.03031638782982482
222.765,0.007785916249884117,0.007785916249884117
222.766,0.04047997058976183,0.04047997058976183
222.767,0.06287519359541571,0.06287519359541571
222.768,0.07128709915937348,0.07128709915937348
222.769,0.06397431697196332,0.06397431697196332
222.77,0.04170822323072665,0.04170822323072665
222.771,0.007991717541269594,0.007991717541269594
222.772,0.031249870645212896,-0.031249870645212896
222.773,0.06859214828026294,-0.06859214828026294
222.774,0.09656987377343829,-0.09656987377343829
222.775,0.10939629755797275,-0.10939629755797275
222.776,0.10451786726700374,-0.10451786726700374
222.777,0.08353754649579948,-0.08353754649579948
222.778,0.05214838036137981,-0.05214838036137981
222.779,0.01896485707755935,-0.01896485707755935
222.78,0.006541171463276596,0.006541171463276596
222.781,0.016499665186254342,0.016499665186254342
222.782,0.0068295244718834525,0.0068295244718834525
222.783,0.021486218716277095,-0.021486218716277095
222.784,0.06244889840704726,-0.06244889840704726
222.785,0.10645933915658712,-0.10645933915658712
222.786,0.14274351972005928,-0.14274351972005928
222.787,0.1621288659823784,-0.1621288659823784
222.788,0.1594011063357017,-0.1594011063357017
222.789,0.13459274941140265,-0.13459274941140265
222.79,0.09286972930475712,-0.09286972930475712
222.791,0.043092811283144905,-0.043092811283144905
222.792,0.004494445160754257,0.004494445160754257
222.793,0.04077469073505169,0.04077469073505169
222.794,0.05977582173131224,0.05977582173131224
222.795,0.05970870406981543,0.05970870406981543
222.796,0.042859124988475106,0.042859124988475106
222.797,0.01451434006190766,0.01451434006190766
222.798,0.01864416031735383,-0.01864416031735383
222.799,0.050163987584368464,-0.050163987584368464
222.8,0.07503227523005762,-0.07503227523005762
222.801,0.0902559386830627,-0.0902559386830627
222.802,0.0948397169196894,-0.0948397169196894
222.803,0.08937631556147285,-0.08937631556147285
222.804,0.07553026808360541,-0.07553026808360541
222.805,0.055637420636123314,-0.055637420636123314
222.806,0.032498784121887,-0.032498784121887
222.807,0.009294947232875939,-0.009294947232875939
222.808,0.01054232480953532,0.01054232480953532
222.809,0.02365092089073606,0.02365092089073606
222.81,0.02729216786699795,0.02729216786699795
222.811,0.02002591966848355,0.02002591966848355
222.812,0.0022738447301371423,0.0022738447301371423
222.813,0.023489621979508324,-0.023489621979508324
222.814,0.05308793702502412,-0.05308793702502412
222.815,0.0815206787101539,-0.0815206787101539
222.816,0.10414928642944077,-0.10414928642944077
222.817,0.11782664583551827,-0.11782664583551827
222.818,0.12159175958868373,-0.12159175958868373
222.819,0.1166823356518435,-0.1166823356518435
222.82,0.10585592694879842,-0.10585592694879842
222.821,0.09226766274965481,-0.09226766274965481
222.822,0.07832886193473909,-0.07832886193473909
222.823,0.06499057104119754,-0.06499057104119754
222.824,0.05174119468922289,-0.05174119468922289
222.825,0.03732790963565824,-0.03732790963565824
222.826,0.02091030017942952,-0.02091030017942952
222.827,0.003150155922765352,-0.003150155922765352
222.828,0.01327763231946455,0.01327763231946455
222.829,0.02407940199193148,0.02407940199193148
222.83,0.024629481067699244,0.024629481067699244
222.831,0.011767316916239112,0.011767316916239112
222.832,0.014535392990897567,-0.014535392990897567
222.833,0.05031569279933312,-0.05031569279933312
222.834,0.08802952916546081,-0.08802952916546081
222.835,0.11827913376255705,-0.11827913376255705
222.836,0.13243302237124444,-0.13243302237124444
222.837,0.12534973906970104,-0.12534973906970104
222.838,0.09730068461616892,-0.09730068461616892
222.839,0.05437952447151495,-0.05437952447151495
222.84,0.007138718003165456,-0.007138718003165456
222.841,0.03223450736887967,0.03223450736887967
222.842,0.053391023063934284,0.053391023063934284
222.843,0.050877418513359585,0.050877418513359585
222.844,0.025805051326803552,0.025805051326803552
222.845,0.014427492918220652,-0.014427492918220652
222.846,0.05830693514586904,-0.05830693514586904
222.847,0.09361676515577488,-0.09361676515577488
222.848,0.11103352845524284,-0.11103352845524284
222.849,0.10679616912807643,-0.10679616912807643
222.85,0.08363935993476335,-0.08363935993476335
222.851,0.04974343108106072,-0.04974343108106072
222.852,0.01608603110798512,-0.01608603110798512
222.853,0.006926184330918961,0.006926184330918961
222.854,0.012473898140324069,0.012473898140324069
222.855,0.0009206439674662725,-0.0009206439674662725
222.856,0.029360246237886356,-0.029360246237886356
222.857,0.06514007257552168,-0.06514007257552168
222.858,0.09928952814261283,-0.09928952814261283
222.859,0.12419721492158076,-0.12419721492158076
222.86,0.13548035219038568,-0.13548035219038568
222.861,0.13259447748538633,-0.13259447748538633
222.862,0.11816110427382387,-0.11816110427382387
222.863,0.09644018372262753,-0.09644018372262753
222.864,0.07163101740645716,-0.07163101740645716
222.865,0.046667656243442046,-0.046667656243442046
222.866,0.022905711718954724,-0.022905711718954724
222.867,0.0006928119280456002,-0.0006928119280456002
222.868,0.019562475014533787,0.019562475014533787
222.869,0.03641122897421045,0.03641122897421045
222.87,0.04701413874299498,0.04701413874299498
222.871,0.047684234249316226,0.047684234249316226
222.872,0.035192605349978257,0.035192605349978257
222.873,0.008354630407174213,0.008354630407174213
222.874,0.0307556847181234,-0.0307556847181234
222.875,0.0765301526276565,-0.0765301526276565
222.876,0.12074083423371329,-0.12074083423371329
222.877,0.1544641055608803,-0.1544641055608803
222.878,0.17044751484349052,-0.17044751484349052
222.879,0.1651581892021854,-0.1651581892021854
222.88,0.13982690447136403,-0.13982690447136403
222.881,0.10012536447105491,-0.10012536447105491
222.882,0.05457186519869617,-0.05457186519869617
222.883,0.012187853244049585,-0.012187853244049585
222.884,0.019829466954838004,0.019829466954838004
222.885,0.03768242457432147,0.03768242457432147
222.886,0.041348189397066415,0.041348189397066415
222.887,0.03374561955641786,0.03374561955641786
222.888,0.019112849016154287,0.019112849016154287
222.889,0.0012732500277117254,0.0012732500277117254
222.89,0.017536729318076816,-0.017536729318076816
222.891,0.03686535207722086,-0.03686535207722086
222.892,0.057271693140683366,-0.057271693140683366
222.893,0.07899090041729906,-0.07899090041729906
222.894,0.10069143699998118,-0.10069143699998118
222.895,0.11895612844601844,-0.11895612844601844
222.896,0.12883787792574053,-0.12883787792574053
222.897,0.12540313176307272,-0.12540313176307272
222.898,0.105747613770527,-0.105747613770527
222.899,0.07071701091245242,-0.07071701091245242
222.9,0.02559614170869773,-0.02559614170869773
222.901,0.02065321142209231,0.02065321142209231
222.902,0.057526851820048464,0.057526851820048464
222.903,0.07590034620248831,0.07590034620248831
222.904,0.07082547848696241,0.07082547848696241
222.905,0.04326279123326282,0.04326279123326282
222.906,0.0001127537836782544,0.0001127537836782544
222.907,0.04755865953766292,-0.04755865953766292
222.908,0.08761545126428816,-0.08761545126428816
222.909,0.11033924269839068,-0.11033924269839068
222.91,0.11123325797708594,-0.11123325797708594
222.911,0.09227013833562214,-0.09227013833562214
222.912,0.061198655019008896,-0.061198655019008896
222.913,0.0291345859336255,-0.0291345859336255
222.914,0.007192504080073547,-0.007192504080073547
222.915,0.003196041638839908,-0.003196041638839908
222.916,0.019449483873484996,-0.019449483873484996
222.917,0.052192009257719385,-0.052192009257719385
222.918,0.09281649103988276,-0.09281649103988276
222.919,0.13039944252161806,-0.13039944252161806
222.92,0.15472860661895904,-0.15472860661895904
222.921,0.1589330285838445,-0.1589330285838445
222.922,0.1410213562318704,-0.1410213562318704
222.923,0.10402769934790657,-0.10402769934790657
222.924,0.05490421419474989,-0.05490421419474989
222.925,0.002637635990233811,-0.002637635990233811
222.926,0.043794569046995635,0.043794569046995635
222.927,0.07709149172544505,0.07709149172544505
222.928,0.09261713698401164,0.09261713698401164
222.929,0.08868799665889981,0.08868799665889981
222.93,0.06635228080249944,0.06635228080249944
222.931,0.028930536320328937,0.028930536320328937
222.932,0.01847739963344608,-0.01847739963344608
222.933,0.06946386325878262,-0.06946386325878262
222.934,0.11685204663846205,-0.11685204663846205
222.935,0.1534466702193693,-0.1534466702193693
222.936,0.17307203331241716,-0.17307203331241716
222.937,0.17180327510803106,-0.17180327510803106
222.938,0.1491049890748758,-0.1491049890748758
222.939,0.1084756586783634,-0.1084756586783634
222.94,0.0572322109023129,-0.0572322109023129
222.941,0.005273762647565516,-0.005273762647565516
222.942,0.037016387728248556,0.037016387728248556
222.943,0.0612458157628919,0.0612458157628919
222.944,0.06317511142743215,0.06317511142743215
222.945,0.04388631108164276,0.04388631108164276
222.946,0.009522937452193903,0.009522937452193903
222.947,0.030413453923991418,-0.030413453923991418
222.948,0.0657644778454115,-0.0657644778454115
222.949,0.08862296706413086,-0.08862296706413086
222.95,0.095553687234737,-0.095553687234737
222.951,0.088419707545215,-0.088419707545215
222.952,0.07353507558201022,-0.07353507558201022
222.953,0.05939783251927788,-0.05939783251927788
222.954,0.05372114909949022,-0.05372114909949022
222.955,0.06071817257817502,-0.06071817257817502
222.956,0.07952505962535594,-0.07952505962535594
222.957,0.10428645637608114,-0.10428645637608114
222.958,0.1258951974790472,-0.1258951974790472
222.959,0.13484774600403193,-0.13484774600403193
222.96,0.12432198990784038,-0.12432198990784038
222.961,0.09251787048803195,-0.09251787048803195
222.962,0.04354043775254923,-0.04354043775254923
222.963,0.013434746506391315,0.013434746506391315
222.964,0.06644636515517743,0.06644636515517743
222.965,0.10379028621440956,0.10379028621440956
222.966,0.11693671771000669,0.11693671771000669
222.967,0.10252538047931692,0.10252538047931692
222.968,0.06296377119471752,0.06296377119471752
222.969,0.005589540077349575,0.005589540077349575
222.97,0.0592380960122445,-0.0592380960122445
222.971,0.12050440232961201,-0.12050440232961201
222.972,0.16871586844969,-0.16871586844969
222.973,0.19740488856788785,-0.19740488856788785
222.974,0.20375870648501226,-0.20375870648501226
222.975,0.1884523146208461,-0.1884523146208461
222.976,0.15495611022957867,-0.15495611022957867
222.977,0.1086394589697488,-0.1086394589697488
222.978,0.0559130668906177,-0.0559130668906177
222.979,0.0035073268286659465,-0.0035073268286659465
222.98,0.04214936439536188,0.04214936439536188
222.981,0.07554524899119452,0.07554524899119452
222.982,0.09274534542957547,0.09274534542957547
222.983,0.0920403082537522,0.0920403082537522
222.984,0.07441239055386162,0.07441239055386162
222.985,0.04359540377820048,0.04359540377820048
222.986,0.00556012922339999,0.00556012922339999
222.987,0.03258707568673891,-0.03258707568673891
222.988,0.06409901018909914,-0.06409901018909914
222.989,0.08410779444725691,-0.08410779444725691
222.99,0.09073607295592201,-0.09073607295592201
222.991,0.0854466089429563,-0.0854466089429563
222.992,0.07249242110642218,-0.07249242110642218
222.993,0.05760928335516291,-0.05760928335516291
222.994,0.04633943154281661,-0.04633943154281661
222.995,0.042499104446508174,-0.042499104446508174
222.996,0.047254382271539996,-0.047254382271539996
222.997,0.0590628369668138,-0.0590628369668138
222.998,0.07444463644608579,-0.07444463644608579
222.999,0.08927083726169249,-0.08927083726169249
223.0,0.10009777412319365,-0.10009777412319365
223.001,0.10509077032927772,-0.10509077032927772
223.002,0.10425940263482669,-0.10425940263482669
223.003,0.0990001525400277,-0.0990001525400277
223.004,0.09120511396468878,-0.09120511396468878
223.005,0.08234706223643573,-0.08234706223643573
223.006,0.0729347190891656,-0.0729347190891656
223.007,0.06255632202423778,-0.06255632202423778
223.008,0.050466210887570195,-0.050466210887570195
223.009,0.036424959924830524,-0.036424959924830524
223.01,0.021379153039087107,-0.021379153039087107
223.011,0.007616531446562491,-0.007616531446562491
223.012,0.0017586016020627593,0.0017586016020627593
223.013,0.0038956740859590333,0.0038956740859590333
223.014,0.0025743581488850698,-0.0025743581488850698
223.015,0.01665484793538241,-0.01665484793538241
223.016,0.03486076199057153,-0.03486076199057153
223.017,0.05201575119381252,-0.05201575119381252
223.018,0.06278212090586444,-0.06278212090586444
223.019,0.06343529664968983,-0.06343529664968983
223.02,0.05325615243104875,-0.05325615243104875
223.021,0.0350033063431453,-0.0350033063431453
223.022,0.014223843211558562,-0.014223843211558562
223.023,0.0024339475207550976,0.0024339475207550976
223.024,0.009372947497575002,0.009372947497575002
223.025,0.003936521386497693,0.003936521386497693
223.026,0.012634881192976843,-0.012634881192976843
223.027,0.03554741895591529,-0.03554741895591529
223.028,0.05801979839070326,-0.05801979839070326
223.029,0.07356008913139334,-0.07356008913139334
223.03,0.0781774801813887,-0.0781774801813887
223.031,0.07175708958237237,-0.07175708958237237
223.032,0.058103980117425014,-0.058103980117425014
223.033,0.043621232657977016,-0.043621232657977016
223.034,0.035065959312839956,-0.035065959312839956
223.035,0.03715596479211514,-0.03715596479211514
223.036,0.05085918144961066,-0.05085918144961066
223.037,0.07296400786935664,-0.07296400786935664
223.038,0.09708236201077947,-0.09708236201077947
223.039,0.11573661182381689,-0.11573661182381689
223.04,0.12280500031094599,-0.12280500031094599
223.041,0.11548215628106961,-0.11548215628106961
223.042,0.09509321687323524,-0.09509321687323524
223.043,0.06651502630081985,-0.06651502630081985
223.044,0.03645452946699357,-0.03645452946699357
223.045,0.011232284773300627,-0.011232284773300627
223.046,0.005125795111260878,0.005125795111260878
223.047,0.01182691810798997,0.01182691810798997
223.048,0.01100121416319122,0.01100121416319122
223.049,0.0063427772024033935,0.0063427772024033935
223.05,0.0012961056064995091,0.0012961056064995091
223.051,0.002457300135519591,-0.002457300135519591
223.052,0.005591802071995722,-0.005591802071995722
223.053,0.01056858370813707,-0.01056858370813707
223.054,0.020142576262362044,-0.020142576262362044
223.055,0.03557743144685532,-0.03557743144685532
223.056,0.055353172255198646,-0.055353172255198646
223.057,0.07499420580423277,-0.07499420580423277
223.058,0.08822796052696513,-0.08822796052696513
223.059,0.08915728342963203,-0.08915728342963203
223.06,0.07469168356981681,-0.07469168356981681
223.061,0.04630703306203843,-0.04630703306203843
223.062,0.01037251229528735,-0.01037251229528735
223.063,0.02324619421017915,0.02324619421017915
223.064,0.04398526953533133,0.04398526953533133
223.065,0.043923100981984264,0.043923100981984264
223.066,0.02054263175211668,0.02054263175211668
223.067,0.022077905560307642,-0.022077905560307642
223.068,0.07415212731776488,-0.07415212731776488
223.069,0.1229650102225841,-0.1229650102225841
223.07,0.15669938561016827,-0.15669938561016827
223.071,0.168070029416435,-0.168070029416435
223.072,0.1565462696664215,-0.1565462696664215
223.073,0.12838612991776632,-0.12838612991776632
223.074,0.09442866353835166,-0.09442866353835166
223.075,0.06635359441160171,-0.06635359441160171
223.076,0.05265592848367151,-0.05265592848367151
223.077,0.05570639264672317,-0.05570639264672317
223.078,0.07092446880056269,-0.07092446880056269
223.079,0.08838783337627987,-0.08838783337627987
223.08,0.09637429844091061,-0.09637429844091061
223.081,0.08566089173383629,-0.08566089173383629
223.082,0.053121308206844464,-0.053121308206844464
223.083,0.003369938848467924,-0.003369938848467924
223.084,0.052165588781709626,0.052165588781709626
223.085,0.09851025727811091,0.09851025727811091
223.086,0.12172887039555302,0.12172887039555302
223.087,0.11336455295991743,0.11336455295991743
223.088,0.0732893736303557,0.0732893736303557
223.089,0.010033488861633577,0.010033488861633577
223.09,0.0615288520611903,-0.0615288520611903
223.091,0.1244096705435479,-0.1244096705435479
223.092,0.16432235631967218,-0.16432235631967218
223.093,0.17358466083803403,-0.17358466083803403
223.094,0.15293457193667004,-0.15293457193667004
223.095,0.11077783261043317,-0.11077783261043317
223.096,0.06021539346902216,-0.06021539346902216
223.097,0.014888506213190711,-0.014888506213190711
223.098,0.014993754249180924,0.014993754249180924
223.099,0.02521041158927595,0.02521041158927595
223.1,0.01796214775154925,0.01796214775154925
223.101,0.00021174506448096153,0.00021174506448096153
223.102,0.019351079633481705,-0.019351079633481705
223.103,0.03358998378410505,-0.03358998378410505
223.104,0.03930635489623013,-0.03930635489623013
223.105,0.03796415620063898,-0.03796415620063898
223.106,0.03461178478169924,-0.03461178478169924
223.107,0.035497269803803855,-0.035497269803803855
223.108,0.04531160505817866,-0.04531160505817866
223.109,0.06508858318962685,-0.06508858318962685
223.11,0.09151878406414582,-0.09151878406414582
223.111,0.11790755101106254,-0.11790755101106254
223.112,0.1364143812895463,-0.1364143812895463
223.113,0.1407626947970636,-0.1407626947970636
223.114,0.12845639660163188,-0.12845639660163188
223.115,0.10172770415406196,-0.10172770415406196
223.116,0.06689472640515803,-0.06689472640515803
223.117,0.03236279903688255,-0.03236279903688255
223.118,0.005965868572776589,-0.005965868572776589
223.119,0.00744365134149283,0.00744365134149283
223.12,0.007352434799857255,0.007352434799857255
223.121,0.002536482385539607,-0.002536482385539607
223.122,0.01582207596237928,-0.01582207596237928
223.123,0.025765017408230895,-0.025765017408230895
223.124,0.027665700290848028,-0.027665700290848028
223.125,0.02045510338044776,-0.02045510338044776
223.126,0.006981750641030238,-0.006981750641030238
223.127,0.007067967956944088,0.007067967956944088
223.128,0.015217722469085482,0.015217722469085482
223.129,0.012505607267635499,0.012505607267635499
223.13,0.0027329975790399974,-0.0027329975790399974
223.131,0.028187738802172624,-0.028187738802172624
223.132,0.05820387995328857,-0.05820387995328857
223.133,0.08549023673585532,-0.08549023673585532
223.134,0.10333077934021573,-0.10333077934021573
223.135,0.10758297024479158,-0.10758297024479158
223.136,0.09783991284266935,-0.09783991284266935
223.137,0.07742320821044046,-0.07742320821044046
223.138,0.05225621688808191,-0.05225621688808191
223.139,0.029015907504746585,-0.029015907504746585
223.14,0.013166577627089726,-0.013166577627089726
223.141,0.007483633216533114,-0.007483633216533114
223.142,0.01149055483116379,-0.01149055483116379
223.143,0.021926640897064975,-0.021926640897064975
223.144,0.03403960090770486,-0.03403960090770486
223.145,0.043256420749908875,-0.043256420749908875
223.146,0.046696038222692304,-0.046696038222692304
223.147,0.04406495940151789,-0.04406495940151789
223.148,0.03768687480281663,-0.03768687480281663
223.149,0.031687953338897956,-0.031687953338897956
223.15,0.030607506378066085,-0.030607506378066085
223.151,0.03785978886731889,-0.03785978886731889
223.152,0.05449994944872194,-0.05449994944872194
223.153,0.07864787643029947,-0.07864787643029947
223.154,0.10573417850541222,-0.10573417850541222
223.155,0.12950911411115573,-0.12950911411115573
223.156,0.14355719435457137,-0.14355719435457137
223.157,0.14293452376188154,-0.14293452376188154
223.158,0.125518143606281,-0.125518143606281
223.159,0.09272768253933639,-0.09272768253933639
223.16,0.0494289334792809,-0.0494289334792809
223.161,0.00302095506312694,-0.00302095506312694
223.162,0.03809976120136649,0.03809976120136649
223.163,0.06635444628338649,0.06635444628338649
223.164,0.07665839381615736,0.07665839381615736
223.165,0.0675605669705801,0.0675605669705801
223.166,0.04156349308144791,0.04156349308144791
223.167,0.004528787341532947,0.004528787341532947
223.168,0.03570530237958258,-0.03570530237958258
223.169,0.07116703765219712,-0.07116703765219712
223.17,0.09560025893361623,-0.09560025893361623
223.171,0.1058498959986609,-0.1058498959986609
223.172,0.10242476273230428,-0.10242476273230428
223.173,0.08909204874230103,-0.08909204874230103
223.174,0.07162105457485657,-0.07162105457485657
223.175,0.05603350848992672,-0.05603350848992672
223.176,0.04686251647755646,-0.04686251647755646
223.177,0.04592373720534537,-0.04592373720534537
223.178,0.05195350770931384,-0.05195350770931384
223.179,0.06120857679027336,-0.06120857679027336
223.18,0.0688272806825786,-0.0688272806825786
223.181,0.07051387639723472,-0.07051387639723472
223.182,0.06400392295346091,-0.06400392295346091
223.183,0.04983657466506719,-0.04983657466506719
223.184,0.031182391929102993,-0.031182391929102993
223.185,0.012784234962074703,-0.012784234962074703
223.186,0.0006355569681462114,0.0006355569681462114
223.187,0.0059647214083047295,0.0059647214083047295
223.188,0.0027428776359712526,0.0027428776359712526
223.189,0.006712826364076774,-0.006712826364076774
223.19,0.018161241337179446,-0.018161241337179446
223.191,0.02699781947102642,-0.02699781947102642
223.192,0.029997983668426875,-0.029997983668426875
223.193,0.026637557914469534,-0.026637557914469534
223.194,0.01950663567796873,-0.01950663567796873
223.195,0.013623652151487309,-0.013623652151487309
223.196,0.01482223470556887,-0.01482223470556887
223.197,0.02770399736810436,-0.02770399736810436
223.198,0.05381746375429253,-0.05381746375429253
223.199,0.09067733781073628,-0.09067733781073628
223.2,0.13198969293687401,-0.13198969293687401
223.201,0.16907490943133185,-0.16907490943133185
223.202,0.19310118061652026,-0.19310118061652026
223.203,0.19747975676822593,-0.19747975676822593
223.204,0.1797136781551456,-0.1797136781551456
223.205,0.1421536773600277,-0.1421536773600277
223.206,0.09144552429545227,-0.09144552429545227
223.207,0.03684575170667681,-0.03684575170667681
223.208,0.012087457733603424,0.012087457733603424
223.209,0.04775643294570875,0.04775643294570875
223.21,0.066113568279341,0.066113568279341
223.211,0.06718689343398743,0.06718689343398743
223.212,0.054490196583994566,0.054490196583994566
223.213,0.03359903074461279,0.03359903074461279
223.214,0.010394938124741904,0.010394938124741904
223.215,0.010473017270625329,-0.010473017270625329
223.216,0.026489573868950345,-0.026489573868950345
223.217,0.03736676926926186,-0.03736676926926186
223.218,0.044436256770087224,-0.044436256770087224
223.219,0.04965850288087159,-0.04965850288087159
223.22,0.05464810443221446,-0.05464810443221446
223.221,0.06005085776390784,-0.06005085776390784
223.222,0.06543649855709699,-0.06543649855709699
223.223,0.06966248299119282,-0.06966248299119282
223.224,0.0714968407585792,-0.0714968407585792
223.225,0.07021833746617889,-0.07021833746617889
223.226,0.06595577184114754,-0.06595577184114754
223.227,0.059657714748926116,-0.059657714748926116
223.228,0.052741920201736625,-0.052741920201736625
223.229,0.0465963247874962,-0.0465963247874962
223.23,0.042145817381569306,-0.042145817381569306
223.231,0.03965043456444017,-0.03965043456444017
223.232,0.03878782239873246,-0.03878782239873246
223.233,0.03894666207271413,-0.03894666207271413
223.234,0.039572137947107344,-0.039572137947107344
223.235,0.040394185331186105,-0.040394185331186105
223.236,0.041436110159746575,-0.041436110159746575
223.237,0.04281412432738374,-0.04281412432738374
223.238,0.044446549517905276,-0.044446549517905276
223.239,0.04584566573371762,-0.04584566573371762
223.24,0.04613858743950994,-0.04613858743950994
223.241,0.04436361786170562,-0.04436361786170562
223.242,0.039955089518225906,-0.039955089518225906
223.243,0.033219611783786074,-0.033219611783786074
223.244,0.025570941721991147,-0.025570941721991147
223.245,0.019353052375746027,-0.019353052375746027
223.246,0.01722620885063708,-0.01722620885063708
223.247,0.021268377371482683,-0.021268377371482683
223.248,0.03208578123087258,-0.03208578123087258
223.249,0.048271573512457255,-0.048271573512457255
223.25,0.0664722229845427,-0.0664722229845427
223.251,0.08213439830451086,-0.08213439830451086
223.252,0.09076997106879015,-0.09076997106879015
223.253,0.08937502140768627,-0.08937502140768627
223.254,0.07754609844963034,-0.07754609844963034
223.255,0.057895006882173305,-0.057895006882173305
223.256,0.03556256051363371,-0.03556256051363371
223.257,0.016912326694362934,-0.016912326694362934
223.258,0.007756260078520483,-0.007756260078520483
223.259,0.011633474369718066,-0.011633474369718066
223.26,0.028670604122232102,-0.028670604122232102
223.261,0.055389627411411624,-0.055389627411411624
223.262,0.0855457984963921,-0.0855457984963921
223.263,0.11176459874986933,-0.11176459874986933
223.264,0.12750336205952095,-0.12750336205952095
223.265,0.12876838781079336,-0.12876838781079336
223.266,0.11510069748909191,-0.11510069748909191
223.267,0.08957362802295399,-0.08957362802295399
223.268,0.05784625355065931,-0.05784625355065931
223.269,0.026590591623157245,-0.026590591623157245
223.27,0.0017725964147220497,-0.0017725964147220497
223.271,0.012727571788962555,0.012727571788962555
223.272,0.01581266408593196,0.01581266408593196
223.273,0.009072613837817878,0.009072613837817878
223.274,0.003972670704198933,-0.003972670704198933
223.275,0.01898891889816079,-0.01898891889816079
223.276,0.03194426111932236,-0.03194426111932236
223.277,0.039935898152635985,-0.039935898152635985
223.278,0.041582193977200865,-0.041582193977200865
223.279,0.03699968759741179,-0.03699968759741179
223.28,0.027503793400855625,-0.027503793400855625
223.281,0.015209604707604352,-0.015209604707604352
223.282,0.002665531302739832,-0.002665531302739832
223.283,0.0074381745239171515,0.0074381745239171515
223.284,0.012530016986121995,0.012530016986121995
223.285,0.010466836975748572,0.010466836975748572
223.286,6.16328320857118e-05,-6.16328320857118e-05
223.287,0.019075346132181648,-0.019075346132181648
223.288,0.04493392503160554,-0.04493392503160554
223.289,0.07424855157781607,-0.07424855157781607
223.29,0.10224081231082305,-0.10224081231082305
223.291,0.12359414851107242,-0.12359414851107242
223.292,0.13366790936715411,-0.13366790936715411
223.293,0.12977569182183235,-0.12977569182183235
223.294,0.11213901063665,-0.11213901063665
223.295,0.08416344160972611,-0.08416344160972611
223.296,0.05185309275433858,-0.05185309275433858
223.297,0.022436448617964677,-0.022436448617964677
223.298,0.0025401505486701836,-0.0025401505486701836
223.299,0.0035756023926920566,0.0035756023926920566
223.3,0.004814554312890129,-0.004814554312890129
223.301,0.024708581977152533,-0.024708581977152533
223.302,0.0502501482512443,-0.0502501482512443
223.303,0.07442353784254963,-0.07442353784254963
223.304,0.09105976201887955,-0.09105976201887955
223.305,0.09653638118281149,-0.09653638118281149
223.306,0.09064772076729355,-0.09064772076729355
223.307,0.07639055051125487,-0.07639055051125487
223.308,0.05876525410246081,-0.05876525410246081
223.309,0.043014560418254244,-0.043014560418254244
223.31,0.032900828992101894,-0.032900828992101894
223.311,0.029596567755451608,-0.029596567755451608
223.312,0.03153994288451256,-0.03153994288451256
223.313,0.03526492155644634,-0.03526492155644634
223.314,0.03687414031881875,-0.03687414031881875
223.315,0.03360188400608444,-0.03360188400608444
223.316,0.024892794932706908,-0.024892794932706908
223.317,0.012606815990514608,-0.012606815990514608
223.318,0.0002862441024744644,-0.0002862441024744644
223.319,0.008230489633759053,0.008230489633759053
223.32,0.010318204348893412,0.010318204348893412
223.321,0.005615829609084688,0.005615829609084688
223.322,0.0037990748088997384,-0.0037990748088997384
223.323,0.014207037083092677,-0.014207037083092677
223.324,0.02174284355130629,-0.02174284355130629
223.325,0.02404252509564242,-0.02404252509564242
223.326,0.02140957305780633,-0.02140957305780633
223.327,0.01701616055571109,-0.01701616055571109
223.328,0.015986992249349852,-0.015986992249349852
223.329,0.023616208359068303,-0.023616208359068303
223.33,0.04329927869781203,-0.04329927869781203
223.331,0.07490103487290056,-0.07490103487290056
223.332,0.11417154121553574,-0.11417154121553574
223.333,0.15349305250564504,-0.15349305250564504
223.334,0.18380099705979902,-0.18380099705979902
223.335,0.19711854177495425,-0.19711854177495425
223.336,0.1889172828400042,-0.1889172828400042
223.337,0.15954759367213645,-0.15954759367213645
223.338,0.11426593348038816,-0.11426593348038816
223.339,0.06183156929785971,-0.06183156929785971
223.34,0.012104451979867092,-0.012104451979867092
223.341,0.026603909418055016,0.026603909418055016
223.342,0.04960112020582663,0.04960112020582663
223.343,0.05667829205543207,0.05667829205543207
223.344,0.05154288527884887,0.05154288527884887
223.345,0.04006731469712177,0.04006731469712177
223.346,0.027985365509015647,0.027985365509015647
223.347,0.01883770078073388,0.01883770078073388
223.348,0.012866717534121497,0.012866717534121497
223.349,0.007225648093388992,0.007225648093388992
223.35,0.0025890781437295507,-0.0025890781437295507
223.351,0.020596593312344424,-0.020596593312344424
223.352,0.048245810423574675,-0.048245810423574675
223.353,0.08314354456450146,-0.08314354456450146
223.354,0.11909565938996469,-0.11909565938996469
223.355,0.14753284667005118,-0.14753284667005118
223.356,0.15993582267185857,-0.15993582267185857
223.357,0.1505353065071684,-0.1505353065071684
223.358,0.11844755458095102,-0.11844755458095102
223.359,0.06855151188115516,-0.06855151188115516
223.36,0.010772527294136247,-0.010772527294136247
223.361,0.04210056808504414,0.04210056808504414
223.362,0.07751214577262244,0.07751214577262244
223.363,0.08633081813537036,0.08633081813537036
223.364,0.06528109720703568,0.06528109720703568
223.365,0.017962916856334,0.017962916856334
223.366,0.045820583773172774,-0.045820583773172774
223.367,0.11226824355753073,-0.11226824355753073
223.368,0.16677457285674546,-0.16677457285674546
223.369,0.19733066221384588,-0.19733066221384588
223.37,0.19731425496599375,-0.19731425496599375
223.371,0.16701213618648747,-0.16701213618648747
223.372,0.11352803757214747,-0.11352803757214747
223.373,0.04910899285858028,-0.04910899285858028
223.374,0.011715476990656004,0.011715476990656004
223.375,0.05552114090649085,0.05552114090649085
223.376,0.07312619162349643,0.07312619162349643
223.377,0.06175240246350544,0.06175240246350544
223.378,0.025695418484770416,0.025695418484770416
223.379,0.024683183296994593,-0.024683183296994593
223.38,0.07544923422780403,-0.07544923422780403
223.381,0.11252743919263342,-0.11252743919263342
223.382,0.1252747998369017,-0.1252747998369017
223.383,0.10932197642016084,-0.10932197642016084
223.384,0.0679361579610035,-0.0679361579610035
223.385,0.011481590669276454,-0.011481590669276454
223.386,0.04498936764323003,0.04498936764323003
223.387,0.08549504420957432,0.08549504420957432
223.388,0.09732271919521529,0.09732271919521529
223.389,0.07457697595649138,0.07457697595649138
223.39,0.02009181207415689,0.02009181207415689
223.391,0.054896910343536054,-0.054896910343536054
223.392,0.13334299802404448,-0.13334299802404448
223.393,0.19664408191136284,-0.19664408191136284
223.394,0.22946217066285146,-0.22946217066285146
223.395,0.22380405055026997,-0.22380405055026997
223.396,0.18120965318016236,-0.18120965318016236
223.397,0.11239224952792715,-0.11239224952792715
223.398,0.034382084698043935,-0.034382084698043935
223.399,0.034056530708633126,0.034056530708633126
223.4,0.07745097384808974,0.07745097384808974
223.401,0.08765885457232914,0.08765885457232914
223.402,0.06576624667144126,0.06576624667144126
223.403,0.021319514683257657,0.021319514683257657
223.404,0.030842803742404112,-0.030842803742404112
223.405,0.07517475251283068,-0.07517475251283068
223.406,0.10002281005134217,-0.10002281005134217
223.407,0.10085259986761896,-0.10085259986761896
223.408,0.08115734350215908,-0.08115734350215908
223.409,0.05083758541170891,-0.05083758541170891
223.41,0.022635470435187433,-0.022635470435187433
223.411,0.007807243861066793,-0.007807243861066793
223.412,0.012433911278721621,-0.012433911278721621
223.413,0.03553558892570863,-0.03553558892570863
223.414,0.06954983724109942,-0.06954983724109942
223.415,0.10295842314943282,-0.10295842314943282
223.416,0.12415510772065674,-0.12415510772065674
223.417,0.1252640046089939,-0.1252640046089939
223.418,0.10466453395429498,-0.10466453395429498
223.419,0.06743232786355069,-0.06743232786355069
223.42,0.023608383854722192,-0.023608383854722192
223.421,0.01507650301770136,0.01507650301770136
223.422,0.03890612920322267,0.03890612920322267
223.423,0.04309075911163207,0.04309075911163207
223.424,0.028968710134503528,0.028968710134503528
223.425,0.0031795360675839213,0.0031795360675839213
223.426,0.02482391688064156,-0.02482391688064156
223.427,0.046020438765084104,-0.046020438765084104
223.428,0.05470722537856698,-0.05470722537856698
223.429,0.050088947203705714,-0.050088947203705714
223.43,0.03611761522028556,-0.03611761522028556
223.431,0.019752122383229653,-0.019752122383229653
223.432,0.008338501931091202,-0.008338501931091202
223.433,0.007073288138779166,-0.007073288138779166
223.434,0.017421804686318043,-0.017421804686318043
223.435,0.03696750475527155,-0.03696750475527155
223.436,0.06062248910891499,-0.06062248910891499
223.437,0.08263769934828724,-0.08263769934828724
223.438,0.09859312418645738,-0.09859312418645738
223.439,0.10661207867082012,-0.10661207867082012
223.44,0.10739564618129005,-0.10739564618129005
223.441,0.10317193675337144,-0.10317193675337144
223.442,0.09610367010251364,-0.09610367010251364
223.443,0.08692000432524583,-0.08692000432524583
223.444,0.07444432451438787,-0.07444432451438787
223.445,0.05631055062246082,-0.05631055062246082
223.446,0.030640059158491884,-0.030640059158491884
223.447,0.0020069226617005498,0.0020069226617005498
223.448,0.037299907965825385,0.037299907965825385
223.449,0.06717966235424333,0.06717966235424333
223.45,0.08156352364643116,0.08156352364643116
223.451,0.07137627040251182,0.07137627040251182
223.452,0.03199840777559193,0.03199840777559193
223.453,0.03406758259212106,-0.03406758259212106
223.454,0.11639381977581931,-0.11639381977581931
223.455,0.1982473233037132,-0.1982473233037132
223.456,0.26042690708094274,-0.26042690708094274
223.457,0.28634374367811377,-0.28634374367811377
223.458,0.26687334413843744,-0.26687334413843744
223.459,0.2034605208611725,-0.2034605208611725
223.46,0.10840728616412598,-0.10840728616412598
223.461,0.0020929020341277083,-0.0020929020341277083
223.462,0.09218714229949376,0.09218714229949376
223.463,0.15432097712314286,0.15432097712314286
223.464,0.172652406223593,0.172652406223593
223.465,0.1468790537124396,0.1468790537124396
223.466,0.08773447146367452,0.08773447146367452
223.467,0.013580982475681846,0.013580982475681846
223.468,0.05503148229982757,-0.05503148229982757
223.469,0.10118995200379843,-0.10118995200379843
223.47,0.11609830839274271,-0.11609830839274271
223.471,0.1009420608117998,-0.1009420608117998
223.472,0.06570608921613208,-0.06570608921613208
223.473,0.02545953554619451,-0.02545953554619451
223.474,0.004625952678100953,0.004625952678100953
223.475,0.013931900565489874,0.013931900565489874
223.476,0.0006833734516443757,-0.0006833734516443757
223.477,0.03447955282557558,-0.03447955282557558
223.478,0.07689844861624706,-0.07689844861624706
223.479,0.11527516731488252,-0.11527516731488252
223.48,0.13890875193481544,-0.13890875193481544
223.481,0.14218120696333192,-0.14218120696333192
223.482,0.12581464532782882,-0.12581464532782882
223.483,0.09602532927093177,-0.09602532927093177
223.484,0.06203414689934561,-0.06203414689934561
223.485,0.03289167754737332,-0.03289167754737332
223.486,0.014719553873376645,-0.014719553873376645
223.487,0.009233911426307806,-0.009233911426307806
223.488,0.013907003294004072,-0.013907003294004072
223.489,0.023532372209936092,-0.023532372209936092
223.49,0.03249639293204609,-0.03249639293204609
223.491,0.03687664766591292,-0.03687664766591292
223.492,0.035630612610185186,-0.035630612610185186
223.493,0.030534289475989018,-0.030534289475989018
223.494,0.02502145466057637,-0.02502145466057637
223.495,0.022476211953000425,-0.022476211953000425
223.496,0.02470197023717302,-0.02470197023717302
223.497,0.031177255147999072,-0.031177255147999072
223.498,0.03936747848767519,-0.03936747848767519
223.499,0.04592904744490778,-0.04592904744490778
223.5,0.048284905151951496,-0.048284905151951496
223.501,0.045903333169741156,-0.045903333169741156
223.502,0.04072799363432478,-0.04072799363432478
223.503,0.03654065221154068,-0.03654065221154068
223.504,0.03746157222005131,-0.03746157222005131
223.505,0.046145519144512814,-0.046145519144512814
223.506,0.06237889404193364,-0.06237889404193364
223.507,0.08266635083033735,-0.08266635083033735
223.508,0.1010512147457433,-0.1010512147457433
223.509,0.11096479949200222,-0.11096479949200222
223.51,0.10750720507736256,-0.10750720507736256
223.511,0.08937038149483723,-0.08937038149483723
223.512,0.05969757195823577,-0.05969757195823577
223.513,0.025509444327025732,-0.025509444327025732
223.514,0.004195547295344548,0.004195547295344548
223.515,0.021103534483764674,0.021103534483764674
223.516,0.02017081151319755,0.02017081151319755
223.517,0.0012928426485072642,0.0012928426485072642
223.518,0.030503464115641532,-0.030503464115641532
223.519,0.0664361691001446,-0.0664361691001446
223.52,0.09650338321882701,-0.09650338321882701
223.521,0.11239699392342883,-0.11239699392342883
223.522,0.10989767603969658,-0.10989767603969658
223.523,0.09002499152912169,-0.09002499152912169
223.524,0.058616278027678326,-0.058616278027678326
223.525,0.02450294832103672,-0.02450294832103672
223.526,0.0031189376625615495,0.0031189376625615495
223.527,0.01730094289398809,0.01730094289398809
223.528,0.015156066295143544,0.015156066295143544
223.529,0.0016220016195493958,-0.0016220016195493958
223.53,0.02760371145535334,-0.02760371145535334
223.531,0.05547786335555982,-0.05547786335555982
223.532,0.07827456415860568,-0.07827456415860568
223.533,0.09125250728560586,-0.09125250728560586
223.534,0.09291091923069206,-0.09291091923069206
223.535,0.08491089897441761,-0.08491089897441761
223.536,0.07105760900929003,-0.07105760900929003
223.537,0.055780240469232245,-0.055780240469232245
223.538,0.04266275508488271,-0.04266275508488271
223.539,0.03350002498503335,-0.03350002498503335
223.54,0.02812363615938762,-0.02812363615938762
223.541,0.024950502220921433,-0.024950502220921433
223.542,0.021960960313230138,-0.021960960313230138
223.543,0.017693354660781035,-0.017693354660781035
223.544,0.011880977290150807,-0.011880977290150807
223.545,0.005527933624201231,-0.005527933624201231
223.546,0.0004509969185612084,-0.0004509969185612084
223.547,0.0014840849928654531,0.0014840849928654531
223.548,0.0008962245900667742,-0.0008962245900667742
223.549,0.007649490291338101,-0.007649490291338101
223.55,0.017760184497486953,-0.017760184497486953
223.551,0.02960170593682121,-0.02960170593682121
223.552,0.041600719207557146,-0.041600719207557146
223.553,0.05281046798781597,-0.05281046798781597
223.554,0.06314407921649767,-0.06314407921649767
223.555,0.07316511733688935,-0.07316511733688935
223.556,0.08352247944903501,-0.08352247944903501
223.557,0.0942749649622101,-0.0942749649622101
223.558,0.10441394107498225,-0.10441394107498225
223.559,0.11183261927412558,-0.11183261927412558
223.56,0.11382634456243668,-0.11382634456243668
223.561,0.1079990890582263,-0.1079990890582263
223.562,0.09327521774748149,-0.09327521774748149
223.563,0.07064124942838024,-0.07064124942838024
223.564,0.04330339005539252,-0.04330339005539252
223.565,0.016128279000255485,-0.016128279000255485
223.566,0.005522672120014116,0.005522672120014116
223.567,0.017234684533968814,0.017234684533968814
223.568,0.016807802973214825,0.016807802973214825
223.569,0.004933068880423219,0.004933068880423219
223.57,0.014967318851612621,-0.014967318851612621
223.571,0.03771465246724015,-0.03771465246724015
223.572,0.057873741285869085,-0.057873741285869085
223.573,0.07130882973142805,-0.07130882973142805
223.574,0.07629783978655136,-0.07629783978655136
223.575,0.07384508606631346,-0.07384508606631346
223.576,0.06709401330660303,-0.06709401330660303
223.577,0.06004149532210312,-0.06004149532210312
223.578,0.05599354972154025,-0.05599354972154025
223.579,0.05629707235577941,-0.05629707235577941
223.58,0.05979788494211369,-0.05979788494211369
223.581,0.063235910979766,-0.063235910979766
223.582,0.062470260229050445,-0.062470260229050445
223.583,0.05413530292065816,-0.05413530292065816
223.584,0.03716226254467281,-0.03716226254467281
223.585,0.013619154506934406,-0.013619154506934406
223.586,0.011475067562007446,0.011475067562007446
223.587,0.0313797983646702,0.0313797983646702
223.588,0.03957681692786186,0.03957681692786186
223.589,0.03184716889117567,0.03184716889117567
223.59,0.007824377976358488,0.007824377976358488
223.591,0.02849888250605226,-0.02849888250605226
223.592,0.06952852428398237,-0.06952852428398237
223.593,0.10592545296884348,-0.10592545296884348
223.594,0.12905240512775606,-0.12905240512775606
223.595,0.13331013991423168,-0.13331013991423168
223.596,0.11768142878119536,-0.11768142878119536
223.597,0.08602941117412943,-0.08602941117412943
223.598,0.04606415553895049,-0.04606415553895049
223.599,0.0072842273574821315,-0.0072842273574821315
223.6,0.021502832215149814,0.021502832215149814
223.601,0.034367038901002234,0.034367038901002234
223.602,0.029543916317539498,0.029543916317539498
223.603,0.00950800665681717,0.00950800665681717
223.604,0.020107092012419447,-0.020107092012419447
223.605,0.052337583511332775,-0.052337583511332775
223.606,0.08085983804322161,-0.08085983804322161
223.607,0.10149320850008703,-0.10149320850008703
223.608,0.11281984725653993,-0.11281984725653993
223.609,0.11582558373501528,-0.11582558373501528
223.61,0.11280197017305749,-0.11280197017305749
223.611,0.10598929003412039,-0.10598929003412039
223.612,0.0965047069109356,-0.0965047069109356
223.613,0.08396992109218504,-0.08396992109218504
223.614,0.06697594629948078,-0.06697594629948078
223.615,0.04419633278319379,-0.04419633278319379
223.616,0.015699115617607395,-0.015699115617607395
223.617,0.016094702111833614,0.016094702111833614
223.618,0.04626219279181143,0.04626219279181143
223.619,0.06822801175786886,0.06822801175786886
223.62,0.07545019795030639,0.07545019795030639
223.621,0.06346319543626233,0.06346319543626233
223.622,0.03162660731202527,0.03162660731202527
223.623,0.016034480459302114,-0.016034480459302114
223.624,0.07126727917701214,-0.07126727917701214
223.625,0.12329641925441592,-0.12329641925441592
223.626,0.16138735082613642,-0.16138735082613642
223.627,0.17757026824302602,-0.17757026824302602
223.628,0.16874345471198116,-0.16874345471198116
223.629,0.13752949560979988,-0.13752949560979988
223.63,0.09160817701880886,-0.09160817701880886
223.631,0.04169169257876726,-0.04169169257876726
223.632,0.0012933125594958295,0.0012933125594958295
223.633,0.029018609264539252,0.029018609264539252
223.634,0.03776728552034725,0.03776728552034725
223.635,0.029091383975499152,0.029091383975499152
223.636,0.008961558706437334,0.008961558706437334
223.637,0.014300834733911638,-0.014300834733911638
223.638,0.03266862033648543,-0.03266862033648543
223.639,0.04083626673285434,-0.04083626673285434
223.64,0.0377203912661207,-0.0377203912661207
223.641,0.02661663367851963,-0.02661663367851963
223.642,0.01400472097420935,-0.01400472097420935
223.643,0.007393092839214077,-0.007393092839214077
223.644,0.012866970858645077,-0.012866970858645077
223.645,0.033072946964623595,-0.033072946964623595
223.646,0.06622587656644585,-0.06622587656644585
223.647,0.10641140471477373,-0.10641140471477373
223.648,0.14507747370617596,-0.14507747370617596
223.649,0.1732734667641299,-0.1732734667641299
223.65,0.1840001726706212,-0.1840001726706212
223.651,0.17402612237086645,-0.17402612237086645
223.652,0.14469795270374752,-0.14469795270374752
223.653,0.10156556747581025,-0.10156556747581025
223.654,0.05296809378683298,-0.05296809378683298
223.655,0.007992535654877453,-0.007992535654877453
223.656,0.025644319318399722,0.025644319318399722
223.657,0.04325623044844251,0.04325623044844251
223.658,0.04400943721742956,0.04400943721742956
223.659,0.030765081837965447,0.030765081837965447
223.66,0.009056489576853677,0.009056489576853677
223.661,0.01447957092688057,-0.01447957092688057
223.662,0.03379109552344284,-0.03379109552344284
223.663,0.04479888888473549,-0.04479888888473549
223.664,0.04617306563352208,-0.04617306563352208
223.665,0.03936030933583379,-0.03936030933583379
223.666,0.027916094888976728,-0.027916094888976728
223.667,0.016359999720037766,-0.016359999720037766
223.668,0.008872942375702242,-0.008872942375702242
223.669,0.00817447585614639,-0.00817447585614639
223.67,0.014856694087948097,-0.014856694087948097
223.671,0.027326450001389113,-0.027326450001389113
223.672,0.04234965056614115,-0.04234965056614115
223.673,0.056037219093398205,-0.056037219093398205
223.674,0.06499827595517782,-0.06499827595517782
223.675,0.06734068178784824,-0.06734068178784824
223.676,0.06323613842078035,-0.06323613842078035
223.677,0.05488103041875103,-0.05488103041875103
223.678,0.04584936689048558,-0.04584936689048558
223.679,0.040008779889037394,-0.040008779889037394
223.68,0.04030614655470821,-0.04030614655470821
223.681,0.04778393136499248,-0.04778393136499248
223.682,0.06113921569722691,-0.06113921569722691
223.683,0.07699080591545782,-0.07699080591545782
223.684,0.09081236665864267,-0.09081236665864267
223.685,0.09828023798724794,-0.09828023798724794
223.686,0.09663869914460954,-0.09663869914460954
223.687,0.08565410247606675,-0.08565410247606675
223.688,0.06783159625125135,-0.06783159625125135
223.689,0.04778170774730928,-0.04778170774730928
223.69,0.030888495484635237,-0.030888495484635237
223.691,0.021664432206834783,-0.021664432206834783
223.692,0.022301526179578812,-0.022301526179578812
223.693,0.031895279594115644,-0.031895279594115644
223.694,0.046628097945148994,-0.046628097945148994
223.695,0.0609037566135926,-0.0609037566135926
223.696,0.06911476542902395,-0.06911476542902395
223.697,0.0675008918561818,-0.0675008918561818
223.698,0.05549830472331374,-0.05549830472331374
223.699,0.03611338664033126,-0.03611338664033126
223.7,0.015149340388750376,-0.015149340388750376
223.701,0.0005212874664659584,0.0005212874664659584
223.702,0.005125695601643221,0.005125695601643221
223.703,0.0040775681348804715,-0.0040775681348804715
223.704,0.02573610104785795,-0.02573610104785795
223.705,0.05458704351037458,-0.05458704351037458
223.706,0.08287661024555248,-0.08287661024555248
223.707,0.10260948056494756,-0.10260948056494756
223.708,0.10794458573017018,-0.10794458573017018
223.709,0.0969898691299742,-0.0969898691299742
223.71,0.07242413067166786,-0.07242413067166786
223.711,0.04073713981824323,-0.04073713981824323
223.712,0.010314948669225221,-0.010314948669225221
223.713,0.011035209282520109,0.011035209282520109
223.714,0.01834757878763127,0.01834757878763127
223.715,0.01084566458657088,0.01084566458657088
223.716,0.008029699544776725,-0.008029699544776725
223.717,0.03188910704296566,-0.03188910704296566
223.718,0.053520160297339525,-0.053520160297339525
223.719,0.06716102330776863,-0.06716102330776863
223.72,0.07018088815287515,-0.07018088815287515
223.721,0.06363997360795604,-0.06363997360795604
223.722,0.051587946607490776,-0.051587946607490776
223.723,0.03938733931418148,-0.03938733931418148
223.724,0.031672895153675995,-0.031672895153675995
223.725,0.030669654549441705,-0.030669654549441705
223.726,0.03545550705812228,-0.03545550705812228
223.727,0.04241646703090218,-0.04241646703090218
223.728,0.046722010534826164,-0.046722010534826164
223.729,0.04428862508344078,-0.04428862508344078
223.73,0.033525893796519934,-0.033525893796519934
223.731,0.016230627615065996,-0.016230627615065996
223.732,0.0027139135870615227,0.0027139135870615227
223.733,0.016765210802670794,0.016765210802670794
223.734,0.01981663282393975,0.01981663282393975
223.735,0.008267370189764645,0.008267370189764645
223.736,0.017625423938214868,-0.017625423938214868
223.737,0.053569866113030495,-0.053569866113030495
223.738,0.09230724695963821,-0.09230724695963821
223.739,0.1255852884286235,-0.1255852884286235
223.74,0.14640710265044554,-0.14640710265044554
223.741,0.15085067667693086,-0.15085067667693086
223.742,0.1389145893005812,-0.1389145893005812
223.743,0.11418307832120678,-0.11418307832120678
223.744,0.08249799295839788,-0.08249799295839788
223.745,0.050139793031495405,-0.050139793031495405
223.746,0.022148501648034835,-0.022148501648034835
223.747,0.0013196879657368932,-0.0013196879657368932
223.748,0.011868535390029633,0.011868535390029633
223.749,0.018498316546816218,0.018498316546816218
223.75,0.020028611926180995,0.020028611926180995
223.751,0.01722898568962905,0.01722898568962905
223.752,0.00970120968956345,0.00970120968956345
223.753,0.0037968540341087875,-0.0037968540341087875
223.754,0.02435267033593347,-0.02435267033593347
223.755,0.05165170254830753,-0.05165170254830753
223.756,0.08304676902153807,-0.08304676902153807
223.757,0.11343162881810176,-0.11343162881810176
223.758,0.1361316757267308,-0.1361316757267308
223.759,0.14464699397032843,-0.14464699397032843
223.76,0.1347373071665975,-0.1347373071665975
223.761,0.10615298390734462,-0.10615298390734462
223.762,0.0633671613290473,-0.0633671613290473
223.763,0.014946123708009074,-0.014946123708009074
223.764,0.02837828165638734,0.02837828165638734
223.765,0.05643929129427949,0.05643929129427949
223.766,0.062384819253264556,0.062384819253264556
223.767,0.04461697160893974,0.04461697160893974
223.768,0.007314355513054593,0.007314355513054593
223.769,0.040647696024571855,-0.040647696024571855
223.77,0.08807552877431535,-0.08807552877431535
223.771,0.12443400058475795,-0.12443400058475795
223.772,0.14254487447039121,-0.14254487447039121
223.773,0.14022967869956304,-0.14022967869956304
223.774,0.12046170874111273,-0.12046170874111273
223.775,0.0900621947713145,-0.0900621947713145
223.776,0.05742052762794514,-0.05742052762794514
223.777,0.029994771738976356,-0.029994771738976356
223.778,0.012371889207817066,-0.012371889207817066
223.779,0.005438206228492004,-0.005438206228492004
223.78,0.006814360212442749,-0.006814360212442749
223.781,0.012283382805293175,-0.012283382805293175
223.782,0.01762944646412612,-0.01762944646412612
223.783,0.020208668005661123,-0.020208668005661123
223.784,0.019716320587351177,-0.019716320587351177
223.785,0.01793803868784538,-0.01793803868784538
223.786,0.017656485836852753,-0.017656485836852753
223.787,0.02119176363010511,-0.02119176363010511
223.788,0.029176040848291174,-0.029176040848291174
223.789,0.040060284453281914,-0.040060284453281914
223.79,0.05056398277321161,-0.05056398277321161
223.791,0.05691333320764769,-0.05691333320764769
223.792,0.05640318559802471,-0.05640318559802471
223.793,0.04867703534573731,-0.04867703534573731
223.794,0.036201362935841086,-0.036201362935841086
223.795,0.023689940061186632,-0.023689940061186632
223.796,0.01661363024473128,-0.01661363024473128
223.797,0.019277274404912337,-0.019277274404912337
223.798,0.033132163644062795,-0.033132163644062795
223.799,0.055948308056260054,-0.055948308056260054
223.8,0.0822025775823726,-0.0822025775823726
223.801,0.10463264533000405,-0.10463264533000405
223.802,0.11649876698138995,-0.11649876698138995
223.803,0.11382669071918672,-0.11382669071918672
223.804,0.09687282320540946,-0.09687282320540946
223.805,0.07027691495945998,-0.07027691495945998
223.806,0.04178154193437866,-0.04178154193437866
223.807,0.019869322264765454,-0.019869322264765454
223.808,0.011042855979491728,-0.011042855979491728
223.809,0.01762166897691353,-0.01762166897691353
223.81,0.0367986230973979,-0.0367986230973979
223.811,0.06131973133687274,-0.06131973133687274
223.812,0.08164176600756345,-0.08164176600756345
223.813,0.08894225481658924,-0.08894225481658924
223.814,0.07806107465920187,-0.07806107465920187
223.815,0.04944055078848175,-0.04944055078848175
223.816,0.00941212399659963,-0.00941212399659963
223.817,0.031330014946600926,0.031330014946600926
223.818,0.06067421881723978,0.06067421881723978
223.819,0.06861715431416515,0.06861715431416515
223.82,0.05033491378631183,0.05033491378631183
223.821,0.007877994069605654,0.007877994069605654
223.822,0.05003974758172103,-0.05003974758172103
223.823,0.11013587448306628,-0.11013587448306628
223.824,0.15796860599352314,-0.15796860599352314
223.825,0.18171250243119774,-0.18171250243119774
223.826,0.17525285876775953,-0.17525285876775953
223.827,0.13975575038675292,-0.13975575038675292
223.828,0.08331373979360535,-0.08331373979360535
223.829,0.01881312462216289,-0.01881312462216289
223.83,0.03934513450483079,0.03934513450483079
223.831,0.07875148347552274,0.07875148347552274
223.832,0.09178854890766486,0.09178854890766486
223.833,0.07704600347600277,0.07704600347600277
223.834,0.039097235220959536,0.039097235220959536
223.835,0.013145789910574912,-0.013145789910574912
223.836,0.06891479991779925,-0.06891479991779925
223.837,0.11815383624602604,-0.11815383624602604
223.838,0.15349289652813447,-0.15349289652813447
223.839,0.1712087028122452,-0.1712087028122452
223.84,0.17111280552261798,-0.17111280552261798
223.841,0.15563799876655737,-0.15563799876655737
223.842,0.12859333746890278,-0.12859333746890278
223.843,0.0940727577991779,-0.0940727577991779
223.844,0.0558451227661213,-0.0558451227661213
223.845,0.017295480354178938,-0.017295480354178938
223.846,0.018269078947666717,0.018269078947666717
223.847,0.04729315594301009,0.04729315594301009
223.848,0.0659715025913219,0.0659715025913219
223.849,0.0707631241712201,0.0707631241712201
223.85,0.05936239358088313,0.05936239358088313
223.851,0.03182052325848295,0.03182052325848295
223.852,0.008636389238377506,-0.008636389238377506
223.853,0.05552673853087675,-0.05552673853087675
223.854,0.10000975890709751,-0.10000975890709751
223.855,0.13268501589871762,-0.13268501589871762
223.856,0.14589138815307634,-0.14589138815307634
223.857,0.13587124883364166,-0.13587124883364166
223.858,0.10412350457605102,-0.10412350457605102
223.859,0.05744672438263676,-0.05744672438263676
223.86,0.006529773099806402,-0.006529773099806402
223.861,0.03662098173737638,0.03662098173737638
223.862,0.06175586008757028,0.06175586008757028
223.863,0.06310370394707032,0.06310370394707032
223.864,0.04094752874753138,0.04094752874753138
223.865,0.0015650281240757735,0.0015650281240757735
223.866,0.044489848761313566,-0.044489848761313566
223.867,0.08530067591273294,-0.08530067591273294
223.868,0.11087393298873971,-0.11087393298873971
223.869,0.11585271544600173,-0.11585271544600173
223.87,0.10087757801079467,-0.10087757801079467
223.871,0.07221113262177514,-0.07221113262177514
223.872,0.03975699347852346,-0.03975699347852346
223.873,0.014077242532643197,-0.014077242532643197
223.874,0.0033011460567162754,-0.0033011460567162754
223.875,0.010834150122862596,-0.010834150122862596
223.876,0.034517843113443525,-0.034517843113443525
223.877,0.06744161121367775,-0.06744161121367775
223.878,0.10010687734906842,-0.10010687734906842
223.879,0.12325029953402478,-0.12325029953402478
223.88,0.13046245304462745,-0.13046245304462745
223.881,0.11983945497632187,-0.11983945497632187
223.882,0.09423620942223498,-0.09423620942223498
223.883,0.060139061271288874,-0.060139061271288874
223.884,0.025596145492070566,-0.025596145492070566
223.885,0.002096770954866267,0.002096770954866267
223.886,0.018234201557043805,0.018234201557043805
223.887,0.021551074280381943,0.021551074280381943
223.888,0.013934440698392558,0.013934440698392558
223.889,0.000768900903764691,-0.000768900903764691
223.89,0.018335871757536926,-0.018335871757536926
223.891,0.03554544509180946,-0.03554544509180946
223.892,0.05088642240096142,-0.05088642240096142
223.893,0.06441769479298087,-0.06441769479298087
223.894,0.07694031267209278,-0.07694031267209278
223.895,0.08890114767430002,-0.08890114767430002
223.896,0.09953907788642347,-0.09953907788642347
223.897,0.10667595832803156,-0.10667595832803156
223.898,0.10728894549593604,-0.10728894549593604
223.899,0.09867833364648548,-0.09867833364648548
223.9,0.07978747454577706,-0.07978747454577706
223.901,0.05213739796744754,-0.05213739796744754
223.902,0.019948390007209715,-0.019948390007209715
223.903,0.010700213285530502,0.010700213285530502
223.904,0.03346976048215655,0.03346976048215655
223.905,0.04362290482613451,0.04362290482613451
223.906,0.0395155747070679,0.0395155747070679
223.907,0.023180223049959592,0.023180223049959592
223.908,0.00025228318743997225,-0.00025228318743997225
223.909,0.0241532936723885,-0.0241532936723885
223.91,0.042519435262837746,-0.042519435262837746
223.911,0.05191539898067643,-0.05191539898067643
223.912,0.05256698063107712,-0.05256698063107712
223.913,0.04820141686810875,-0.04820141686810875
223.914,0.04464807753893463,-0.04464807753893463
223.915,0.047639850728180444,-0.047639850728180444
223.916,0.060547641655825823,-0.060547641655825823
223.917,0.08283283999491298,-0.08283283999491298
223.918,0.10978979881062345,-0.10978979881062345
223.919,0.1337362362681661,-0.1337362362681661
223.92,0.14632776986521256,-0.14632776986521256
223.921,0.14128329615604573,-0.14128329615604573
223.922,0.11664306450157658,-0.11664306450157658
223.923,0.07580119310858247,-0.07580119310858247
223.924,0.02692565204812114,-0.02692565204812114
223.925,0.019115617715865785,0.019115617715865785
223.926,0.051726461591518724,0.051726461591518724
223.927,0.06356213153281298,0.06356213153281298
223.928,0.052612196323389204,0.052612196323389204
223.929,0.02275278363682709,0.02275278363682709
223.93,0.01739652052074736,-0.01739652052074736
223.931,0.05695790169363002,-0.05695790169363002
223.932,0.08586725077956214,-0.08586725077956214
