Czas,AbsSum,Sum
116.059,0.14762808814864903,-0.14762808814864903
116.06,0.08647929993068937,-0.08647929993068937
116.061,0.031479298698260605,-0.031479298698260605
116.062,0.006440567094856631,0.006440567094856631
116.063,0.021447836599428838,0.021447836599428838
116.064,0.014031361485073557,0.014031361485073557
116.065,0.009588119120020555,-0.009588119120020555
116.066,0.039608565681878205,-0.039608565681878205
116.067,0.06565237128493229,-0.06565237128493229
116.068,0.07969911813946717,-0.07969911813946717
116.069,0.07808944031705689,-0.07808944031705689
116.07,0.06207625064142164,-0.06207625064142164
116.071,0.03687604325921512,-0.03687604325921512
116.072,0.00963678015602043,-0.00963678015602043
116.073,0.01295598582939661,0.01295598582939661
116.074,0.02665494263778223,0.02665494263778223
116.075,0.03062241906680363,0.03062241906680363
116.076,0.02717917702640915,0.02717917702640915
116.077,0.02052613642037393,0.02052613642037393
116.078,0.014956803202146096,0.014956803202146096
116.079,0.013209378197658772,0.013209378197658772
116.08,0.01551624558807041,0.01551624558807041
116.081,0.01963802641813972,0.01963802641813972
116.082,0.021819269211134085,0.021819269211134085
116.083,0.018293230707206787,0.018293230707206787
116.084,0.006793960259292797,0.006793960259292797
116.085,0.012446951864214406,-0.012446951864214406
116.086,0.036550644143610866,-0.036550644143610866
116.087,0.060729007826235915,-0.060729007826235915
116.088,0.07966042637885318,-0.07966042637885318
116.089,0.08905660554510253,-0.08905660554510253
116.09,0.08692919629600793,-0.08692919629600793
116.091,0.07417736482779846,-0.07417736482779846
116.092,0.054341776868288894,-0.054341776868288894
116.093,0.03262913659581956,-0.03262913659581956
116.094,0.014521910949699013,-0.014521910949699013
116.095,0.004389153722405559,-0.004389153722405559
116.096,0.004484282115869931,-0.004484282115869931
116.097,0.014574414164642113,-0.014574414164642113
116.098,0.032245632859132956,-0.032245632859132956
116.099,0.053734224261411945,-0.053734224261411945
116.1,0.07500202317453186,-0.07500202317453186
116.101,0.09273636460465773,-0.09273636460465773
116.102,0.10501235896793748,-0.10501235896793748
116.103,0.11148020825029892,-0.11148020825029892
116.104,0.11308977182701818,-0.11308977182701818
116.105,0.11149369227177486,-0.11149369227177486
116.106,0.10834554302372179,-0.10834554302372179
116.107,0.10471612008505216,-0.10471612008505216
116.108,0.1007948401911909,-0.1007948401911909
116.109,0.09594570858741813,-0.09594570858741813
116.11,0.08907809439804604,-0.08907809439804604
116.111,0.07920106203737942,-0.07920106203737942
116.112,0.06597876078694442,-0.06597876078694442
116.113,0.05010469664862072,-0.05010469664862072
116.114,0.033363255439816775,-0.033363255439816775
116.115,0.018334503495650134,-0.018334503495650134
116.116,0.007801046872092932,-0.007801046872092932
116.117,0.0040071281117419755,-0.0040071281117419755
116.118,0.007974985420301284,-0.007974985420301284
116.119,0.019084069162644823,-0.019084069162644823
116.12,0.03506023839920891,-0.03506023839920891
116.121,0.05241581104857018,-0.05241581104857018
116.122,0.06725368674690169,-0.06725368674690169
116.123,0.07623550405265456,-0.07623550405265456
116.124,0.07745049048327024,-0.07745049048327024
116.125,0.0709323778584442,-0.0709323778584442
116.126,0.0586598222758552,-0.0586598222758552
116.127,0.04402017552903925,-0.04402017552903925
116.128,0.030876021183882107,-0.030876021183882107
116.129,0.022498900215716988,-0.022498900215716988
116.13,0.020682797725232516,-0.020682797725232516
116.131,0.02530137460169224,-0.02530137460169224
116.132,0.034438798715850316,-0.034438798715850316
116.133,0.0450450391518209,-0.0450450391518209
116.134,0.05390063692668701,-0.05390063692668701
116.135,0.05857933266706283,-0.05857933266706283
116.136,0.05810379290477341,-0.05810379290477341
116.137,0.05309926042678703,-0.05309926042678703
116.138,0.04542515876666309,-0.04542515876666309
116.139,0.03744402040118544,-0.03744402040118544
116.14,0.03120625815749678,-0.03120625815749678
116.141,0.027844746737032078,-0.027844746737032078
116.142,0.02737919361292307,-0.02737919361292307
116.143,0.028962390021521678,-0.028962390021521678
116.144,0.03142336794912981,-0.03142336794912981
116.145,0.033846281791933386,-0.033846281791933386
116.146,0.03591667467508686,-0.03591667467508686
116.147,0.037874937120080165,-0.037874937120080165
116.148,0.04009977447079904,-0.04009977447079904
116.149,0.04252861770142846,-0.04252861770142846
116.15,0.04422761357007832,-0.04422761357007832
116.151,0.043397655835284876,-0.043397655835284876
116.152,0.03794142263190792,-0.03794142263190792
116.153,0.02647214358191896,-0.02647214358191896
116.154,0.009410700386755066,-0.009410700386755066
116.155,0.01030632393789177,0.01030632393789177
116.156,0.02733086680508312,0.02733086680508312
116.157,0.03500519452303408,0.03500519452303408
116.158,0.02729106469420195,0.02729106469420195
116.159,0.0010031652092181709,0.0010031652092181709
116.16,0.04239164351754843,-0.04239164351754843
116.161,0.0961258021783098,-0.0961258021783098
116.162,0.14906638154219443,-0.14906638154219443
116.163,0.1881911211969679,-0.1881911211969679
116.164,0.20203828229637621,-0.20203828229637621
116.165,0.1841695428548854,-0.1841695428548854
116.166,0.13557010036470662,-0.13557010036470662
116.167,0.0651394661266893,-0.0651394661266893
116.168,0.0120471953929564,0.0120471953929564
116.169,0.0783560234970353,0.0783560234970353
116.17,0.11813389369909322,0.11813389369909322
116.171,0.12187878291509713,0.12187878291509713
116.172,0.08880637229717814,0.08880637229717814
116.173,0.027026740541277627,0.027026740541277627
116.174,0.048745350716462243,-0.048745350716462243
116.175,0.1212737336872789,-0.1212737336872789
116.176,0.17545666622703082,-0.17545666622703082
116.177,0.20216732825242545,-0.20216732825242545
116.178,0.20016300321502067,-0.20016300321502067
116.179,0.17557104378667854,-0.17557104378667854
116.18,0.139232244128503,-0.139232244128503
116.181,0.1028497170785887,-0.1028497170785887
116.182,0.0752356588060924,-0.0752356588060924
116.183,0.059860492946619326,-0.059860492946619326
116.184,0.054425906317636,-0.054425906317636
116.185,0.052475288273445164,-0.052475288273445164
116.186,0.046366256853411,-0.046366256853411
116.187,0.030494219997915017,-0.030494219997915017
116.188,0.003616346583608321,-0.003616346583608321
116.189,0.03051450401799194,0.03051450401799194
116.19,0.06437195168874932,0.06437195168874932
116.191,0.08923728906418193,0.08923728906418193
116.192,0.09817567784815484,0.09817567784815484
116.193,0.08833369437804617,0.08833369437804617
116.194,0.061763166652633705,0.061763166652633705
116.195,0.02453424899353629,0.02453424899353629
116.196,0.0154698387539014,-0.0154698387539014
116.197,0.05121400711265878,-0.05121400711265878
116.198,0.07862558180213242,-0.07862558180213242
116.199,0.0973953763805202,-0.0973953763805202
116.2,0.11022085117004465,-0.11022085117004465
116.201,0.12085605254362375,-0.12085605254362375
116.202,0.13180033154713333,-0.13180033154713333
116.203,0.1426054464765809,-0.1426054464765809
116.204,0.14954935441108785,-0.14954935441108785
116.205,0.14689699171908455,-0.14689699171908455
116.206,0.129338348092931,-0.129338348092931
116.207,0.09469870873422492,-0.09469870873422492
116.208,0.045846487098795574,-0.045846487098795574
116.209,0.009044744405281913,0.009044744405281913
116.21,0.05816351020670418,0.05816351020670418
116.211,0.08924688797269331,0.08924688797269331
116.212,0.09329820498656205,0.09329820498656205
116.213,0.06759967816607393,0.06759967816607393
116.214,0.01696484714108948,0.01696484714108948
116.215,0.04726602307620864,-0.04726602307620864
116.216,0.11023729606899646,-0.11023729606899646
116.217,0.15766900021186814,-0.15766900021186814
116.218,0.17973196530109803,-0.17973196530109803
116.219,0.17348298230247206,-0.17348298230247206
116.22,0.14312491987902765,-0.14312491987902765
116.221,0.09809340879978734,-0.09809340879978734
116.222,0.049698540627848176,-0.049698540627848176
116.223,0.007513195084107971,-0.007513195084107971
116.224,0.023260635579886113,0.023260635579886113
116.225,0.042608533322400444,0.042608533322400444
116.226,0.05454364700632053,0.05454364700632053
116.227,0.06452968545683602,0.06452968545683602
116.228,0.07654666498436691,0.07654666498436691
116.229,0.09096129737952019,0.09096129737952019
116.23,0.10403476343245788,0.10403476343245788
116.231,0.10926400539027892,0.10926400539027892
116.232,0.10004452485590742,0.10004452485590742
116.233,0.0726252562191152,0.0726252562191152
116.234,0.02819236216270249,0.02819236216270249
116.235,0.026778387648185742,-0.026778387648185742
116.236,0.08212908547612696,-0.08212908547612696
116.237,0.12708409399098353,-0.12708409399098353
116.238,0.15370674093755599,-0.15370674093755599
116.239,0.159502001405462,-0.159502001405462
116.24,0.14819180645634056,-0.14819180645634056
116.241,0.12832672137494205,-0.12832672137494205
116.242,0.11017433115370534,-0.11017433115370534
116.243,0.10196141911630441,-0.10196141911630441
116.244,0.10681021356416598,-0.10681021356416598
116.245,0.12149551906478429,-0.12149551906478429
116.246,0.13752597412425527,-0.13752597412425527
116.247,0.14423368723696262,-0.14423368723696262
116.248,0.13283022471846362,-0.13283022471846362
116.249,0.10001313239655651,-0.10001313239655651
116.25,0.04982459255635918,-0.04982459255635918
116.251,0.006960437966759825,0.006960437966759825
116.252,0.055799853937396726,0.055799853937396726
116.253,0.08277331225038087,0.08277331225038087
116.254,0.07895904791926545,0.07895904791926545
116.255,0.043344870242883804,0.043344870242883804
116.256,0.016702449176937972,-0.016702449176937972
116.257,0.08757312481870538,-0.08757312481870538
116.258,0.15345107111123413,-0.15345107111123413
116.259,0.2009193941555445,-0.2009193941555445
116.26,0.22262953426119036,-0.22262953426119036
116.261,0.21886627185905094,-0.21886627185905094
116.262,0.1965691260006488,-0.1965691260006488
116.263,0.1662372857699861,-0.1662372857699861
116.264,0.13785253217645044,-0.13785253217645044
116.265,0.11726306835142364,-0.11726306835142364
116.266,0.10428095877539234,-0.10428095877539234
116.267,0.09312935601836014,-0.09312935601836014
116.268,0.0750500654464562,-0.0750500654464562
116.269,0.04213249578977085,-0.04213249578977085
116.27,0.008993928671083173,0.008993928671083173
116.271,0.07491307885121445,0.07491307885121445
116.272,0.14543833481760715,0.14543833481760715
116.273,0.20594773505911101,0.20594773505911101
116.274,0.24132473751585692,0.24132473751585692
116.275,0.24027061853935305,0.24027061853935305
116.276,0.19864864069633725,0.19864864069633725
116.277,0.12085101481052085,0.12085101481052085
116.278,0.018823070292099953,0.018823070292099953
116.279,0.09088814298441739,-0.09088814298441739
116.28,0.19111396546714088,-0.19111396546714088
116.281,0.26787926290819586,-0.26787926290819586
116.282,0.31300424883746236,-0.31300424883746236
116.283,0.3249078774473264,-0.3249078774473264
116.284,0.30763366842071527,-0.30763366842071527
116.285,0.26865727199162215,-0.26865727199162215
116.286,0.21633440916555946,-0.21633440916555946
116.287,0.15783117310737071,-0.15783117310737071
116.288,0.09808355598173935,-0.09808355598173935
116.289,0.03988977790150705,-0.03988977790150705
116.29,0.015182048613859633,0.015182048613859633
116.291,0.06563997074049843,0.06563997074049843
116.292,0.10924582484790646,0.10924582484790646
116.293,0.14288960295394393,0.14288960295394393
116.294,0.1631924126851627,0.1631924126851627
116.295,0.16755354427043678,0.16755354427043678
116.296,0.155178348522917,0.155178348522917
116.297,0.12764199966058531,0.12764199966058531
116.298,0.0887399589804092,0.0887399589804092
116.299,0.04366219582104325,0.04366219582104325
116.3,0.002211953970618463,-0.002211953970618463
116.301,0.044468476178818106,-0.044468476178818106
116.302,0.08037317064814542,-0.08037317064814542
116.303,0.10894574350841468,-0.10894574350841468
116.304,0.13045124330509572,-0.13045124330509572
116.305,0.14558826895659205,-0.14558826895659205
116.306,0.15475229665557877,-0.15475229665557877
116.307,0.15769363916623946,-0.15769363916623946
116.308,0.15370174261573677,-0.15370174261573677
116.309,0.14221030058923168,-0.14221030058923168
116.31,0.1235287933473882,-0.1235287933473882
116.311,0.0993424539541603,-0.0993424539541603
116.312,0.07271012351567752,-0.07271012351567752
116.313,0.047492873628024235,-0.047492873628024235
116.314,0.027383837838904523,-0.027383837838904523
116.315,0.014885364846424443,-0.014885364846424443
116.316,0.010621070639820651,-0.010621070639820651
116.317,0.013257723748396288,-0.013257723748396288
116.318,0.020085963129398143,-0.020085963129398143
116.319,0.028055860293855983,-0.028055860293855983
116.32,0.03488191808054486,-0.03488191808054486
116.321,0.03979512374430094,-0.03979512374430094
116.322,0.04364565969758527,-0.04364565969758527
116.323,0.04830488730240623,-0.04830488730240623
116.324,0.05558854154607551,-0.05558854154607551
116.325,0.06612087943859768,-0.06612087943859768
116.326,0.07860396806509773,-0.07860396806509773
116.327,0.08982536674849895,-0.08982536674849895
116.328,0.09547430505868493,-0.09547430505868493
116.329,0.09153457118601505,-0.09153457118601505
116.33,0.0757918476439493,-0.0757918476439493
116.331,0.04892076530065825,-0.04892076530065825
116.332,0.014733579995710122,-0.014733579995710122
116.333,0.020558322426729614,0.020558322426729614
116.334,0.049888477636353956,0.049888477636353956
116.335,0.06722620584628936,0.06722620584628936
116.336,0.06922837937067405,0.06922837937067405
116.337,0.056133841465888956,0.056133841465888956
116.338,0.03162211883428423,0.03162211883428423
116.339,0.0016885771593355692,0.0016885771593355692
116.34,0.027102362631718502,-0.027102362631718502
116.341,0.049438474564274304,-0.049438474564274304
116.342,0.06260408696557662,-0.06260408696557662
116.343,0.06696954111428488,-0.06696954111428488
116.344,0.06553409843231417,-0.06553409843231417
116.345,0.0627304908733608,-0.0627304908733608
116.346,0.06291336793373747,-0.06291336793373747
116.347,0.06901715392129693,-0.06901715392129693
116.348,0.08177107571614761,-0.08177107571614761
116.349,0.09964532535407633,-0.09964532535407633
116.35,0.11945367047416555,-0.11945367047416555
116.351,0.13734107516545968,-0.13734107516545968
116.352,0.1498015779537203,-0.1498015779537203
116.353,0.15441821755446605,-0.15441821755446605
116.354,0.15016210638315564,-0.15016210638315564
116.355,0.13726817149462633,-0.13726817149462633
116.356,0.11685026710558233,-0.11685026710558233
116.357,0.09047790929171384,-0.09047790929171384
116.358,0.05989779507778281,-0.05989779507778281
116.359,0.026972210499019766,-0.026972210499019766
116.36,0.00622327594590355,0.00622327594590355
116.361,0.03729140416802412,0.03729140416802412
116.362,0.06355649849835387,0.06355649849835387
116.363,0.0823537977300528,0.0823537977300528
116.364,0.09153914766184523,0.09153914766184523
116.365,0.09007289950266095,0.09007289950266095
116.366,0.07846330248683153,0.07846330248683153
116.367,0.05887001526932156,0.05887001526932156
116.368,0.03476644636762227,0.03476644636762227
116.369,0.010206462950527628,0.010206462950527628
116.37,0.011117279924518164,-0.011117279924518164
116.371,0.0267526662091907,-0.0267526662091907
116.372,0.036041353281016764,-0.036041353281016764
116.373,0.04017876966420486,-0.04017876966420486
116.374,0.04176658721953985,-0.04176658721953985
116.375,0.04399919141009301,-0.04399919141009301
116.376,0.049731089702123366,-0.049731089702123366
116.377,0.0606932681994391,-0.0606932681994391
116.378,0.07706045602465073,-0.07706045602465073
116.379,0.09744634527424978,-0.09744634527424978
116.38,0.11926764930766376,-0.11926764930766376
116.381,0.13931892202954377,-0.13931892202954377
116.382,0.15436950157113682,-0.15436950157113682
116.383,0.16163485982595027,-0.16163485982595027
116.384,0.1590623269512348,-0.1590623269512348
116.385,0.14546421157335254,-0.14546421157335254
116.386,0.12058892182119352,-0.12058892182119352
116.387,0.08521914636267769,-0.08521914636267769
116.388,0.04132840615912181,-0.04132840615912181
116.389,0.007758521188654832,0.007758521188654832
116.39,0.05732789258499982,0.05732789258499982
116.391,0.10150876766679207,0.10150876766679207
116.392,0.13387077493534894,0.13387077493534894
116.393,0.14837362828476808,0.14837362828476808
116.394,0.14051887016493314,0.14051887016493314
116.395,0.10844415517033457,0.10844415517033457
116.396,0.05366032299162504,0.05366032299162504
116.397,0.018815296815416604,-0.018815296815416604
116.398,0.10103781820873592,-0.10103781820873592
116.399,0.18334986403523768,-0.18334986403523768
116.4,0.2559817519175579,-0.2559817519175579
116.401,0.3106756856303945,-0.3106756856303945
116.402,0.3419629991215388,-0.3419629991215388
116.403,0.3478177720149592,-0.3478177720149592
116.404,0.32957957154948136,-0.32957957154948136
116.405,0.2912307959474639,-0.2912307959474639
116.406,0.2382725420390459,-0.2382725420390459
116.407,0.176522449143257,-0.176522449143257
116.408,0.11114043392555106,-0.11114043392555106
116.409,0.046086235071542414,-0.046086235071542414
116.41,0.015936401553528157,0.015936401553528157
116.411,0.07314173587828954,0.07314173587828954
116.412,0.12412583545673583,0.12412583545673583
116.413,0.1673602286887934,0.1673602286887934
116.414,0.20090442263502828,0.20090442263502828
116.415,0.22243616525548826,0.22243616525548826
116.416,0.22959008209028142,0.22959008209028142
116.417,0.2205024652267249,0.2205024652267249
116.418,0.19440619305640272,0.19440619305640272
116.419,0.15211329827039433,0.15211329827039433
116.42,0.09625700723371167,0.09625700723371167
116.421,0.03122403620387293,0.03122403620387293
116.422,0.037226790343649285,-0.037226790343649285
116.423,0.10260632275523673,-0.10260632275523673
116.424,0.15850237241708587,-0.15850237241708587
116.425,0.1994330001877136,-0.1994330001877136
116.426,0.2216172438057118,-0.2216172438057118
116.427,0.22354020560861088,-0.22354020560861088
116.428,0.20621052370877035,-0.20621052370877035
116.429,0.17304699075714447,-0.17304699075714447
116.43,0.1293872923326096,-0.1293872923326096
116.431,0.08167982740863422,-0.08167982740863422
116.432,0.036486816139990275,-0.036486816139990275
116.433,0.0005239503341776253,0.0005239503341776253
116.434,0.02540722975398424,0.02540722975398424
116.435,0.036427541898125915,0.036427541898125915
116.436,0.034117643789499,0.034117643789499
116.437,0.020919113413163215,0.020919113413163215
116.438,0.00051361994361665,0.00051361994361665
116.439,0.02297850901499665,-0.02297850901499665
116.44,0.04573846837827367,-0.04573846837827367
116.441,0.06477258730931157,-0.06477258730931157
116.442,0.07814546831894409,-0.07814546831894409
116.443,0.08494504503400913,-0.08494504503400913
116.444,0.08507997842743831,-0.08507997842743831
116.445,0.07904302661250528,-0.07904302661250528
116.446,0.06775239203160521,-0.06775239203160521
116.447,0.052517175578886355,-0.052517175578886355
116.448,0.035090681969449866,-0.035090681969449866
116.449,0.017711128591557657,-0.017711128591557657
116.45,0.003011753052509003,-0.003011753052509003
116.451,0.006277827299575156,0.006277827299575156
116.452,0.007831885453058351,0.007831885453058351
116.453,0.0003240893219729202,0.0003240893219729202
116.454,0.016061703029417118,-0.016061703029417118
116.455,0.03939990614135813,-0.03939990614135813
116.456,0.06620769795848624,-0.06620769795848624
116.457,0.09206505019776168,-0.09206505019776168
116.458,0.11254939762452221,-0.11254939762452221
116.459,0.12424843818166975,-0.12424843818166975
116.46,0.12556660652865792,-0.12556660652865792
116.461,0.1170824432132791,-0.1170824432132791
116.462,0.10133744695712887,-0.10133744695712887
116.463,0.0821054437464318,-0.0821054437464318
116.464,0.06335124635424072,-0.06335124635424072
116.465,0.048185403771324076,-0.048185403771324076
116.466,0.038124200643897654,-0.038124200643897654
116.467,0.032868024832483855,-0.032868024832483855
116.468,0.030646883879308473,-0.030646883879308473
116.469,0.029002503880526387,-0.029002503880526387
116.47,0.025740778332831726,-0.025740778332831726
116.471,0.01974064238834694,-0.01974064238834694
116.472,0.011360623866671582,-0.011360623866671582
116.473,0.002322871092164669,-0.002322871092164669
116.474,0.004870754996547877,0.004870754996547877
116.475,0.007783537138487562,0.007783537138487562
116.476,0.004862881090111015,0.004862881090111015
116.477,0.00403581620636817,-0.00403581620636817
116.478,0.017583066867697617,-0.017583066867697617
116.479,0.033372317922219064,-0.033372317922219064
116.48,0.048631896701749944,-0.048631896701749944
116.481,0.06100559279496631,-0.06100559279496631
116.482,0.06914444594297087,-0.06914444594297087
116.483,0.07292897040810165,-0.07292897040810165
116.484,0.07327629621427167,-0.07327629621427167
116.485,0.07163202309399963,-0.07163202309399963
116.486,0.06935132192019045,-0.06935132192019045
116.487,0.0672027308521016,-0.0672027308521016
116.488,0.06517312487682969,-0.06517312487682969
116.489,0.06263479793455329,-0.06263479793455329
116.49,0.05879817636491891,-0.05879817636491891
116.491,0.053265290606614446,-0.053265290606614446
116.492,0.04645792145686789,-0.04645792145686789
116.493,0.039734750213144654,-0.039734750213144654
116.494,0.03511999594613713,-0.03511999594613713
116.495,0.03470480004731735,-0.03470480004731735
116.496,0.03990450917347965,-0.03990450917347965
116.497,0.05081820902819656,-0.05081820902819656
116.498,0.06591916701651812,-0.06591916701651812
116.499,0.08221078111428126,-0.08221078111428126
116.5,0.09584168521795089,-0.09584168521795089
116.501,0.10303038889744831,-0.10303038889744831
116.502,0.10104936713098145,-0.10104936713098145
116.503,0.08899224560377594,-0.08899224560377594
116.504,0.06810369793431048,-0.06810369793431048
116.505,0.04157262061454414,-0.04157262061454414
116.506,0.01383845860148658,-0.01383845860148658
116.507,0.0104060590374766,0.0104060590374766
116.508,0.02725339308110497,0.02725339308110497
116.509,0.034394814311440314,0.034394814311440314
116.51,0.031513267020714775,0.031513267020714775
116.511,0.020180662352161427,0.020180662352161427
116.512,0.003320254518195842,0.003320254518195842
116.513,0.015594285469685998,-0.015594285469685998
116.514,0.03337484154142156,-0.03337484154142156
116.515,0.047771888125560436,-0.047771888125560436
116.516,0.05779648080271049,-0.05779648080271049
116.517,0.0636685523621966,-0.0636685523621966
116.518,0.06645711197964221,-0.06645711197964221
116.519,0.06755745055087958,-0.06755745055087958
116.52,0.06818013912232956,-0.06818013912232956
116.521,0.06900152486264322,-0.06900152486264322
116.522,0.07005743080506188,-0.07005743080506188
116.523,0.07087511502685095,-0.07087511502685095
116.524,0.07076193320211843,-0.07076193320211843
116.525,0.06912657986558224,-0.06912657986558224
116.526,0.06571211589071468,-0.06571211589071468
116.527,0.06066541676335779,-0.06066541676335779
116.528,0.05443726263576243,-0.05443726263576243
116.529,0.04757511983688667,-0.04757511983688667
116.53,0.040511697745280295,-0.040511697745280295
116.531,0.0334511848699347,-0.0334511848699347
116.532,0.026411558763678622,-0.026411558763678622
116.533,0.019411289151650468,-0.019411289151650468
116.534,0.012718742220701795,-0.012718742220701795
116.535,0.007040951853712896,-0.007040951853712896
116.536,0.0035347131532199594,-0.0035347131532199594
116.537,0.0035799631890502948,-0.0035799631890502948
116.538,0.00834659264500448,-0.00834659264500448
116.539,0.01827960002166029,-0.01827960002166029
116.54,0.03268751310425,-0.03268751310425
116.541,0.04961721967260213,-0.04961721967260213
116.542,0.06612642694435744,-0.06612642694435744
116.543,0.07893965464369179,-0.07893965464369179
116.544,0.08533359943753782,-0.08533359943753782
116.545,0.08399187700903976,-0.08399187700903976
116.546,0.07554030219306151,-0.07554030219306151
116.547,0.06254235550996656,-0.06254235550996656
116.548,0.04888838899819958,-0.04888838899819958
116.549,0.038707903291848256,-0.038707903291848256
116.55,0.03510870513771025,-0.03510870513771025
116.551,0.03913732013872362,-0.03913732013872362
116.552,0.049321674759155165,-0.049321674759155165
116.553,0.06199857675852827,-0.06199857675852827
116.554,0.07238667649928321,-0.07238667649928321
116.555,0.0761146206845601,-0.0761146206845601
116.556,0.07073801661641865,-0.07073801661641865
116.557,0.05674334705144035,-0.05674334705144035
116.558,0.03766558187253577,-0.03766558187253577
116.559,0.019208794001234875,-0.019208794001234875
116.56,0.007578099175210351,-0.007578099175210351
116.561,0.00750470564224881,-0.00750470564224881
116.562,0.02058009033327013,-0.02058009033327013
116.563,0.04445702425718301,-0.04445702425718301
116.564,0.0732318167359508,-0.0732318167359508
116.565,0.09896292255249406,-0.09896292255249406
116.566,0.11391705740398739,-0.11391705740398739
116.567,0.11288328846329665,-0.11288328846329665
116.568,0.09484439541702683,-0.09484439541702683
116.569,0.06346753317958309,-0.06346753317958309
116.57,0.026225096019670713,-0.026225096019670713
116.571,0.007624923921955906,0.007624923921955906
116.572,0.02961393975088389,0.02961393975088389
116.573,0.03442943343847049,0.03442943343847049
116.574,0.021367717906763062,0.021367717906763062
116.575,0.0055542730760446135,-0.0055542730760446135
116.576,0.03884404833167754,-0.03884404833167754
116.577,0.06973826200462652,-0.06973826200462652
116.578,0.090686041686032,-0.090686041686032
116.579,0.09736398738376073,-0.09736398738376073
116.58,0.08964485800189004,-0.08964485800189004
116.581,0.07128644074223278,-0.07128644074223278
116.582,0.04851184101663397,-0.04851184101663397
116.583,0.02798543697688438,-0.02798543697688438
116.584,0.014845412795187918,-0.014845412795187918
116.585,0.011391065543322587,-0.011391065543322587
116.586,0.016772096794528624,-0.016772096794528624
116.587,0.027680290096675497,-0.027680290096675497
116.588,0.039721638684096505,-0.039721638684096505
116.589,0.04895524298419929,-0.04895524298419929
116.59,0.05308025820400086,-0.05308025820400086
116.591,0.05192270549682054,-0.05192270549682054
116.592,0.047148605084023854,-0.047148605084023854
116.593,0.04140483289023955,-0.04140483289023955
116.594,0.037266655294361906,-0.037266655294361906
116.595,0.036394367788872284,-0.036394367788872284
116.596,0.03917390553450628,-0.03917390553450628
116.597,0.044896718599464314,-0.044896718599464314
116.598,0.05231321748683293,-0.05231321748683293
116.599,0.06025844818939541,-0.06025844818939541
116.6,0.06804817922810935,-0.06804817922810935
116.601,0.07547287817150528,-0.07547287817150528
116.602,0.08241869304780503,-0.08241869304780503
116.603,0.08833234877037677,-0.08833234877037677
116.604,0.09184022113376489,-0.09184022113376489
116.605,0.09078796032641367,-0.09078796032641367
116.606,0.08279855508093781,-0.08279855508093781
116.607,0.06621792152498784,-0.06621792152498784
116.608,0.041119709782170166,-0.041119709782170166
116.609,0.00995882042850571,-0.00995882042850571
116.61,0.022461408310441522,0.022461408310441522
116.611,0.04982740290185439,0.04982740290185439
116.612,0.06579427419809303,0.06579427419809303
116.613,0.06569216440711845,0.06569216440711845
116.614,0.0479283759146365,0.0479283759146365
116.615,0.014616767459126656,0.014616767459126656
116.616,0.02880306136814459,-0.02880306136814459
116.617,0.07487101846423216,-0.07487101846423216
116.618,0.11594681127074546,-0.11594681127074546
116.619,0.14601993028754312,-0.14601993028754312
116.62,0.1619401248747948,-0.1619401248747948
116.621,0.16372383616667063,-0.16372383616667063
116.622,0.15391353940410823,-0.15391353940410823
116.623,0.1362905329997739,-0.1362905329997739
116.624,0.1144509690400638,-0.1144509690400638
116.625,0.09077440230344269,-0.09077440230344269
116.626,0.06613764922867449,-0.06613764922867449
116.627,0.04042052622834014,-0.04042052622834014
116.628,0.013529177104256052,-0.013529177104256052
116.629,0.013550887310838533,0.013550887310838533
116.63,0.0381828385503169,0.0381828385503169
116.631,0.05631775833557939,0.05631775833557939
116.632,0.06355461043244115,0.06355461043244115
116.633,0.05668879529352888,0.05668879529352888
116.634,0.035184712737624135,0.035184712737624135
116.635,0.0019787198826834995,0.0019787198826834995
116.636,0.036785315468933044,-0.036785315468933044
116.637,0.07312642510220335,-0.07312642510220335
116.638,0.09934321667065782,-0.09934321667065782
116.639,0.11022368321497089,-0.11022368321497089
116.64,0.10461779935301962,-0.10461779935301962
116.641,0.0858190537545831,-0.0858190537545831
116.642,0.06057906117041867,-0.06057906117041867
116.643,0.03703314514794198,-0.03703314514794198
116.644,0.0221879776521533,-0.0221879776521533
116.645,0.019782976532683794,-0.019782976532683794
116.646,0.029224726679513924,-0.029224726679513924
116.647,0.045941985855771694,-0.045941985855771694
116.648,0.06303553888402091,-0.06303553888402091
116.649,0.07366369727816424,-0.07366369727816424
116.65,0.0733597314975083,-0.0733597314975083
116.651,0.061506561074980426,-0.061506561074980426
116.652,0.04148674274589503,-0.04148674274589503
116.653,0.019480943381322224,-0.019480943381322224
116.654,0.0023482074516359974,-0.0023482074516359974
116.655,0.004672303111125986,0.004672303111125986
116.656,0.0003495713390173627,-0.0003495713390173627
116.657,0.015518107868647935,-0.015518107868647935
116.658,0.0359138212188459,-0.0359138212188459
116.659,0.05540021876090229,-0.05540021876090229
116.66,0.06877624241680058,-0.06877624241680058
116.661,0.07350655220596591,-0.07350655220596591
116.662,0.07042418077630397,-0.07042418077630397
116.663,0.06317402931744442,-0.06317402931744442
116.664,0.05661793535821813,-0.05661793535821813
116.665,0.054793139098566646,-0.054793139098566646
116.666,0.059176194306699514,-0.059176194306699514
116.667,0.06789875154771818,-0.06789875154771818
116.668,0.07622832385193423,-0.07622832385193423
116.669,0.07818302617314488,-0.07818302617314488
116.67,0.06874849091772262,-0.06874849091772262
116.671,0.0459452780872005,-0.0459452780872005
116.672,0.01203003820962667,-0.01203003820962667
116.673,0.026610478427132378,0.026610478427132378
116.674,0.060891916987942496,0.060891916987942496
116.675,0.08138548776935939,0.08138548776935939
116.676,0.08089677338630574,0.08089677338630574
116.677,0.05651202884250961,0.05651202884250961
116.678,0.010529061646191273,0.010529061646191273
116.679,0.04996304211381386,-0.04996304211381386
116.68,0.11469094456236073,-0.11469094456236073
116.681,0.172502309614055,-0.172502309614055
116.682,0.21372792940910124,-0.21372792940910124
116.683,0.2320099468661958,-0.2320099468661958
116.684,0.22522242877076348,-0.22522242877076348
116.685,0.1954063777314149,-0.1954063777314149
116.686,0.147912127257116,-0.147912127257116
116.687,0.0901054447190981,-0.0901054447190981
116.688,0.030015000039877893,-0.030015000039877893
116.689,0.024801520478310524,0.024801520478310524
116.69,0.06805604190802383,0.06805604190802383
116.691,0.09522328287334725,0.09522328287334725
116.692,0.10383343843525061,0.10383343843525061
116.693,0.09365482455912266,0.09365482455912266
116.694,0.06677742071265524,0.06677742071265524
116.695,0.027517501220071683,0.027517501220071683
116.696,0.017980645744067325,-0.017980645744067325
116.697,0.06253208578394032,-0.06253208578394032
116.698,0.09905737527807001,-0.09905737527807001
116.699,0.12190422619009611,-0.12190422619009611
116.7,0.12803676272593445,-0.12803676272593445
116.701,0.11774863264970115,-0.11774863264970115
116.702,0.09464009914839455,-0.09464009914839455
116.703,0.06478869376503338,-0.06478869376503338
116.704,0.03528136860282438,-0.03528136860282438
116.705,0.012483084101861608,-0.012483084101861608
116.706,0.0005175489525355292,-0.0005175489525355292
116.707,0.00038904762217106814,-0.00038904762217106814
116.708,0.009988710758363495,-0.009988710758363495
116.709,0.024961680278066778,-0.024961680278066778
116.71,0.04015039444646673,-0.04015039444646673
116.711,0.05116000914714269,-0.05116000914714269
116.712,0.0555701922415881,-0.0555701922415881
116.713,0.05344829013381758,-0.05344829013381758
116.714,0.047055498918362026,-0.047055498918362026
116.715,0.03989858389373946,-0.03989858389373946
116.716,0.035477345949680994,-0.035477345949680994
116.717,0.03614950126815564,-0.03614950126815564
116.718,0.04246273090796748,-0.04246273090796748
116.719,0.053121257607360306,-0.053121257607360306
116.72,0.0655307890516198,-0.0655307890516198
116.721,0.07668074721904838,-0.07668074721904838
116.722,0.08403760657718429,-0.08403760657718429
116.723,0.086159638406065,-0.086159638406065
116.724,0.08287793844798685,-0.08287793844798685
116.725,0.07506368989961165,-0.07506368989961165
116.726,0.06414861416923834,-0.06414861416923834
116.727,0.051631211100249486,-0.051631211100249486
116.728,0.03876709411756396,-0.03876709411756396
116.729,0.02652902895431275,-0.02652902895431275
116.73,0.01578276509428367,-0.01578276509428367
116.731,0.007518645984995187,-0.007518645984995187
116.732,0.0029510381296591337,-0.0029510381296591337
116.733,0.003359486725838079,-0.003359486725838079
116.734,0.009671425794872124,-0.009671425794872124
116.735,0.021923487262451413,-0.021923487262451413
116.736,0.03882821727248498,-0.03882821727248498
116.737,0.05767397654931039,-0.05767397654931039
116.738,0.07469079251770572,-0.07469079251770572
116.739,0.0858545814684526,-0.0858545814684526
116.74,0.08793405883511152,-0.08793405883511152
116.741,0.07947204075963954,-0.07947204075963954
116.742,0.061380874480569836,-0.061380874480569836
116.743,0.036930286800295864,-0.036930286800295864
116.744,0.011085292399477975,-0.011085292399477975
116.745,0.010647117565996567,0.010647117565996567
116.746,0.023548490481969386,0.023548490481969386
116.747,0.02482515912891614,0.02482515912891614
116.748,0.014237612728063676,0.014237612728063676
116.749,0.005935422287405068,-0.005935422287405068
116.75,0.03155934002429939,-0.03155934002429939
116.751,0.057717801617448994,-0.057717801617448994
116.752,0.07988392264310307,-0.07988392264310307
116.753,0.09487531499565882,-0.09487531499565882
116.754,0.10137362470985767,-0.10137362470985767
116.755,0.09993637109053288,-0.09993637109053288
116.756,0.09257681172643051,-0.09257681172643051
116.757,0.082089557505724,-0.082089557505724
116.758,0.07133075905535613,-0.07133075905535613
116.759,0.06262499886108985,-0.06262499886108985
116.76,0.05739307060765986,-0.05739307060765986
116.761,0.056012366179843176,-0.056012366179843176
116.762,0.05786578269323239,-0.05786578269323239
116.763,0.06151949748209207,-0.06151949748209207
116.764,0.06498718257613345,-0.06498718257613345
116.765,0.06606571371693704,-0.06606571371693704
116.766,0.06273997418603461,-0.06273997418603461
116.767,0.053637266113604865,-0.053637266113604865
116.768,0.03846897041445596,-0.03846897041445596
116.769,0.01835006198013378,-0.01835006198013378
116.77,0.004134189448341763,0.004134189448341763
116.771,0.025216564002737307,0.025216564002737307
116.772,0.0406102888536386,0.0406102888536386
116.773,0.04644601440337803,0.04644601440337803
116.774,0.04026970309874778,0.04026970309874778
116.775,0.021823583040534,0.021823583040534
116.776,0.006648023292749161,-0.006648023292749161
116.777,0.040715990648805045,-0.040715990648805045
116.778,0.07468047669056577,-0.07468047669056577
116.779,0.10287011392255618,-0.10287011392255618
116.78,0.12098072105935898,-0.12098072105935898
116.781,0.12707522035254004,-0.12707522035254004
116.782,0.12195280068246783,-0.12195280068246783
116.783,0.10877844955370064,-0.10877844955370064
116.784,0.09208699163816136,-0.09208699163816136
116.785,0.07646604992001449,-0.07646604992001449
116.786,0.06531637753006847,-0.06531637753006847
116.787,0.060053966601430586,-0.060053966601430586
116.788,0.059967816804507246,-0.059967816804507246
116.789,0.06273167680143688,-0.06273167680143688
116.79,0.06536087097299415,-0.06536087097299415
116.791,0.06527602439098179,-0.06527602439098179
116.792,0.06112523097608358,-0.06112523097608358
116.793,0.05312346028667425,-0.05312346028667425
116.794,0.04284988528466138,-0.04284988528466138
116.795,0.03263240134361922,-0.03263240134361922
116.796,0.024776216857205546,-0.024776216857205546
116.797,0.020917493697773626,-0.020917493697773626
116.798,0.02170139544576688,-0.02170139544576688
116.799,0.026834502085014145,-0.026834502085014145
116.8,0.03540702254188499,-0.03540702254188499
116.801,0.046283155519787234,-0.046283155519787234
116.802,0.05835616501040963,-0.05835616501040963
116.803,0.07055638652677365,-0.07055638652677365
116.804,0.08164446737189479,-0.08164446737189479
116.805,0.08995468397196671,-0.08995468397196671
116.806,0.09331288114745517,-0.09331288114745517
116.807,0.08930722236039934,-0.08930722236039934
116.808,0.07594746526599983,-0.07594746526599983
116.809,0.052561494864681535,-0.052561494864681535
116.81,0.020621497499286545,-0.020621497499286545
116.811,0.015863356321996314,0.015863356321996314
116.812,0.05066852550520751,0.05066852550520751
116.813,0.07646398724804349,0.07646398724804349
116.814,0.08651769662645248,0.08651769662645248
116.815,0.07655951626301949,0.07655951626301949
116.816,0.0462539809328002,0.0462539809328002
116.817,0.00021444279564120095,-0.00021444279564120095
116.818,0.05471432917008412,-0.05471432917008412
116.819,0.10683651421318807,-0.10683651421318807
116.82,0.14626164937877717,-0.14626164937877717
116.821,0.16519927492922015,-0.16519927492922015
116.822,0.16022857039302674,-0.16022857039302674
116.823,0.1330331783562837,-0.1330331783562837
116.824,0.08984188501348112,-0.08984188501348112
116.825,0.039762928013330034,-0.039762928013330034
116.826,0.007487313651991512,0.007487313651991512
116.827,0.04380895020767439,0.04380895020767439
116.828,0.06429831763920069,0.06429831763920069
116.829,0.06781984757518433,0.06781984757518433
116.83,0.05653969942097081,0.05653969942097081
116.831,0.03470731414246275,0.03470731414246275
116.832,0.007167995742504374,0.007167995742504374
116.833,0.021891191023126755,-0.021891191023126755
116.834,0.0496125172474603,-0.0496125172474603
116.835,0.07446444902429494,-0.07446444902429494
116.836,0.09573695369051949,-0.09573695369051949
116.837,0.11287972722835526,-0.11287972722835526
116.838,0.12504822705729823,-0.12504822705729823
116.839,0.13109138467863413,-0.13109138467863413
116.84,0.129990377441363,-0.129990377441363
116.841,0.12153302841860214,-0.12153302841860214
116.842,0.10687591765959736,-0.10687591765959736
116.843,0.08866269348524747,-0.08866269348524747
116.844,0.0705307448271657,-0.0705307448271657
116.845,0.05608915085820043,-0.05608915085820043
116.846,0.047691672302271004,-0.047691672302271004
116.847,0.04546179664973182,-0.04546179664973182
116.848,0.046991395111010914,-0.046991395111010914
116.849,0.04793057107907117,-0.04793057107907117
116.85,0.04337790636196137,-0.04337790636196137
116.851,0.0296747224648658,-0.0296747224648658
116.852,0.006016937656341148,-0.006016937656341148
116.853,0.024698902844437987,0.024698902844437987
116.854,0.056170238625401714,0.056170238625401714
116.855,0.08014407715922633,0.08014407715922633
116.856,0.08866750528565426,0.08866750528565426
116.857,0.07647929012186361,0.07647929012186361
116.858,0.042801735167546484,0.042801735167546484
116.859,0.008056398275224308,-0.008056398275224308
116.86,0.0675261889563955,-0.0675261889563955
116.861,0.12483677335317345,-0.12483677335317345
116.862,0.1697225434237687,-0.1697225434237687
116.863,0.19498876139798527,-0.19498876139798527
116.864,0.19818468521558874,-0.19818468521558874
116.865,0.18190913736867376,-0.18190913736867376
116.866,0.1526972420969993,-0.1526972420969993
116.867,0.11887243015376481,-0.11887243015376481
116.868,0.08805525875858355,-0.08805525875858355
116.869,0.06510335333339778,-0.06510335333339778
116.87,0.05109222651021561,-0.05109222651021561
116.871,0.043592932320577926,-0.043592932320577926
116.872,0.038077979379011806,-0.038077979379011806
116.873,0.029930683755160836,-0.029930683755160836
116.874,0.016358709096275903,-0.016358709096275903
116.875,0.0024287714666977323,0.0024287714666977323
116.876,0.02315529462367638,0.02315529462367638
116.877,0.040518414689869386,0.040518414689869386
116.878,0.04896830827041643,0.04896830827041643
116.879,0.044621102120055545,0.044621102120055545
116.88,0.02667570428021815,0.02667570428021815
116.881,0.0021196227760170716,-0.0021196227760170716
116.882,0.03608682437472022,-0.03608682437472022
116.883,0.06811044933801935,-0.06811044933801935
116.884,0.09152391163163753,-0.09152391163163753
116.885,0.10181074971309811,-0.10181074971309811
116.886,0.0976317041942627,-0.0976317041942627
116.887,0.08092784638981798,-0.08092784638981798
116.888,0.05615190024662475,-0.05615190024662475
116.889,0.028941301641919104,-0.028941301641919104
116.89,0.004684163312846379,-0.004684163312846379
116.891,0.01259315536658745,0.01259315536658745
116.892,0.020750167464725244,0.020750167464725244
116.893,0.019435515336943432,0.019435515336943432
116.894,0.009554860098548446,0.009554860098548446
116.895,0.0073862268700461975,-0.0073862268700461975
116.896,0.029761213606034786,-0.029761213606034786
116.897,0.055947845347691705,-0.055947845347691705
116.898,0.08411580490535175,-0.08411580490535175
116.899,0.11186968585800239,-0.11186968585800239
116.9,0.13602997732401412,-0.13602997732401412
116.901,0.15279941284196985,-0.15279941284196985
116.902,0.15841149452990488,-0.15841149452990488
116.903,0.15014723062188573,-0.15014723062188573
116.904,0.12741552654087374,-0.12741552654087374
116.905,0.092499029368733,-0.092499029368733
116.906,0.05061536411700307,-0.05061536411700307
116.907,0.009128902461238986,-0.009128902461238986
116.908,0.023984237306433398,0.023984237306433398
116.909,0.04205290423319252,0.04205290423319252
116.91,0.04147838783161362,0.04147838783161362
116.911,0.02281582528929227,0.02281582528929227
116.912,0.00920014607000097,-0.00920014607000097
116.913,0.046759134249228174,-0.046759134249228174
116.914,0.0809454860066281,-0.0809454860066281
116.915,0.10404184685049367,-0.10404184685049367
116.916,0.1115146751245224,-0.1115146751245224
116.917,0.10310873938642395,-0.10310873938642395
116.918,0.08273225090758818,-0.08273225090758818
116.919,0.05717005956613064,-0.05717005956613064
116.92,0.03401076072224596,-0.03401076072224596
116.921,0.019406948765165133,-0.019406948765165133
116.922,0.016333490202498524,-0.016333490202498524
116.923,0.02385205069780716,-0.02385205069780716
116.924,0.03757971355804557,-0.03757971355804557
116.925,0.051191766507348024,-0.051191766507348024
116.926,0.05847751836652526,-0.05847751836652526
116.927,0.05530889381203086,-0.05530889381203086
116.928,0.04092182242655096,-0.04092182242655096
116.929,0.01813462414517042,-0.01813462414517042
116.93,0.007536997024707004,0.007536997024707004
116.931,0.02956843967679701,0.02956843967679701
116.932,0.0423790610683743,0.0423790610683743
116.933,0.04294440866181071,0.04294440866181071
116.934,0.031586510188085004,0.031586510188085004
116.935,0.011730383768761454,0.011730383768761454
116.936,0.011258385933272108,-0.011258385933272108
116.937,0.03176052526482043,-0.03176052526482043
116.938,0.04557369210191664,-0.04557369210191664
116.939,0.05105469841060872,-0.05105469841060872
116.94,0.049409056642897076,-0.049409056642897076
116.941,0.04408501353675909,-0.04408501353675909
116.942,0.03951106884304767,-0.03951106884304767
116.943,0.039608516883259615,-0.039608516883259615
116.944,0.046556495279975185,-0.046556495279975185
116.945,0.06017884617260583,-0.06017884617260583
116.946,0.07810251842152027,-0.07810251842152027
116.947,0.09658318854145609,-0.09658318854145609
116.948,0.11168959840265436,-0.11168959840265436
116.949,0.12044734847243277,-0.12044734847243277
116.95,0.12158814536531726,-0.12158814536531726
116.951,0.11570785477221113,-0.11570785477221113
116.952,0.10484609039472759,-0.10484609039472759
116.953,0.09168751616945225,-0.09168751616945225
116.954,0.07868873388147946,-0.07868873388147946
116.955,0.06742558239648666,-0.06742558239648666
116.956,0.05834605366123358,-0.05834605366123358
116.957,0.05095062838071507,-0.05095062838071507
116.958,0.04426752440299153,-0.04426752440299153
116.959,0.03740054475420573,-0.03740054475420573
116.96,0.02992997386076257,-0.02992997386076257
116.961,0.022033919414699787,-0.022033919414699787
116.962,0.014328560310349792,-0.014328560310349792
116.963,0.007545693775276141,-0.007545693775276141
116.964,0.0022262498894533023,-0.0022262498894533023
116.965,0.0014138391941811435,0.0014138391941811435
116.966,0.0033823787072662093,0.0033823787072662093
116.967,0.00363451450771457,0.00363451450771457
116.968,0.0017803865167713706,0.0017803865167713706
116.969,0.003034945671908207,-0.003034945671908207
116.97,0.011949751099107342,-0.011949751099107342
116.971,0.025900440276072745,-0.025900440276072745
116.972,0.0449794899091005,-0.0449794899091005
116.973,0.06788974315793395,-0.06788974315793395
116.974,0.09176339272006617,-0.09176339272006617
116.975,0.112519456637029,-0.112519456637029
116.976,0.1257536514424652,-0.1257536514424652
116.977,0.12794940585743086,-0.12794940585743086
116.978,0.11764429930096021,-0.11764429930096021
116.979,0.09614659879089504,-0.09614659879089504
116.98,0.06749905231919862,-0.06749905231919862
116.981,0.03760898003683133,-0.03760898003683133
116.982,0.012736879392539646,-0.012736879392539646
116.983,0.0022318355482162655,0.0022318355482162655
116.984,0.005200228953622155,0.005200228953622155
116.985,0.002508855960961065,-0.002508855960961065
116.986,0.016545310065840924,-0.016545310065840924
116.987,0.030870337425135452,-0.030870337425135452
116.988,0.039652950148909794,-0.039652950148909794
116.989,0.03913984869409237,-0.03913984869409237
116.99,0.028902495998569533,-0.028902495998569533
116.991,0.012048991589284963,-0.012048991589284963
116.992,0.005687431346960148,0.005687431346960148
116.993,0.01771090944214948,0.01771090944214948
116.994,0.018626159873641246,0.018626159873641246
116.995,0.0059505151402503564,0.0059505151402503564
116.996,0.019066364859292584,-0.019066364859292584
116.997,0.051768119881331565,-0.051768119881331565
116.998,0.08544512721248343,-0.08544512721248343
116.999,0.11326862809804628,-0.11326862809804628
117.0,0.13017973151057927,-0.13017973151057927
117.001,0.13413864087312577,-0.13413864087312577
117.002,0.12636803456636436,-0.12636803456636436
117.003,0.11057089271716614,-0.11057089271716614
117.004,0.09144767067317949,-0.09144767067317949
117.005,0.07306241175922823,-0.07306241175922823
117.006,0.05763625144209217,-0.05763625144209217
117.007,0.04517239677760865,-0.04517239677760865
117.008,0.034002654314034486,-0.034002654314034486
117.009,0.02200418928550385,-0.02200418928550385
117.01,0.00798801693623663,-0.00798801693623663
117.011,0.007304023267645787,0.007304023267645787
117.012,0.02101561209869285,0.02101561209869285
117.013,0.028929033785494607,0.028929033785494607
117.014,0.026928376179781832,0.026928376179781832
117.015,0.012669076273496893,0.012669076273496893
117.016,0.013154029082669938,-0.013154029082669938
117.017,0.046438460962963446,-0.046438460962963446
117.018,0.08041464531102571,-0.08041464531102571
117.019,0.10733197844880493,-0.10733197844880493
117.02,0.1205987914020955,-0.1205987914020955
117.021,0.11671327416814159,-0.11671327416814159
117.022,0.09636861191994239,-0.09636861191994239
117.023,0.06436629041562902,-0.06436629041562902
117.024,0.028344695189930103,-0.028344695189930103
117.025,0.0032973427464690896,0.0032973427464690896
117.026,0.023652856500875563,0.023652856500875563
117.027,0.02905958193188618,0.02905958193188618
117.028,0.01984737825065519,0.01984737825065519
117.029,0.00010000144040500647,-0.00010000144040500647
117.03,0.024776215975433002,-0.024776215975433002
117.031,0.04798597585388942,-0.04798597585388942
117.032,0.06516012241657199,-0.06516012241657199
117.033,0.07450404484091266,-0.07450404484091266
117.034,0.07717408980176421,-0.07717408980176421
117.035,0.076502186073373,-0.076502186073373
117.036,0.07658739372905199,-0.07658739372905199
117.037,0.08074959542573579,-0.08074959542573579
117.038,0.0903460436106539,-0.0903460436106539
117.039,0.10429655374445934,-0.10429655374445934
117.04,0.11941073238460742,-0.11941073238460742
117.041,0.13135131770136133,-0.13135131770136133
117.042,0.13588699980005148,-0.13588699980005148
117.043,0.13003762624214033,-0.13003762624214033
117.044,0.11279720394129578,-0.11279720394129578
117.045,0.08529254167882439,-0.08529254167882439
117.046,0.05042807923376569,-0.05042807923376569
117.047,0.012211378781343707,-0.012211378781343707
117.048,0.02499457331705157,0.02499457331705157
117.049,0.057090981337756475,0.057090981337756475
117.05,0.08064204307100598,0.08064204307100598
117.051,0.09307838579003991,0.09307838579003991
117.052,0.09280630957823699,0.09280630957823699
117.053,0.07932817763136701,0.07932817763136701
117.054,0.0534164936229804,0.0534164936229804
117.055,0.017289434916175628,0.017289434916175628
117.056,0.025341444495486587,-0.025341444495486587
117.057,0.06949714684832575,-0.06949714684832575
117.058,0.10951535830135906,-0.10951535830135906
117.059,0.13995503596798076,-0.13995503596798076
117.06,0.15664561887231354,-0.15664561887231354
117.061,0.15760765891559858,-0.15760765891559858
117.062,0.1435604355131952,-0.1435604355131952
117.063,0.11782238380963284,-0.11782238380963284
117.064,0.08557933574087007,-0.08557933574087007
117.065,0.05268953843081259,-0.05268953843081259
117.066,0.024346299713192132,-0.024346299713192132
117.067,0.003973534425651404,-0.003973534425651404
117.068,0.007336641795837373,0.007336641795837373
117.069,0.010703107211355034,0.010703107211355034
117.07,0.008725478628092587,0.008725478628092587
117.071,0.0044077531227173505,0.0044077531227173505
117.072,9.922025732178597e-05,9.922025732178597e-05
117.073,0.0032068407641390184,-0.0032068407641390184
117.074,0.006012422567873599,-0.006012422567873599
117.075,0.009888483625310807,-0.009888483625310807
117.076,0.016673875621476153,-0.016673875621476153
117.077,0.02761070988392944,-0.02761070988392944
117.078,0.042733667937027264,-0.042733667937027264
117.079,0.06072410650345861,-0.06072410650345861
117.08,0.07926169988970333,-0.07926169988970333
117.081,0.09572313155839651,-0.09572313155839651
117.082,0.10795580794486259,-0.10795580794486259
117.083,0.11483775720839917,-0.11483775720839917
117.084,0.11642666763028953,-0.11642666763028953
117.085,0.11366516103303959,-0.11366516103303959
117.086,0.10778320901267535,-0.10778320901267535
117.087,0.09965627303119529,-0.09965627303119529
117.088,0.08939466401438478,-0.08939466401438478
117.089,0.07634882190465198,-0.07634882190465198
117.09,0.05955006454138512,-0.05955006454138512
117.091,0.038428366395304336,-0.038428366395304336
117.092,0.013525098572359284,-0.013525098572359284
117.093,0.013102385296172026,0.013102385296172026
117.094,0.03799453055654811,0.03799453055654811
117.095,0.05695521003461512,0.05695521003461512
117.096,0.06610339564286871,0.06610339564286871
117.097,0.06299409198136918,0.06299409198136918
117.098,0.04744435235016087,0.04744435235016087
117.099,0.02177629327670849,0.02177629327670849
117.1,0.009634211332757325,-0.009634211332757325
117.101,0.04139501270808099,-0.04139501270808099
117.102,0.06842429993197119,-0.06842429993197119
117.103,0.0871743617009848,-0.0871743617009848
117.104,0.09639146974600077,-0.09639146974600077
117.105,0.09719743904033595,-0.09719743904033595
117.106,0.09249199441431544,-0.09249199441431544
117.107,0.085885406419969,-0.085885406419969
117.108,0.08050992147933622,-0.08050992147933622
117.109,0.07808305634711887,-0.07808305634711887
117.11,0.07850112944491605,-0.07850112944491605
117.111,0.08006174951705347,-0.08006174951705347
117.112,0.08021015616529026,-0.08021015616529026
117.113,0.07654268592727087,-0.07654268592727087
117.114,0.06773123217092825,-0.06773123217092825
117.115,0.054073363125347496,-0.054073363125347496
117.116,0.03750532148549601,-0.03750532148549601
117.117,0.02109238653808254,-0.02109238653808254
117.118,0.00817414609844258,-0.00817414609844258
117.119,0.0014401481517619663,-0.0014401481517619663
117.12,0.0022171869733719207,-0.0022171869733719207
117.121,0.010167307573611728,-0.010167307573611728
117.122,0.02345743433016123,-0.02345743433016123
117.123,0.039314851623260094,-0.039314851623260094
117.124,0.05477426301127686,-0.05477426301127686
117.125,0.06738277981736385,-0.06738277981736385
117.126,0.07566550244109804,-0.07566550244109804
117.127,0.0792484319697434,-0.0792484319697434
117.128,0.0786526376004073,-0.0786526376004073
117.129,0.07487497182125813,-0.07487497182125813
117.13,0.06892562294027582,-0.06892562294027582
117.131,0.06148810268922478,-0.06148810268922478
117.132,0.052809370981004244,-0.052809370981004244
117.133,0.04283915665282001,-0.04283915665282001
117.134,0.03154821578630873,-0.03154821578630873
117.135,0.019293187357949604,-0.019293187357949604
117.136,0.007078527970730164,-0.007078527970730164
117.137,0.0034030316987569975,0.0034030316987569975
117.138,0.010001781413185418,0.010001781413185418
117.139,0.010579405789324925,0.010579405789324925
117.14,0.0036023707011425543,0.0036023707011425543
117.141,0.011300307179958224,-0.011300307179958224
117.142,0.03298190685361413,-0.03298190685361413
117.143,0.058753916569498466,-0.058753916569498466
117.144,0.08474609960701063,-0.08474609960701063
117.145,0.10660858339567414,-0.10660858339567414
117.146,0.12042105906417744,-0.12042105906417744
117.147,0.12360684521291665,-0.12360684521291665
117.148,0.1156265069673823,-0.1156265069673823
117.149,0.09825695615112473,-0.09825695615112473
117.15,0.07534538887811792,-0.07534538887811792
117.151,0.05204772431572746,-0.05204772431572746
117.152,0.033691821281539136,-0.033691821281539136
117.153,0.024514079325913762,-0.024514079325913762
117.154,0.026573275598451795,-0.026573275598451795
117.155,0.03912728764485962,-0.03912728764485962
117.156,0.058663878633842814,-0.058663878633842814
117.157,0.07962376317853626,-0.07962376317853626
117.158,0.09567857956981696,-0.09567857956981696
117.159,0.10127383187813876,-0.10127383187813876
117.16,0.09306064842208417,-0.09306064842208417
117.161,0.07084853410449987,-0.07084853410449987
117.162,0.03781781119256766,-0.03781781119256766
117.163,8.865037138194864e-05,8.865037138194864e-05
117.164,0.03546558148062795,0.03546558148062795
117.165,0.06112709942990957,0.06112709942990957
117.166,0.07175665100828588,0.07175665100828588
117.167,0.06511629832966692,0.06511629832966692
117.168,0.04251905157242697,0.04251905157242697
117.169,0.00845802506497595,0.00845802506497595
117.17,0.030498184376326343,-0.030498184376326343
117.171,0.06725196891933738,-0.06725196891933738
117.172,0.09577198383699947,-0.09577198383699947
117.173,0.11234880153973403,-0.11234880153973403
117.174,0.11622703453958205,-0.11622703453958205
117.175,0.10950132211122554,-0.10950132211122554
117.176,0.09635222932052645,-0.09635222932052645
117.177,0.08185342659138384,-0.08185342659138384
117.178,0.0706660499549927,-0.0706660499549927
117.179,0.0659350687836604,-0.0659350687836604
117.18,0.06862546359948529,-0.06862546359948529
117.181,0.07741155259045807,-0.07741155259045807
117.182,0.08909773059010662,-0.08909773059010662
117.183,0.09943678883208718,-0.09943678883208718
117.184,0.10414447700625351,-0.10414447700625351
117.185,0.0998921773972733,-0.0998921773972733
117.186,0.08508616381149559,-0.08508616381149559
117.187,0.060296997516808504,-0.060296997516808504
117.188,0.02827042562346571,-0.02827042562346571
117.189,0.006479990986849371,0.006479990986849371
117.19,0.038434636629655516,0.038434636629655516
117.191,0.06206446632667939,0.06206446632667939
117.192,0.0728983852176237,0.0728983852176237
117.193,0.06846984345507412,0.06846984345507412
117.194,0.04895020294686003,0.04895020294686003
117.195,0.017311413422178124,0.017311413422178124
117.196,0.021064659718218137,-0.021064659718218137
117.197,0.05930496590851697,-0.05930496590851697
117.198,0.09034514132818794,-0.09034514132818794
117.199,0.10835781849871895,-0.10835781849871895
117.2,0.10999869121012196,-0.10999869121012196
117.201,0.09517349468391967,-0.09517349468391967
117.202,0.06712115723994583,-0.06712115723994583
117.203,0.031762519301728465,-0.031762519301728465
117.204,0.003556634009551418,0.003556634009551418
117.205,0.03164309051421155,0.03164309051421155
117.206,0.04698114696126554,0.04698114696126554
117.207,0.04684046927971863,0.04684046927971863
117.208,0.03170876213025209,0.03170876213025209
117.209,0.004967469451786277,0.004967469451786277
117.21,0.028074193973742223,-0.028074193973742223
117.211,0.06150979631796871,-0.06150979631796871
117.212,0.09017293282098215,-0.09017293282098215
117.213,0.11064459129486492,-0.11064459129486492
117.214,0.12170775938494971,-0.12170775938494971
117.215,0.12419519947223467,-0.12419519947223467
117.216,0.1203477420818937,-0.1203477420818937
117.217,0.11292364375922648,-0.11292364375922648
117.218,0.1043412584576493,-0.1043412584576493
117.219,0.0960915418969539,-0.0960915418969539
117.22,0.08854558626778175,-0.08854558626778175
117.221,0.08114640884239055,-0.08114640884239055
117.222,0.07285905305466356,-0.07285905305466356
117.223,0.06269336419556581,-0.06269336419556581
117.224,0.050122621267040035,-0.050122621267040035
117.225,0.035287181171291815,-0.035287181171291815
117.226,0.01896546380682207,-0.01896546380682207
117.227,0.0023783917934655507,-0.0023783917934655507
117.228,0.013061814463973587,0.013061814463973587
117.229,0.025954131789331703,0.025954131789331703
117.23,0.03500766555154833,0.03500766555154833
117.231,0.039049915907508614,0.039049915907508614
117.232,0.03701255935803549,0.03701255935803549
117.233,0.027981211456045152,0.027981211456045152
117.234,0.011368129409506045,0.011368129409506045
117.235,0.012796196362433787,-0.012796196362433787
117.236,0.04352971489249313,-0.04352971489249313
117.237,0.07865329087350026,-0.07865329087350026
117.238,0.11476980612408971,-0.11476980612408971
117.239,0.14755845801127487,-0.14755845801127487
117.24,0.17238633013999827,-0.17238633013999827
117.241,0.18513616914979591,-0.18513616914979591
117.242,0.18306609244447392,-0.18306609244447392
117.243,0.16548327568847043,-0.16548327568847043
117.244,0.13404379827547253,-0.13404379827547253
117.245,0.09257855482038213,-0.09257855482038213
117.246,0.04646557648266447,-0.04646557648266447
117.247,0.001686696578078517,-0.001686696578078517
117.248,0.03621349872856228,0.03621349872856228
117.249,0.0630289944325404,0.0630289944325404
117.25,0.07646169513880241,0.07646169513880241
117.251,0.0762611493735168,0.0762611493735168
117.252,0.06395173975354629,0.06395173975354629
117.253,0.04226562915334653,0.04226562915334653
117.254,0.014459785476104825,0.014459785476104825
117.255,0.016299372728207584,-0.016299372728207584
117.256,0.04734631842720882,-0.04734631842720882
117.257,0.07666368945498658,-0.07666368945498658
117.258,0.10279465203978888,-0.10279465203978888
117.259,0.12461569599097833,-0.12461569599097833
117.26,0.14109544551669972,-0.14109544551669972
117.261,0.15115298961072565,-0.15115298961072565
117.262,0.15368236370806154,-0.15368236370806154
117.263,0.14774518584142793,-0.14774518584142793
117.264,0.13287182247883567,-0.13287182247883567
117.265,0.1093710729528502,-0.1093710729528502
117.266,0.07854004978209372,-0.07854004978209372
117.267,0.042690737490425845,-0.042690737490425845
117.268,0.0049593422499729645,-0.0049593422499729645
117.269,0.031075781885042897,0.031075781885042897
117.27,0.061889119732898124,0.061889119732898124
117.271,0.08450625759694574,0.08450625759694574
117.272,0.0968947935485669,0.0968947935485669
117.273,0.09816666156281184,0.09816666156281184
117.274,0.0885622486111588,0.0885622486111588
117.275,0.06924591792625012,0.06924591792625012
117.276,0.04199213150770986,0.04199213150770986
117.277,0.008866085717182504,0.008866085717182504
117.278,0.028005882790475556,-0.028005882790475556
117.279,0.06652155010286198,-0.06652155010286198
117.28,0.10455006306373871,-0.10455006306373871
117.281,0.13980905456374737,-0.13980905456374737
117.282,0.16977959947473564,-0.16977959947473564
117.283,0.1917685634371734,-0.1917685634371734
117.284,0.203185056091298,-0.203185056091298
117.285,0.20201961520681933,-0.20201961520681933
117.286,0.18742461049655668,-0.18742461049655668
117.287,0.16022331790594602,-0.16022331790594602
117.288,0.12315246977147243,-0.12315246977147243
117.289,0.08068560117349222,-0.08068560117349222
117.29,0.03838859943976147,-0.03838859943976147
117.291,0.001898806101111039,-0.001898806101111039
117.292,0.024247222414309544,0.024247222414309544
117.293,0.037630615716198745,0.037630615716198745
117.294,0.038510219354636055,0.038510219354636055
117.295,0.02972576986579445,0.02972576986579445
117.296,0.01592063096274643,0.01592063096274643
117.297,0.002262697456361984,0.002262697456361984
117.298,0.006992853243236619,-0.006992853243236619
117.299,0.00968419568405987,-0.00968419568405987
117.3,0.006306040013893344,-0.006306040013893344
117.301,0.0002341456690375665,0.0002341456690375665
117.302,0.0056146430209143006,0.0056146430209143006
117.303,0.005562001317429344,0.005562001317429344
117.304,0.0026708170403773046,-0.0026708170403773046
117.305,0.019280189939040793,-0.019280189939040793
117.306,0.04168192665269577,-0.04168192665269577
117.307,0.06517216280053373,-0.06517216280053373
117.308,0.08429185572382503,-0.08429185572382503
117.309,0.09447601679997297,-0.09447601679997297
117.31,0.09346722214421876,-0.09346722214421876
117.311,0.08203885994683846,-0.08203885994683846
117.312,0.06378957649580153,-0.06378957649580153
117.313,0.04406813653864616,-0.04406813653864616
117.314,0.028369770548001716,-0.028369770548001716
117.315,0.020716550085167373,-0.020716550085167373
117.316,0.022536520241874358,-0.022536520241874358
117.317,0.03238703897859252,-0.03238703897859252
117.318,0.046583552166031605,-0.046583552166031605
117.319,0.06049268951506448,-0.06049268951506448
117.32,0.07003222300256973,-0.07003222300256973
117.321,0.07286515477626843,-0.07286515477626843
117.322,0.06890005957082057,-0.06890005957082057
117.323,0.059970147541386964,-0.059970147541386964
117.324,0.048865793633643406,-0.048865793633643406
117.325,0.038129742522095667,-0.038129742522095667
117.326,0.02910419763737948,-0.02910419763737948
117.327,0.021613010340983507,-0.021613010340983507
117.328,0.014406706756069587,-0.014406706756069587
117.329,0.006186219027979778,-0.006186219027979778
117.33,0.003229850827644709,0.003229850827644709
117.331,0.012120861468613686,0.012120861468613686
117.332,0.016877172178157096,0.016877172178157096
117.333,0.012940650563689537,0.012940650563689537
117.334,0.0035575155135511016,-0.0035575155135511016
117.335,0.03399725397200293,-0.03399725397200293
117.336,0.07597609593105781,-0.07597609593105781
117.337,0.1230864092252808,-0.1230864092252808
117.338,0.16600903504047237,-0.16600903504047237
117.339,0.1947324918876785,-0.1947324918876785
117.34,0.20129943391921845,-0.20129943391921845
117.341,0.1822484770839612,-0.1822484770839612
117.342,0.13995191034142673,-0.13995191034142673
117.343,0.08235265436122996,-0.08235265436122996
117.344,0.021088523749356214,-0.021088523749356214
117.345,0.03149637962200824,0.03149637962200824
117.346,0.06558451999831116,0.06558451999831116
117.347,0.07639503751970667,0.07639503751970667
117.348,0.06521611223701784,0.06521611223701784
117.349,0.03866337771965056,0.03866337771965056
117.35,0.006426038596957229,0.006426038596957229
117.351,0.021764040205129564,-0.021764040205129564
117.352,0.03897272563307874,-0.03897272563307874
117.353,0.04283208650565906,-0.04283208650565906
117.354,0.03573014193855273,-0.03573014193855273
117.355,0.023450576306629833,-0.023450576306629833
117.356,0.01280540808705799,-0.01280540808705799
117.357,0.009122396722941128,-0.009122396722941128
117.358,0.014465691056976149,-0.014465691056976149
117.359,0.027180890575441596,-0.027180890575441596
117.36,0.04286767213688536,-0.04286767213688536
117.361,0.056367236478073734,-0.056367236478073734
117.362,0.06399004334477632,-0.06399004334477632
117.363,0.06512910329061328,-0.06512910329061328
117.364,0.06263354536641619,-0.06263354536641619
117.365,0.061774735507372114,-0.061774735507372114
117.366,0.06815998418240532,-0.06815998418240532
117.367,0.08534967739680188,-0.08534967739680188
117.368,0.1130670447702734,-0.1130670447702734
117.369,0.14670382347993305,-0.14670382347993305
117.37,0.17838066287285181,-0.17838066287285181
117.371,0.1992716130851283,-0.1992716130851283
117.372,0.20244027862930303,-0.20244027862930303
117.373,0.18522606169043176,-0.18522606169043176
117.374,0.15034103506224372,-0.15034103506224372
117.375,0.10525525616679321,-0.10525525616679321
117.376,0.06002118271230772,-0.06002118271230772
117.377,0.024220774633884834,-0.024220774633884834
117.378,0.004027840989265896,-0.004027840989265896
117.379,0.0003545475215522842,-0.0003545475215522842
117.38,0.008699535448877027,-0.008699535448877027
117.381,0.020753047567013794,-0.020753047567013794
117.382,0.027231571692624024,-0.027231571692624024
117.383,0.021008039429644243,-0.021008039429644243
117.384,0.0004893598545345768,0.0004893598545345768
117.385,0.034386120583478785,0.034386120583478785
117.386,0.07324725072042226,0.07324725072042226
117.387,0.10741867139945627,0.10741867139945627
117.388,0.12802928307238304,0.12802928307238304
117.389,0.12966009530509193,0.12966009530509193
117.39,0.11182532963025005,0.11182532963025005
117.391,0.07883257758521456,0.07883257758521456
117.392,0.038145434683035884,0.038145434683035884
117.393,0.002130145241337922,-0.002130145241337922
117.394,0.035744118033733785,-0.035744118033733785
117.395,0.05993785504265026,-0.05993785504265026
117.396,0.07570533541812907,-0.07570533541812907
117.397,0.08667222247301087,-0.08667222247301087
117.398,0.09707711356021675,-0.09707711356021675
117.399,0.10964752445624582,-0.10964752445624582
117.4,0.12418267410514672,-0.12418267410514672
117.401,0.13738367345311253,-0.13738367345311253
117.402,0.14400907849406985,-0.14400907849406985
117.403,0.13894545654652257,-0.13894545654652257
117.404,0.11944126232632757,-0.11944126232632757
117.405,0.08667741389264405,-0.08667741389264405
117.406,0.04606493480212326,-0.04606493480212326
117.407,0.006092613655567347,-0.006092613655567347
117.408,0.023954447315031047,0.023954447315031047
117.409,0.03669265967451052,0.03669265967451052
117.41,0.028888835771075483,0.028888835771075483
117.411,0.002531500556166799,0.002531500556166799
117.412,0.03562690894298526,-0.03562690894298526
117.413,0.0759200214727439,-0.0759200214727439
117.414,0.10843650695787599,-0.10843650695787599
117.415,0.12569277159040249,-0.12569277159040249
117.416,0.12451915001988056,-0.12451915001988056
117.417,0.10664341640631958,-0.10664341640631958
117.418,0.07787868493293326,-0.07787868493293326
117.419,0.0462507875378535,-0.0462507875378535
117.42,0.01969455575020662,-0.01969455575020662
117.421,0.004022954379836352,-0.004022954379836352
117.422,0.0017200611800624044,-0.0017200611800624044
117.423,0.011797162144738138,-0.011797162144738138
117.424,0.03059745099963862,-0.03059745099963862
117.425,0.05316033442918244,-0.05316033442918244
117.426,0.0746447516031461,-0.0746447516031461
117.427,0.09138161171645898,-0.09138161171645898
117.428,0.1013316888676713,-0.1013316888676713
117.429,0.10397618099320949,-0.10397618099320949
117.43,0.09986424622828594,-0.09986424622828594
117.431,0.09011650299426499,-0.09011650299426499
117.432,0.07612071986174218,-0.07612071986174218
117.433,0.059496761016250344,-0.059496761016250344
117.434,0.04223010784892578,-0.04223010784892578
117.435,0.02675875764903446,-0.02675875764903446
117.436,0.015799441753951093,-0.015799441753951093
117.437,0.011817884469505158,-0.011817884469505158
117.438,0.016234942661284668,-0.016234942661284668
117.439,0.028634962092561778,-0.028634962092561778
117.44,0.0463243420901035,-0.0463243420901035
117.441,0.06453035671439233,-0.06453035671439233
117.442,0.07733983024373725,-0.07733983024373725
117.443,0.07921527526213423,-0.07921527526213423
117.444,0.06668665309667632,-0.06668665309667632
117.445,0.039693028986919954,-0.039693028986919954
117.446,0.0020969399272228184,-0.0020969399272228184
117.447,0.03888698619406927,0.03888698619406927
117.448,0.07428221794288703,0.07428221794288703
117.449,0.09556497148556975,0.09556497148556975
117.45,0.09689003312319233,0.09689003312319233
117.451,0.07668174102426706,0.07668174102426706
117.452,0.03811491661956734,0.03811491661956734
117.453,0.011665579927270353,-0.011665579927270353
117.454,0.06336313112966874,-0.06336313112966874
117.455,0.10785590492153718,-0.10785590492153718
117.456,0.1383622717954469,-0.1383622717954469
117.457,0.15184465515224943,-0.15184465515224943
117.458,0.1493030604896627,-0.1493030604896627
117.459,0.13495899453747273,-0.13495899453747273
117.46,0.11466313355403224,-0.11466313355403224
117.461,0.09407041224947432,-0.09407041224947432
117.462,0.07715248582002898,-0.07715248582002898
117.463,0.06546094601653929,-0.06546094601653929
117.464,0.058276589010621604,-0.058276589010621604
117.465,0.05347902688569217,-0.05347902688569217
117.466,0.048748177620827615,-0.048748177620827615
117.467,0.042634229513013766,-0.042634229513013766
117.468,0.035121478201302625,-0.035121478201302625
117.469,0.027523431599627668,-0.027523431599627668
117.47,0.021801346298465862,-0.021801346298465862
117.471,0.01960509316364978,-0.01960509316364978
117.472,0.021424456158152028,-0.021424456158152028
117.473,0.026185330895779346,-0.026185330895779346
117.474,0.031454218190678396,-0.031454218190678396
117.475,0.03419076888910255,-0.03419076888910255
117.476,0.03179191820678173,-0.03179191820678173
117.477,0.023069136144505342,-0.023069136144505342
117.478,0.008823795829026482,-0.008823795829026482
117.479,0.008178466027803033,0.008178466027803033
117.48,0.023835801522804845,0.023835801522804845
117.481,0.03375106332372946,0.03375106332372946
117.482,0.03437408635382044,0.03437408635382044
117.483,0.023916199886687695,0.023916199886687695
117.484,0.0027927774668574656,0.0027927774668574656
117.485,0.02649800818278958,-0.02649800818278958
117.486,0.05998628311606069,-0.05998628311606069
117.487,0.09313120085526005,-0.09313120085526005
117.488,0.12175842032569073,-0.12175842032569073
117.489,0.14280832863772908,-0.14280832863772908
117.49,0.1547545796937081,-0.1547545796937081
117.491,0.15765997639920704,-0.15765997639920704
117.492,0.152928504931928,-0.152928504931928
117.493,0.1428637276319461,-0.1428637276319461
117.494,0.13014987597634298,-0.13014987597634298
117.495,0.11734614184437786,-0.11734614184437786
117.496,0.10644951896695609,-0.10644951896695609
117.497,0.09855751325783935,-0.09855751325783935
117.498,0.09365788539694042,-0.09365788539694042
117.499,0.09058220134772466,-0.09058220134772466
117.5,0.0871664582707199,-0.0871664582707199
117.501,0.08064717390044618,-0.08064717390044618
117.502,0.06827592574086883,-0.06827592574086883
117.503,0.04806610589618143,-0.04806610589618143
117.504,0.019514962512936274,-0.019514962512936274
117.505,0.015897762965965345,0.015897762965965345
117.506,0.05461989148529178,0.05461989148529178
117.507,0.09145232678589221,0.09145232678589221
117.508,0.12046644205436463,0.12046644205436463
117.509,0.13624247470793782,0.13624247470793782
117.51,0.1351404837912753,0.1351404837912753
117.511,0.1162701341286767,0.1162701341286767
117.512,0.08187571469690291,0.08187571469690291
117.513,0.03699216730220156,0.03699216730220156
117.514,0.011579316377856252,-0.011579316377856252
117.515,0.056736848236868975,-0.056736848236868975
117.516,0.09261459746729306,-0.09261459746729306
117.517,0.1157919952008648,-0.1157919952008648
117.518,0.12586138851145556,-0.12586138851145556
117.519,0.12521554498182075,-0.12521554498182075
117.52,0.11813169764572584,-0.11813169764572584
117.521,0.10942101378112923,-0.10942101378112923
117.522,0.10302577592725604,-0.10302577592725604
117.523,0.1009497509811802,-0.1009497509811802
117.524,0.10280207949969511,-0.10280207949969511
117.525,0.10605518851782891,-0.10605518851782891
117.526,0.1069168245204919,-0.1069168245204919
117.527,0.10155282150402278,-0.10155282150402278
117.528,0.08731436986092889,-0.08731436986092889
117.529,0.0636392954605125,-0.0636392954605125
117.53,0.03240004293639542,-0.03240004293639542
117.531,0.0023729847338793686,0.0023729847338793686
117.532,0.03530146651554955,0.03530146651554955
117.533,0.06078540443538505,0.06078540443538505
117.534,0.07416792081029833,0.07416792081029833
117.535,0.07267396200149534,0.07267396200149534
117.536,0.0559326231968722,0.0559326231968722
117.537,0.026002590661290848,0.026002590661290848
117.538,0.013065320833052452,-0.013065320833052452
117.539,0.05600211758450613,-0.05600211758450613
117.54,0.09725110980166662,-0.09725110980166662
117.541,0.13186536555328354,-0.13186536555328354
117.542,0.15621164225514494,-0.15621164225514494
117.543,0.1683761763296432,-0.1683761763296432
117.544,0.16823593436799955,-0.16823593436799955
117.545,0.1572256145693275,-0.1572256145693275
117.546,0.13788435908068075,-0.13788435908068075
117.547,0.1132985539221888,-0.1132985539221888
117.548,0.08656369704646749,-0.08656369704646749
117.549,0.06036877912992167,-0.06036877912992167
117.55,0.03676543452142145,-0.03676543452142145
117.551,0.01713066751026482,-0.01713066751026482
117.552,0.002279390028751216,-0.002279390028751216
117.553,0.007354490129200197,0.007354490129200197
117.554,0.011560831665821114,0.011560831665821114
117.555,0.010292690187339915,0.010292690187339915
117.556,0.003729976326012574,0.003729976326012574
117.557,0.007561943195792398,-0.007561943195792398
117.558,0.022457008191908656,-0.022457008191908656
117.559,0.03917759332935966,-0.03917759332935966
117.56,0.055374520412250994,-0.055374520412250994
117.561,0.06841436534639345,-0.06841436534639345
117.562,0.07583940000803835,-0.07583940000803835
117.563,0.07589714640616951,-0.07589714640616951
117.564,0.06799570589498749,-0.06799570589498749
117.565,0.05294479629068449,-0.05294479629068449
117.566,0.03289320207510027,-0.03289320207510027
117.567,0.010957007309127964,-0.010957007309127964
117.568,0.009377019355314875,0.009377019355314875
117.569,0.024922248265281333,0.024922248265281333
117.57,0.033366888024435326,0.033366888024435326
117.571,0.03361616788105026,0.03361616788105026
117.572,0.025841392420999698,0.025841392420999698
117.573,0.011266105577452556,0.011266105577452556
117.574,0.008206613368527571,-0.008206613368527571
117.575,0.030390512589973162,-0.030390512589973162
117.576,0.053121582721088134,-0.053121582721088134
117.577,0.07441944633737307,-0.07441944633737307
117.578,0.09252720405017312,-0.09252720405017312
117.579,0.1059093555259375,-0.1059093555259375
117.58,0.11330116270619173,-0.11330116270619173
117.581,0.11386625686799112,-0.11386625686799112
117.582,0.10744720900258753,-0.10744720900258753
117.583,0.09481768691447667,-0.09481768691447667
117.584,0.07780070523298832,-0.07780070523298832
117.585,0.05913089756113732,-0.05913089756113732
117.586,0.04201306277356576,-0.04201306277356576
117.587,0.02944199339101161,-0.02944199339101161
117.588,0.02345810914092783,-0.02345810914092783
117.589,0.024573847656576553,-0.024573847656576553
117.59,0.03158523824986825,-0.03158523824986825
117.591,0.04187803147197122,-0.04187803147197122
117.592,0.05217740679145255,-0.05217740679145255
117.593,0.0595287382818569,-0.0595287382818569
117.594,0.06219478836747849,-0.06219478836747849
117.595,0.06015657859546131,-0.06015657859546131
117.596,0.055021031489238315,-0.055021031489238315
117.597,0.049336653626295246,-0.049336653626295246
117.598,0.04553383725040083,-0.04553383725040083
117.599,0.04486133822224292,-0.04486133822224292
117.6,0.04672305195163451,-0.04672305195163451
117.601,0.04870677514174415,-0.04870677514174415
117.602,0.04736759901670651,-0.04736759901670651
117.603,0.039555940008012436,-0.039555940008012436
117.604,0.02385854035451551,-0.02385854035451551
117.605,0.001633681989326563,-0.001633681989326563
117.606,0.022788720687081376,0.022788720687081376
117.607,0.042923097674265165,0.042923097674265165
117.608,0.05180855156830155,0.05180855156830155
117.609,0.04409392669712808,0.04409392669712808
117.61,0.017892149133824642,0.017892149133824642
117.611,0.024207429173615624,-0.024207429173615624
117.612,0.07535240479200189,-0.07535240479200189
117.613,0.12588484458332894,-0.12588484458332894
117.614,0.1656731947914436,-0.1656731947914436
117.615,0.18666449503154992,-0.18666449503154992
117.616,0.18491834614141522,-0.18491834614141522
117.617,0.16153134967400162,-0.16153134967400162
117.618,0.12219535889415234,-0.12219535889415234
117.619,0.0755478971029282,-0.0755478971029282
117.62,0.03083427784643966,-0.03083427784643966
117.621,0.0044081633236559,0.0044081633236559
117.622,0.025972139764962376,0.025972139764962376
117.623,0.0334881290428124,0.0334881290428124
117.624,0.02977199777207562,0.02977199777207562
117.625,0.019337798611232415,0.019337798611232415
117.626,0.006644572404800098,0.006644572404800098
117.627,0.005314641057811098,-0.005314641057811098
117.628,0.015642670179519813,-0.015642670179519813
117.629,0.025258153601369404,-0.025258153601369404
117.63,0.03591293735217116,-0.03591293735217116
117.631,0.04895645072584598,-0.04895645072584598
117.632,0.0643619662795214,-0.0643619662795214
117.633,0.08040162154417863,-0.08040162154417863
117.634,0.09408954799712288,-0.09408954799712288
117.635,0.1022088081658733,-0.1022088081658733
117.636,0.10251225626689675,-0.10251225626689675
117.637,0.09462277686080955,-0.09462277686080955
117.638,0.08027611207018415,-0.08027611207018415
117.639,0.06280265372347016,-0.06280265372347016
117.64,0.04603590920651901,-0.04603590920651901
117.641,0.03305412302762589,-0.03305412302762589
117.642,0.02522508290923553,-0.02522508290923553
117.643,0.021908736463934986,-0.021908736463934986
117.644,0.020921867539389183,-0.020921867539389183
117.645,0.01957877714394074,-0.01957877714394074
117.646,0.015901991979887065,-0.015901991979887065
117.647,0.009531434989846543,-0.009531434989846543
117.648,0.001974986374790766,-0.001974986374790766
117.649,0.0039045732632134733,0.0039045732632134733
117.65,0.004976757184637748,0.004976757184637748
117.651,0.0009095473181560676,-0.0009095473181560676
117.652,0.014001651643111956,-0.014001651643111956
117.653,0.032407464433992894,-0.032407464433992894
117.654,0.05265573304521076,-0.05265573304521076
117.655,0.07085417316725195,-0.07085417316725195
117.656,0.08401283386142289,-0.08401283386142289
117.657,0.09102703925019506,-0.09102703925019506
117.658,0.09293450042256124,-0.09293450042256124
117.659,0.0923332494929392,-0.0923332494929392
117.66,0.09217062872867132,-0.09217062872867132
117.661,0.0943662471668828,-0.0943662471668828
117.662,0.0988148403283593,-0.0988148403283593
117.663,0.10319113725974338,-0.10319113725974338
117.664,0.10368809625427322,-0.10368809625427322
117.665,0.09646628779011879,-0.09646628779011879
117.666,0.07930665196327535,-0.07930665196327535
117.667,0.052850807065474736,-0.052850807065474736
117.668,0.020929274308477797,-0.020929274308477797
117.669,0.010216520264807905,0.010216520264807905
117.67,0.033623480169409525,0.033623480169409525
117.671,0.04367869118166556,0.04367869118166556
117.672,0.0378893459415659,0.0378893459415659
117.673,0.017748219021468392,0.017748219021468392
117.674,0.011612596453159707,-0.011612596453159707
117.675,0.04288050888429151,-0.04288050888429151
117.676,0.0686599759400619,-0.0686599759400619
117.677,0.08352473730182486,-0.08352473730182486
117.678,0.08536889579849538,-0.08536889579849538
117.679,0.07565593126320136,-0.07565593126320136
117.68,0.05855312952455338,-0.05855312952455338
117.681,0.039320067318634355,-0.039320067318634355
117.682,0.02255707524453132,-0.02255707524453132
117.683,0.01093054498998336,-0.01093054498998336
117.684,0.004778350752477012,-0.004778350752477012
117.685,0.0026453883711342607,-0.0026453883711342607
117.686,0.0024421144102875214,-0.0024421144102875214
117.687,0.00269354781565434,-0.00269354781565434
117.688,0.0033365943793816077,-0.0033365943793816077
117.689,0.005730532076190897,-0.005730532076190897
117.69,0.011886008967123662,-0.011886008967123662
117.691,0.02325656950521593,-0.02325656950521593
117.692,0.0396376193472705,-0.0396376193472705
117.693,0.05869711923905452,-0.05869711923905452
117.694,0.07642213808148701,-0.07642213808148701
117.695,0.08839460000948818,-0.08839460000948818
117.696,0.09145172486612763,-0.09145172486612763
117.697,0.08508590445459319,-0.08508590445459319
117.698,0.07198375950697633,-0.07198375950697633
117.699,0.05739166474760282,-0.05739166474760282
117.7,0.04742748484092507,-0.04742748484092507
117.701,0.046877052973959166,-0.046877052973959166
117.702,0.057257409639240864,-0.057257409639240864
117.703,0.07589357471784242,-0.07589357471784242
117.704,0.09643810486180782,-0.09643810486180782
117.705,0.11076498524617917,-0.11076498524617917
117.706,0.11166572337852043,-0.11166572337852043
117.707,0.09545050999156901,-0.09545050999156901
117.708,0.06353829182857285,-0.06353829182857285
117.709,0.022427463074373932,-0.022427463074373932
117.71,0.01802347007997751,0.01802347007997751
117.711,0.047492272762195364,0.047492272762195364
117.712,0.05833040754535235,0.05833040754535235
117.713,0.04789828267054186,0.04789828267054186
117.714,0.019310028075876673,0.019310028075876673
117.715,0.019665495685764145,-0.019665495685764145
117.716,0.059169646300774814,-0.059169646300774814
117.717,0.0904017997105453,-0.0904017997105453
117.718,0.10826823944857344,-0.10826823944857344
117.719,0.11263236305531388,-0.11263236305531388
117.72,0.10776782129830009,-0.10776782129830009
117.721,0.1002603951592117,-0.1002603951592117
117.722,0.09616132447999326,-0.09616132447999326
117.723,0.09846302804152196,-0.09846302804152196
117.724,0.10584804843303663,-0.10584804843303663
117.725,0.11319313963634403,-0.11319313963634403
117.726,0.11365907605420977,-0.11365907605420977
117.727,0.1015979121001338,-0.1015979121001338
117.728,0.07518254897703824,-0.07518254897703824
117.729,0.03773301062447254,-0.03773301062447254
117.73,0.002837298580815384,0.002837298580815384
117.731,0.03635863481768453,0.03635863481768453
117.732,0.05376938569720946,0.05376938569720946
117.733,0.050345672439154,0.050345672439154
117.734,0.027632425050412746,0.027632425050412746
117.735,0.006673676230695591,-0.006673676230695591
117.736,0.040947067373310886,-0.040947067373310886
117.737,0.0632883815132731,-0.0632883815132731
117.738,0.06542375190182914,-0.06542375190182914
117.739,0.04554621620347532,-0.04554621620347532
117.74,0.009128440461133591,-0.009128440461133591
117.741,0.03259717175295118,0.03259717175295118
117.742,0.06601991836049459,0.06601991836049459
117.743,0.07930505310924807,0.07930505310924807
117.744,0.06598264925509367,0.06598264925509367
117.745,0.026834364960367507,0.026834364960367507
117.746,0.0304796274521133,-0.0304796274521133
117.747,0.09385776385471034,-0.09385776385471034
117.748,0.15039460989262565,-0.15039460989262565
117.749,0.18999883600690615,-0.18999883600690615
117.75,0.20784017368689867,-0.20784017368689867
117.751,0.20492994715362056,-0.20492994715362056
117.752,0.1868119512581966,-0.1868119512581966
117.753,0.16098631678073472,-0.16098631678073472
117.754,0.1340826917136132,-0.1340826917136132
117.755,0.1098112178537024,-0.1098112178537024
117.756,0.08836152107673623,-0.08836152107673623
117.757,0.06733553680895754,-0.06733553680895754
117.758,0.043711670316579965,-0.043711670316579965
117.759,0.01596322633000613,-0.01596322633000613
117.76,0.01457306699137817,0.01457306699137817
117.761,0.04366016270511719,0.04366016270511719
117.762,0.06549342105315725,0.06549342105315725
117.763,0.07488555098301286,0.07488555098301286
117.764,0.06943169604987331,0.06943169604987331
117.765,0.05076484622122113,0.05076484622122113
117.766,0.024340398878995417,0.024340398878995417
117.767,0.0022571024133813955,-0.0022571024133813955
117.768,0.021918866106961588,-0.021918866106961588
117.769,0.03058628992428125,-0.03058628992428125
117.77,0.0288199850144768,-0.0288199850144768
117.771,0.021719599580942273,-0.021719599580942273
117.772,0.017132896782658946,-0.017132896782658946
117.773,0.02271878839434749,-0.02271878839434749
117.774,0.04287233391899825,-0.04287233391899825
117.775,0.07661521182790787,-0.07661521182790787
117.776,0.11726010549662302,-0.11726010549662302
117.777,0.15406771811307496,-0.15406771811307496
117.778,0.1754323212505131,-0.1754323212505131
117.779,0.17259246977633425,-0.17259246977633425
117.78,0.14265631322403272,-0.14265631322403272
117.781,0.0899301745581923,-0.0899301745581923
117.782,0.025079206200196325,-0.025079206200196325
117.783,0.0376521781497039,0.0376521781497039
117.784,0.08430979628134883,0.08430979628134883
117.785,0.10499913237802527,0.10499913237802527
117.786,0.0964159749447766,0.0964159749447766
117.787,0.06241620333152964,0.06241620333152964
117.788,0.012537673389394044,0.012537673389394044
117.789,0.04097494425659953,-0.04097494425659953
117.79,0.08665926507647082,-0.08665926507647082
117.791,0.11675989356948036,-0.11675989356948036
117.792,0.1287651859873783,-0.1287651859873783
117.793,0.12523304273521518,-0.12523304273521518
117.794,0.11214860252223535,-0.11214860252223535
117.795,0.09649705011857479,-0.09649705011857479
117.796,0.08391357280847889,-0.08391357280847889
117.797,0.07715180078167982,-0.07715180078167982
117.798,0.07575823571506635,-0.07575823571506635
117.799,0.07689372533139738,-0.07689372533139738
117.8,0.07686443902502826,-0.07686443902502826
117.801,0.07273699961709468,-0.07273699961709468
117.802,0.06346082290918242,-0.06346082290918242
117.803,0.0501636378793352,-0.0501636378793352
117.804,0.03561726558672196,-0.03561726558672196
117.805,0.023162957134130968,-0.023162957134130968
117.806,0.01553903209577523,-0.01553903209577523
117.807,0.014029417489337948,-0.014029417489337948
117.808,0.01818065763397203,-0.01818065763397203
117.809,0.02609886709955933,-0.02609886709955933
117.81,0.035133713581576353,-0.035133713581576353
117.811,0.042656818799185925,-0.042656818799185925
117.812,0.04666998614631257,-0.04666998614631257
117.813,0.04610337292393951,-0.04610337292393951
117.814,0.04081805984151976,-0.04081805984151976
117.815,0.03143981116983685,-0.03143981116983685
117.816,0.01917619462723341,-0.01917619462723341
117.817,0.005707255253608379,-0.005707255253608379
117.818,0.006867560828205388,0.006867560828205388
117.819,0.01613355653002868,0.01613355653002868
117.82,0.01964192147451116,0.01964192147451116
117.821,0.015422170313850847,0.015422170313850847
117.822,0.0026453606698548793,0.0026453606698548793
117.823,0.01777785775822005,-0.01777785775822005
117.824,0.04294484300221002,-0.04294484300221002
117.825,0.0682805718959546,-0.0682805718959546
117.826,0.08848328296946195,-0.08848328296946195
117.827,0.09891348243621245,-0.09891348243621245
117.828,0.09703254431290564,-0.09703254431290564
117.829,0.08340334792859982,-0.08340334792859982
117.83,0.06184435689979695,-0.06184435689979695
117.831,0.038572912786925206,-0.038572912786925206
117.832,0.02050985411991102,-0.02050985411991102
117.833,0.013229129508217308,-0.013229129508217308
117.834,0.019204429785453003,-0.019204429785453003
117.835,0.036955280365611354,-0.036955280365611354
117.836,0.06142813920855583,-0.06142813920855583
117.837,0.0855448204515209,-0.0855448204515209
117.838,0.10244724146676154,-0.10244724146676154
117.839,0.10770830227236017,-0.10770830227236017
117.84,0.10076320153486484,-0.10076320153486484
117.841,0.08505993243113652,-0.08505993243113652
117.842,0.06685549753820785,-0.06685549753820785
117.843,0.053050285236833084,-0.053050285236833084
117.844,0.04879334760149201,-0.04879334760149201
117.845,0.055682416298580395,-0.055682416298580395
117.846,0.07118661598586462,-0.07118661598586462
117.847,0.08950076846180677,-0.08950076846180677
117.848,0.10354254190065482,-0.10354254190065482
117.849,0.10740250604769974,-0.10740250604769974
117.85,0.09839547262952253,-0.09839547262952253
117.851,0.07799864521292055,-0.07799864521292055
117.852,0.05135137907220011,-0.05135137907220011
117.853,0.02549581279185764,-0.02549581279185764
117.854,0.006978567711916073,-0.006978567711916073
117.855,0.00034542808638615696,0.00034542808638615696
117.856,0.0034567678037602523,-0.0034567678037602523
117.857,0.014548577437195731,-0.014548577437195731
117.858,0.02678448281226864,-0.02678448281226864
117.859,0.03394414554857905,-0.03394414554857905
117.86,0.03194097506670035,-0.03194097506670035
117.861,0.020229372025153514,-0.020229372025153514
117.862,0.001934069018188267,-0.001934069018188267
117.863,0.01731118049795688,0.01731118049795688
117.864,0.031369229861933245,0.031369229861933245
117.865,0.03571425797828853,0.03571425797828853
117.866,0.028902993396320964,0.028902993396320964
117.867,0.012904980878787553,0.012904980878787553
117.868,0.007776575870575675,-0.007776575870575675
117.869,0.027819778087984415,-0.027819778087984415
117.87,0.04296901967438316,-0.04296901967438316
117.871,0.05138693465715338,-0.05138693465715338
117.872,0.05399650705542669,-0.05399650705542669
117.873,0.05373651736602858,-0.05373651736602858
117.874,0.05407331708987062,-0.05407331708987062
117.875,0.057391898810422504,-0.057391898810422504
117.876,0.06392394619127428,-0.06392394619127428
117.877,0.07164839602978856,-0.07164839602978856
117.878,0.0772074277350866,-0.0772074277350866
117.879,0.0774694251803546,-0.0774694251803546
117.88,0.07109994480858761,-0.07109994480858761
117.881,0.05947896958348575,-0.05947896958348575
117.882,0.04654083637365636,-0.04654083637365636
117.883,0.03752551329203202,-0.03752551329203202
117.884,0.03706149123352176,-0.03706149123352176
117.885,0.0472859902559567,-0.0472859902559567
117.886,0.06673378397875729,-0.06673378397875729
117.887,0.09047357174704163,-0.09047357174704163
117.888,0.11152654075705937,-0.11152654075705937
117.889,0.12312573954575734,-0.12312573954575734
117.89,0.1210433043485859,-0.1210433043485859
117.891,0.10515263201563019,-0.10515263201563019
117.892,0.07963457689715969,-0.07963457689715969
117.893,0.05170107573627991,-0.05170107573627991
117.894,0.02923388137230043,-0.02923388137230043
117.895,0.01813279823314562,-0.01813279823314562
117.896,0.02029186662464244,-0.02029186662464244
117.897,0.032923604107338744,-0.032923604107338744
117.898,0.049495347989424676,-0.049495347989424676
117.899,0.06198508706798511,-0.06198508706798511
117.9,0.06370132307153897,-0.06370132307153897
117.901,0.05170538083181242,-0.05170538083181242
117.902,0.027998920028588614,-0.027998920028588614
117.903,0.0009473567544326933,0.0009473567544326933
117.904,0.02618776008361734,0.02618776008361734
117.905,0.03916812512031864,0.03916812512031864
117.906,0.034521577058007624,0.034521577058007624
117.907,0.011876634225821636,0.011876634225821636
117.908,0.023906644347633454,-0.023906644347633454
117.909,0.06413501887886697,-0.06413501887886697
117.91,0.09884577230845704,-0.09884577230845704
117.911,0.11970296168431993,-0.11970296168431993
117.912,0.12231384547191948,-0.12231384547191948
117.913,0.10727376396832722,-0.10727376396832722
117.914,0.07968305175073176,-0.07968305175073176
117.915,0.04737550677472524,-0.04737550677472524
117.916,0.01848769847777476,-0.01848769847777476
117.917,0.0008401231054544489,0.0008401231054544489
117.918,0.007945629942634369,0.007945629942634369
117.919,0.003939868184698936,0.003939868184698936
117.92,0.007144217148522092,-0.007144217148522092
117.921,0.0199552985777689,-0.0199552985777689
117.922,0.029594095210736526,-0.029594095210736526
117.923,0.032987379183123555,-0.032987379183123555
117.924,0.02950543066901845,-0.02950543066901845
117.925,0.020757240308214242,-0.020757240308214242
117.926,0.009771248733958848,-0.009771248733958848
117.927,6.978316941541607e-05,6.978316941541607e-05
117.928,0.0059632182827529245,0.0059632182827529245
117.929,0.006237937224732981,0.006237937224732981
117.93,0.00045959056422550937,0.00045959056422550937
117.931,0.010801645906906798,-0.010801645906906798
117.932,0.026342107209934906,-0.026342107209934906
117.933,0.04464940079588442,-0.04464940079588442
117.934,0.06408850619437767,-0.06408850619437767
117.935,0.08297226363032473,-0.08297226363032473
117.936,0.09961694114598252,-0.09961694114598252
117.937,0.11248609873510607,-0.11248609873510607
117.938,0.12045537337871248,-0.12045537337871248
117.939,0.12312639051030694,-0.12312639051030694
117.94,0.12103756231313667,-0.12103756231313667
117.941,0.11561202713461483,-0.11561202713461483
117.942,0.10876465211463282,-0.10876465211463282
117.943,0.10223446964061789,-0.10223446964061789
117.944,0.09685600418217688,-0.09685600418217688
117.945,0.09206331847971638,-0.09206331847971638
117.946,0.08588604917263354,-0.08588604917263354
117.947,0.07554356693965703,-0.07554356693965703
117.948,0.05851878777309061,-0.05851878777309061
117.949,0.03378016177770904,-0.03378016177770904
117.95,0.002707095789497127,-0.002707095789497127
117.951,0.030681791280714243,0.030681791280714243
117.952,0.060395320854543355,0.060395320854543355
117.953,0.07992794633707234,0.07992794633707234
117.954,0.0841104552085794,0.0841104552085794
117.955,0.07077423357137302,0.07077423357137302
117.956,0.041661357787116104,0.041661357787116104
117.957,0.0022249787387440545,0.0022249787387440545
117.958,0.03968554289076365,-0.03968554289076365
117.959,0.07588923799482483,-0.07588923799482483
117.96,0.1000601533060218,-0.1000601533060218
117.961,0.10935115463703515,-0.10935115463703515
117.962,0.1049443717377293,-0.1049443717377293
117.963,0.09136831996417083,-0.09136831996417083
117.964,0.07482966276742076,-0.07482966276742076
117.965,0.061131653516496076,-0.061131653516496076
117.966,0.0538783478441609,-0.0538783478441609
117.967,0.05354952080692865,-0.05354952080692865
117.968,0.05771704249455001,-0.05771704249455001
117.969,0.06227138493407325,-0.06227138493407325
117.97,0.0631797597664463,-0.0631797597664463
117.971,0.058127114071190644,-0.058127114071190644
117.972,0.047455099649522436,-0.047455099649522436
117.973,0.03408447592456165,-0.03408447592456165
117.974,0.02248143297758398,-0.02248143297758398
117.975,0.01707012049737222,-0.01707012049737222
117.976,0.020679106919647583,-0.020679106919647583
117.977,0.033575212967631995,-0.033575212967631995
117.978,0.05340303022266313,-0.05340303022266313
117.979,0.07600522394143139,-0.07600522394143139
117.98,0.09677834670627838,-0.09677834670627838
117.981,0.11204075378113298,-0.11204075378113298
117.982,0.11991638060575227,-0.11991638060575227
117.983,0.12045425351903027,-0.12045425351903027
117.984,0.11502009616684605,-0.11502009616684605
117.985,0.10528722369012589,-0.10528722369012589
117.986,0.0923044692635333,-0.0923044692635333
117.987,0.07607038790392306,-0.07607038790392306
117.988,0.05581539658526302,-0.05581539658526302
117.989,0.030878064035786412,-0.030878064035786412
117.99,0.0017857849189027997,-0.0017857849189027997
117.991,0.02897253715253778,0.02897253715253778
117.992,0.05690789674760577,0.05690789674760577
117.993,0.07638349342938322,0.07638349342938322
117.994,0.08216159120223376,0.08216159120223376
117.995,0.07114733928596673,0.07114733928596673
117.996,0.043703445977454125,0.043703445977454125
117.997,0.004012585937068547,0.004012585937068547
117.998,0.040728804436489296,-0.040728804436489296
117.999,0.08209740337709293,-0.08209740337709293
118.0,0.11266763964074877,-0.11266763964074877
118.001,0.12795860682405458,-0.12795860682405458
118.002,0.12746658977617986,-0.12746658977617986
118.003,0.11445422064391986,-0.11445422064391986
118.004,0.09459618496086497,-0.09459618496086497
118.005,0.07397709029467059,-0.07397709029467059
118.006,0.05715494137296073,-0.05715494137296073
118.007,0.045962679246022375,-0.045962679246022375
118.008,0.03943423932099377,-0.03943423932099377
118.009,0.03481536194613344,-0.03481536194613344
118.01,0.029210997723234322,-0.029210997723234322
118.011,0.021183697195855444,-0.021183697195855444
118.012,0.011641775091139506,-0.011641775091139506
118.013,0.0036360447546746055,-0.0036360447546746055
118.014,0.0011168296133314826,-0.0011168296133314826
118.015,0.007126341623297061,-0.007126341623297061
118.016,0.02215288064360532,-0.02215288064360532
118.017,0.04335097197741011,-0.04335097197741011
118.018,0.06503414355904624,-0.06503414355904624
118.019,0.08037657006044918,-0.08037657006044918
118.02,0.08378656033658782,-0.08378656033658782
118.021,0.0731162221139584,-0.0731162221139584
118.022,0.050866882335213304,-0.050866882335213304
118.023,0.023854686179546558,-0.023854686179546558
118.024,0.0013186380487051341,-0.0013186380487051341
118.025,0.007992934582823352,0.007992934582823352
118.026,0.0011720011385645268,-0.0011720011385645268
118.027,0.028488854350831594,-0.028488854350831594
118.028,0.06765899530047781,-0.06765899530047781
118.029,0.1079239524482486,-0.1079239524482486
118.03,0.13709535796052796,-0.13709535796052796
118.031,0.1451942623308039,-0.1451942623308039
118.032,0.12757071962967736,-0.12757071962967736
118.033,0.08651750817069492,-0.08651750817069492
118.034,0.03085565977199356,-0.03085565977199356
118.035,0.02639799083619998,0.02639799083619998
118.036,0.07157703310776231,0.07157703310776231
118.037,0.0940578765512683,0.0940578765512683
118.038,0.0890105414306821,0.0890105414306821
118.039,0.0584404502523026,0.0584404502523026
118.04,0.010300707387194574,0.010300707387194574
118.041,0.043956107433259395,-0.043956107433259395
118.042,0.09257527938564236,-0.09257527938564236
118.043,0.12647245047794342,-0.12647245047794342
118.044,0.14115813244367248,-0.14115813244367248
118.045,0.13718457398737705,-0.13718457398737705
118.046,0.11917574957822974,-0.11917574957822974
118.047,0.09392190493517627,-0.09392190493517627
118.048,0.06824086546277941,-0.06824086546277941
118.049,0.04727713612579032,-0.04727713612579032
118.05,0.03366446006194279,-0.03366446006194279
118.051,0.027625236287033728,-0.027625236287033728
118.052,0.027754633780751603,-0.027754633780751603
118.053,0.032049053484713985,-0.032049053484713985
118.054,0.03873814316836499,-0.03873814316836499
118.055,0.04664405725082743,-0.04664405725082743
118.056,0.05503975448305598,-0.05503975448305598
118.057,0.06320496220148086,-0.06320496220148086
118.058,0.06999663170212944,-0.06999663170212944
118.059,0.07372198575969613,-0.07372198575969613
118.06,0.07244842870854307,-0.07244842870854307
118.061,0.06467516382380101,-0.06467516382380101
118.062,0.0501138911740564,-0.0501138911740564
118.063,0.03025133620782805,-0.03025133620782805
118.064,0.008422526431767441,-0.008422526431767441
118.065,0.01071275713135389,0.01071275713135389
118.066,0.02219034236140649,0.02219034236140649
118.067,0.021984276636849875,0.021984276636849875
118.068,0.008116917188765838,0.008116917188765838
118.069,0.018680327984199607,-0.018680327984199607
118.07,0.05493618376603693,-0.05493618376603693
118.071,0.09503725138511587,-0.09503725138511587
118.072,0.13228844712874976,-0.13228844712874976
118.073,0.1601725948073368,-0.1601725948073368
118.074,0.17353390973808114,-0.17353390973808114
118.075,0.16947035861704396,-0.16947035861704396
118.076,0.14781568984045412,-0.14781568984045412
118.077,0.11118310020669742,-0.11118310020669742
118.078,0.06460290758795983,-0.06460290758795983
118.079,0.014813465168827422,-0.014813465168827422
118.08,0.030724516549410996,0.030724516549410996
118.081,0.06500037910983725,0.06500037910983725
118.082,0.08267939311012573,0.08267939311012573
118.083,0.08118852717909708,0.08118852717909708
118.084,0.061420587432825746,0.061420587432825746
118.085,0.027819488336524367,0.027819488336524367
118.086,0.012303616589420252,-0.012303616589420252
118.087,0.05020227248994802,-0.05020227248994802
118.088,0.07763439638218583,-0.07763439638218583
118.089,0.08887030485193959,-0.08887030485193959
118.09,0.08222881062159693,-0.08222881062159693
118.091,0.06065598083030688,-0.06065598083030688
118.092,0.031082357763536184,-0.031082357763536184
118.093,0.0026333662170774375,-0.0026333662170774375
118.094,0.015874125982946907,0.015874125982946907
118.095,0.018457079171538382,0.018457079171538382
118.096,0.00375942201734758,0.00375942201734758
118.097,0.024465863575662272,-0.024465863575662272
118.098,0.05839053748646417,-0.05839053748646417
118.099,0.08840152463713846,-0.08840152463713846
118.1,0.10598223181693378,-0.10598223181693378
118.101,0.10630755607264353,-0.10630755607264353
118.102,0.08973814042568418,-0.08973814042568418
118.103,0.06172714647123634,-0.06172714647123634
118.104,0.031146918521663403,-0.031146918521663403
118.105,0.007545754220055434,-0.007545754220055434
118.106,0.0018084164463119112,0.0018084164463119112
118.107,0.005833215530696045,-0.005833215530696045
118.108,0.027883473413388926,-0.027883473413388926
118.109,0.057274224994234624,-0.057274224994234624
118.11,0.08469954208769204,-0.08469954208769204
118.111,0.10152505374610321,-0.10152505374610321
118.112,0.102441525326181,-0.102441525326181
118.113,0.08704088266463084,-0.08704088266463084
118.114,0.05985476557974745,-0.05985476557974745
118.115,0.02889452199963305,-0.02889452199963305
118.116,0.0032002126608808856,-0.0032002126608808856
118.117,0.009807351970066769,0.009807351970066769
118.118,0.0063591841724874865,0.0063591841724874865
118.119,0.012814430162627954,-0.012814430162627954
118.12,0.04298194839010128,-0.04298194839010128
118.121,0.07698359162607205,-0.07698359162607205
118.122,0.1073008120790705,-0.1073008120790705
118.123,0.1279515359248098,-0.1279515359248098
118.124,0.13567720059755783,-0.13567720059755783
118.125,0.13018581953672903,-0.13018581953672903
118.126,0.11355651182473148,-0.11355651182473148
118.127,0.08917107248302591,-0.08917107248302591
118.128,0.06063287781405868,-0.06063287781405868
118.129,0.031046230810880426,-0.031046230810880426
118.13,0.002812994280500969,-0.002812994280500969
118.131,0.022144380486511128,0.022144380486511128
118.132,0.042001447687174176,0.042001447687174176
118.133,0.05479985475845961,0.05479985475845961
118.134,0.05856851250488471,0.05856851250488471
118.135,0.051805869184728515,0.051805869184728515
118.136,0.03413331775635431,0.03413331775635431
118.137,0.006816855414681244,0.006816855414681244
118.138,0.027123488786397254,-0.027123488786397254
118.139,0.06334655059266481,-0.06334655059266481
118.14,0.0970785038234887,-0.0970785038234887
118.141,0.12417732061600428,-0.12417732061600428
118.142,0.14200700417581136,-0.14200700417581136
118.143,0.14981495356734642,-0.14981495356734642
118.144,0.14849213190284238,-0.14849213190284238
118.145,0.13983652420334847,-0.13983652420334847
118.146,0.12563884961171734,-0.12563884961171734
118.147,0.10698290657101983,-0.10698290657101983
118.148,0.08406663024491823,-0.08406663024491823
118.149,0.05663291388504066,-0.05663291388504066
118.15,0.02483462460087904,-0.02483462460087904
118.151,0.009848076464439526,0.009848076464439526
118.152,0.04408081908500794,0.04408081908500794
118.153,0.07286347642071234,0.07286347642071234
118.154,0.09049900890477325,0.09049900890477325
118.155,0.09209997505185363,0.09209997505185363
118.156,0.07515228159660725,0.07515228159660725
118.157,0.040584508705880706,0.040584508705880706
118.158,0.007076831265307892,-0.007076831265307892
118.159,0.060589814222619776,-0.060589814222619776
118.16,0.11168460451180973,-0.11168460451180973
118.161,0.1530362727073613,-0.1530362727073613
118.162,0.1798947044607897,-0.1798947044607897
118.163,0.19085840854159408,-0.19085840854159408
118.164,0.1875806561320369,-0.1875806561320369
118.165,0.1735769175389874,-0.1735769175389874
118.166,0.1526222895830972,-0.1526222895830972
118.167,0.1273664717416666,-0.1273664717416666
118.168,0.09869704150976111,-0.09869704150976111
118.169,0.06608188354113365,-0.06608188354113365
118.17,0.028728457082766168,-0.028728457082766168
118.171,0.01294121586411423,0.01294121586411423
118.172,0.05615444649306611,0.05615444649306611
118.173,0.09554874995419715,0.09554874995419715
118.174,0.12406880971695,0.12406880971695
118.175,0.13480917391635194,0.13480917391635194
118.176,0.12322926589922822,0.12322926589922822
118.177,0.08897554613127667,0.08897554613127667
118.178,0.03662421180141684,0.03662421180141684
118.179,0.02501098177286265,-0.02501098177286265
118.18,0.08488747770819394,-0.08488747770819394
118.181,0.1324892633901389,-0.1324892633901389
118.182,0.16048956488496935,-0.16048956488496935
118.183,0.1664931973472198,-0.1664931973472198
118.184,0.15332340591156002,-0.15332340591156002
118.185,0.12779251506175215,-0.12779251506175215
118.186,0.0983886515452791,-0.0983886515452791
118.187,0.07265231645094417,-0.07265231645094417
118.188,0.05509077312959065,-0.05509077312959065
118.189,0.04626413205456459,-0.04626413205456459
118.19,0.04325523618930327,-0.04325523618930327
118.191,0.04125816767031287,-0.04125816767031287
118.192,0.03565577148806409,-0.03565577148806409
118.193,0.02382897238288184,-0.02382897238288184
118.194,0.006085715526705449,-0.006085715526705449
118.195,0.014548118210122363,0.014548118210122363
118.196,0.033506460140444894,0.033506460140444894
118.197,0.04631946799094555,0.04631946799094555
118.198,0.05006612280221101,0.05006612280221101
118.199,0.044116648845837325,0.044116648845837325
118.2,0.029949079465577455,0.029949079465577455
118.201,0.010203310582290737,0.010203310582290737
118.202,0.012565899599755181,-0.012565899599755181
118.203,0.03687331796496818,-0.03687331796496818
118.204,0.06259212112044732,-0.06259212112044732
118.205,0.09042360117779824,-0.09042360117779824
118.206,0.1207869032460066,-0.1207869032460066
118.207,0.15263793611632004,-0.15263793611632004
118.208,0.18279201031634407,-0.18279201031634407
118.209,0.20615300464371122,-0.20615300464371122
118.21,0.21690316502925955,-0.21690316502925955
118.211,0.21031354840570016,-0.21031354840570016
118.212,0.18454927405275945,-0.18454927405275945
118.213,0.1417832533063439,-0.1417832533063439
118.214,0.08813166317770771,-0.08813166317770771
118.215,0.03232086586306271,-0.03232086586306271
118.216,0.01655135342779257,0.01655135342779257
118.217,0.05145390496450908,0.05145390496450908
118.218,0.06925106655028324,0.06925106655028324
118.219,0.07129768637304856,0.07129768637304856
118.22,0.06259093546009642,0.06259093546009642
118.221,0.049768517376568955,0.049768517376568955
118.222,0.03865082938918296,0.03865082938918296
118.223,0.032191312736813416,0.032191312736813416
118.224,0.029560786371642056,0.029560786371642056
118.225,0.02669251108306181,0.02669251108306181
118.226,0.018094070652923788,0.018094070652923788
118.227,0.000725622059443265,-0.000725622059443265
118.228,0.031096653463123514,-0.031096653463123514
118.229,0.0700973318268705,-0.0700973318268705
118.23,0.11096706283508306,-0.11096706283508306
118.231,0.14493259358310406,-0.14493259358310406
118.232,0.16385853266813744,-0.16385853266813744
118.233,0.1628362706430021,-0.1628362706430021
118.234,0.1418353197734611,-0.1418353197734611
118.235,0.1058541675646345,-0.1058541675646345
118.236,0.06351394478110872,-0.06351394478110872
118.237,0.02456042484152321,-0.02456042484152321
118.238,0.0029030434837336028,0.0029030434837336028
118.239,0.014558330090187921,0.014558330090187921
118.24,0.010732583286800823,0.010732583286800823
118.241,0.0042304209266723625,-0.0042304209266723625
118.242,0.02378599681149074,-0.02378599681149074
118.243,0.04150509862907592,-0.04150509862907592
118.244,0.053074386239875926,-0.053074386239875926
118.245,0.05732246661458151,-0.05732246661458151
118.246,0.05599933654327138,-0.05599933654327138
118.247,0.05250009458481697,-0.05250009458481697
118.248,0.05009851990371372,-0.05009851990371372
118.249,0.05040871330914509,-0.05040871330914509
118.25,0.05267481416919617,-0.05267481416919617
118.251,0.05415036511713345,-0.05415036511713345
118.252,0.05139976604466978,-0.05139976604466978
118.253,0.04199462183596514,-0.04199462183596514
118.254,0.025919831148029093,-0.025919831148029093
118.255,0.006104701685900826,-0.006104701685900826
118.256,0.0121849904959479,0.0121849904959479
118.257,0.022935283419463826,0.022935283419463826
118.258,0.021423242643147322,0.021423242643147322
118.259,0.005993656211284337,0.005993656211284337
118.26,0.021070793470214677,-0.021070793470214677
118.261,0.053930933786758284,-0.053930933786758284
118.262,0.08474581817395,-0.08474581817395
118.263,0.10592284205270819,-0.10592284205270819
118.264,0.1123475714671639,-0.1123475714671639
118.265,0.10288188661588504,-0.10288188661588504
118.266,0.08066080806083398,-0.08066080806083398
118.267,0.05211177415864876,-0.05211177415864876
118.268,0.025029796073405497,-0.025029796073405497
118.269,0.006330867597308387,-0.006330867597308387
118.27,0.0001826105874896955,-0.0001826105874896955
118.271,0.007058644375434797,-0.007058644375434797
118.272,0.023942341077305196,-0.023942341077305196
118.273,0.04553062401420627,-0.04553062401420627
118.274,0.06598552958232085,-0.06598552958232085
118.275,0.08064534817248814,-0.08064534817248814
118.276,0.087171634125781,-0.087171634125781
118.277,0.0858374412518299,-0.0858374412518299
118.278,0.07896747157521078,-0.07896747157521078
118.279,0.06981506315856123,-0.06981506315856123
118.28,0.06131546572430735,-0.06131546572430735
118.281,0.055148445894595,-0.055148445894595
118.282,0.051392414346873805,-0.051392414346873805
118.283,0.04882086093671423,-0.04882086093671423
118.284,0.04566545466599514,-0.04566545466599514
118.285,0.040524862671009076,-0.040524862671009076
118.286,0.03307582719385671,-0.03307582719385671
118.287,0.024339506740102768,-0.024339506740102768
118.288,0.01642793771906026,-0.01642793771906026
118.289,0.01187807097023763,-0.01187807097023763
118.29,0.012812533510718982,-0.012812533510718982
118.291,0.02020878287862926,-0.02020878287862926
118.292,0.03350685095164274,-0.03350685095164274
118.293,0.05066660317890703,-0.05066660317890703
118.294,0.06864296188745889,-0.06864296188745889
118.295,0.08412788272950988,-0.08412788272950988
118.296,0.09434362290085674,-0.09434362290085674
118.297,0.09767418995827437,-0.09767418995827437
118.298,0.09398105520807587,-0.09398105520807587
118.299,0.0845416194054952,-0.0845416194054952
118.3,0.07164679742828994,-0.07164679742828994
118.301,0.05797402864261303,-0.05797402864261303
118.302,0.045899402101929554,-0.045899402101929554
118.303,0.036921850950277,-0.036921850950277
118.304,0.031344744096533206,-0.031344744096533206
118.305,0.02830127910745439,-0.02830127910745439
118.306,0.02612894264246468,-0.02612894264246468
118.307,0.02300824029330606,-0.02300824029330606
118.308,0.017700152402799096,-0.017700152402799096
118.309,0.010167191494096284,-0.010167191494096284
118.31,0.0018651280769432788,-0.0018651280769432788
118.311,0.004441948071549406,0.004441948071549406
118.312,0.005366781787250696,0.005366781787250696
118.313,0.0020479052953549237,-0.0020479052953549237
118.314,0.019184251502786798,-0.019184251502786798
118.315,0.044969184721739386,-0.044969184721739386
118.316,0.07559507536949628,-0.07559507536949628
118.317,0.10504026248394249,-0.10504026248394249
118.318,0.12636274915585122,-0.12636274915585122
118.319,0.13348673298856184,-0.13348673298856184
118.32,0.12300188328223871,-0.12300188328223871
118.321,0.09542502167841727,-0.09542502167841727
118.322,0.055474731486177764,-0.055474731486177764
118.323,0.01116944390883734,-0.01116944390883734
118.324,0.02808960221322998,0.02808960221322998
118.325,0.05395491315439305,0.05395491315439305
118.326,0.06138890515504536,0.06138890515504536
118.327,0.050045592350278945,0.050045592350278945
118.328,0.02431552079730981,0.02431552079730981
118.329,0.008030182594134017,-0.008030182594134017
118.33,0.038217176534558917,-0.038217176534558917
118.331,0.05914320638222004,-0.05914320638222004
118.332,0.06750432608397894,-0.06750432608397894
118.333,0.06467542681950189,-0.06467542681950189
118.334,0.05603622928113616,-0.05603622928113616
118.335,0.04893986915143733,-0.04893986915143733
118.336,0.04998016257686955,-0.04998016257686955
118.337,0.062468807856644215,-0.062468807856644215
118.338,0.08499107034517417,-0.08499107034517417
118.339,0.11157148725370203,-0.11157148725370203
118.34,0.13345371666366868,-0.13345371666366868
118.341,0.14195312230947177,-0.14195312230947177
118.342,0.13146097993652905,-0.13146097993652905
118.343,0.10159830329954977,-0.10159830329954977
118.344,0.05777030730004151,-0.05777030730004151
118.345,0.00988213358354606,-0.00988213358354606
118.346,0.03042324048562084,0.03042324048562084
118.347,0.05315267569220672,0.05315267569220672
118.348,0.05290753536031745,0.05290753536031745
118.349,0.030450607290513965,0.030450607290513965
118.35,0.0075974803957196135,-0.0075974803957196135
118.351,0.05082120603589668,-0.05082120603589668
118.352,0.0881565989983012,-0.0881565989983012
118.353,0.1111076097387732,-0.1111076097387732
118.354,0.1160187654370547,-0.1160187654370547
118.355,0.104724011997677,-0.104724011997677
118.356,0.08344209454719365,-0.08344209454719365
118.357,0.06036754986487192,-0.06036754986487192
118.358,0.04281803238259374,-0.04281803238259374
118.359,0.034908241767529824,-0.034908241767529824
118.36,0.036498957948340016,-0.036498957948340016
118.361,0.043701580561496645,-0.043701580561496645
118.362,0.05067188149453972,-0.05067188149453972
118.363,0.051992294900788605,-0.051992294900788605
118.364,0.044767187764360616,-0.044767187764360616
118.365,0.029693272048297525,-0.029693272048297525
118.366,0.010760054050196866,-0.010760054050196866
118.367,0.006262709815058054,0.006262709815058054
118.368,0.015962772414293447,0.015962772414293447
118.369,0.015252089316410977,0.015252089316410977
118.37,0.004448638220620138,0.004448638220620138
118.371,0.012903324605232025,-0.012903324605232025
118.372,0.03138576390013137,-0.03138576390013137
118.373,0.04571891280929741,-0.04571891280929741
118.374,0.0526878022608811,-0.0526878022608811
118.375,0.052278661806630544,-0.052278661806630544
118.376,0.047614335113413175,-0.047614335113413175
118.377,0.04371573061291123,-0.04371573061291123
118.378,0.0455396038921313,-0.0455396038921313
118.379,0.05600086626410672,-0.05600086626410672
118.38,0.07469084385738012,-0.07469084385738012
118.381,0.09775422627735297,-0.09775422627735297
118.382,0.1189787846178958,-0.1189787846178958
118.383,0.13172990990428468,-0.13172990990428468
118.384,0.1310747237182146,-0.1310747237182146
118.385,0.1153851231828118,-0.1153851231828118
118.386,0.08689891947684691,-0.08689891947684691
118.387,0.05108028362494843,-0.05108028362494843
118.388,0.015024248316179989,-0.015024248316179989
118.389,0.014545586736016913,0.014545586736016913
118.39,0.033032276632118496,0.033032276632118496
118.391,0.038941312736389344,0.038941312736389344
118.392,0.03383855209532394,0.03383855209532394
118.393,0.02140677516101297,0.02140677516101297
118.394,0.006006191941326344,0.006006191941326344
118.395,0.008729450264813532,-0.008729450264813532
118.396,0.02079864356847838,-0.02079864356847838
118.397,0.030002867684355117,-0.030002867684355117
118.398,0.0374345274900213,-0.0374345274900213
118.399,0.044576977068282786,-0.044576977068282786
118.4,0.052422067289530916,-0.052422067289530916
118.401,0.060958017647770424,-0.060958017647770424
118.402,0.069196781021024,-0.069196781021024
118.403,0.07567532532376464,-0.07567532532376464
118.404,0.07917418643009899,-0.07917418643009899
118.405,0.07932191998861238,-0.07932191998861238
118.406,0.07681920316953195,-0.07681920316953195
118.407,0.0731885717104378,-0.0731885717104378
118.408,0.07016107291530527,-0.07016107291530527
118.409,0.06896465464528434,-0.06896465464528434
118.41,0.06981921601879759,-0.06981921601879759
118.411,0.0718553854026911,-0.0718553854026911
118.412,0.0734958194024723,-0.0734958194024723
118.413,0.07314303301288794,-0.07314303301288794
118.414,0.06988674936095074,-0.06988674936095074
118.415,0.0639308591481279,-0.0639308591481279
118.416,0.05655187988066923,-0.05655187988066923
118.417,0.04959321755183643,-0.04959321755183643
118.418,0.044695083927938195,-0.044695083927938195
118.419,0.04257843573593223,-0.04257843573593223
118.42,0.042692013436146814,-0.042692013436146814
118.421,0.04339402734052178,-0.04339402734052178
118.422,0.04262551074285803,-0.04262551074285803
118.423,0.03882472930522618,-0.03882472930522618
118.424,0.03171551819313623,-0.03171551819313623
118.425,0.022628261571321362,-0.022628261571321362
118.426,0.014177402926123461,-0.014177402926123461
118.427,0.009365777755492632,-0.009365777755492632
118.428,0.010421065932191276,-0.010421065932191276
118.429,0.01780066202002384,-0.01780066202002384
118.43,0.029771362869466134,-0.029771362869466134
118.431,0.04278155598652622,-0.04278155598652622
118.432,0.05255877641992068,-0.05255877641992068
118.433,0.05558673529885616,-0.05558673529885616
118.434,0.05044804889647658,-0.05044804889647658
118.435,0.03853044071615552,-0.03853044071615552
118.436,0.023790548138557188,-0.023790548138557188
118.437,0.011588515927338894,-0.011588515927338894
118.438,0.006938890219659322,-0.006938890219659322
118.439,0.012750306911151199,-0.012750306911151199
118.44,0.028662710877593978,-0.028662710877593978
118.441,0.05091579515406752,-0.05091579515406752
118.442,0.0733494186441852,-0.0733494186441852
118.443,0.08925630064292556,-0.08925630064292556
118.444,0.09350910400156032,-0.09350910400156032
118.445,0.08427240064401065,-0.08427240064401065
118.446,0.0637271139408967,-0.0637271139408967
118.447,0.037545489924390885,-0.037545489924390885
118.448,0.013256983741855688,-0.013256983741855688
118.449,0.0019936685393062703,0.0019936685393062703
118.45,0.0035954078092490516,0.0035954078092490516
118.451,0.009146157045934578,-0.009146157045934578
118.452,0.03281962978276409,-0.03281962978276409
118.453,0.06095999240329952,-0.06095999240329952
118.454,0.08599907592676748,-0.08599907592676748
118.455,0.1014976086552275,-0.1014976086552275
118.456,0.10397056587590259,-0.10397056587590259
118.457,0.09376547310044858,-0.09376547310044858
118.458,0.07476603759054001,-0.07476603759054001
118.459,0.05306481640871463,-0.05306481640871463
118.46,0.035057772004574383,-0.035057772004574383
118.461,0.025565368855119952,-0.025565368855119952
118.462,0.026539791945323854,-0.026539791945323854
118.463,0.03670203879320111,-0.03670203879320111
118.464,0.05214553564242286,-0.05214553564242286
118.465,0.06764809821183793,-0.06764809821183793
118.466,0.07824360009807285,-0.07824360009807285
118.467,0.08056993191054573,-0.08056993191054573
118.468,0.07362753322947302,-0.07362753322947302
118.469,0.05880076830894865,-0.05880076830894865
118.47,0.03923298758254745,-0.03923298758254745
118.471,0.018826964284530567,-0.018826964284530567
118.472,0.001214517900602896,-0.001214517900602896
118.473,0.011006899137766313,0.011006899137766313
118.474,0.0166062085500307,0.0166062085500307
118.475,0.015619308784653452,0.015619308784653452
118.476,0.00895447028176255,0.00895447028176255
118.477,0.002094995461019322,-0.002094995461019322
118.478,0.01624356837972829,-0.01624356837972829
118.479,0.03240274607900595,-0.03240274607900595
118.48,0.0496601659706738,-0.0496601659706738
118.481,0.06712767040022627,-0.06712767040022627
118.482,0.08377676881499097,-0.08377676881499097
118.483,0.09836575628758903,-0.09836575628758903
118.484,0.10950896101685614,-0.10950896101685614
118.485,0.11587237831597408,-0.11587237831597408
118.486,0.11642923257849636,-0.11642923257849636
118.487,0.11069132155005779,-0.11069132155005779
118.488,0.09884884614173095,-0.09884884614173095
118.489,0.08178990569767453,-0.08178990569767453
118.49,0.061011065427995725,-0.061011065427995725
118.491,0.03845513265049527,-0.03845513265049527
118.492,0.016314344351692323,-0.016314344351692323
118.493,0.003178311875448925,0.003178311875448925
118.494,0.017966228238129656,0.017966228238129656
118.495,0.026399756386943585,0.026399756386943585
118.496,0.027474915343147943,0.027474915343147943
118.497,0.021049367478258807,0.021049367478258807
118.498,0.007977826790940279,0.007977826790940279
118.499,0.009901559349960842,-0.009901559349960842
118.5,0.0299795430706139,-0.0299795430706139
118.501,0.049287370755929816,-0.049287370755929816
