Czas,AbsSum,Sum
100.394,0.044753234185524016,-0.044753234185524016
100.395,0.08657360573403505,-0.08657360573403505
100.396,0.1170841318133733,-0.1170841318133733
100.397,0.1281874919461743,-0.1281874919461743
100.398,0.11791120830908386,-0.11791120830908386
100.399,0.09085770302573204,-0.09085770302573204
100.4,0.05656579189771194,-0.05656579189771194
100.401,0.026330814672259617,-0.026330814672259617
100.402,0.009535260861368355,-0.009535260861368355
100.403,0.010695223320138503,-0.010695223320138503
100.404,0.02817802813654624,-0.02817802813654624
100.405,0.054978742510834455,-0.054978742510834455
100.406,0.08125230934300565,-0.08125230934300565
100.407,0.0977191854067262,-0.0977191854067262
100.408,0.09879026000085522,-0.09879026000085522
100.409,0.08437848062060871,-0.08437848062060871
100.41,0.05983055146374072,-0.05983055146374072
100.411,0.034055773644968035,-0.034055773644968035
100.412,0.01652702209730117,-0.01652702209730117
100.413,0.014179338793452234,-0.014179338793452234
100.414,0.029224349588447995,-0.029224349588447995
100.415,0.05855034207161258,-0.05855034207161258
100.416,0.09482193325442179,-0.09482193325442179
100.417,0.1288292709564035,-0.1288292709564035
100.418,0.15225746752333957,-0.15225746752333957
100.419,0.15997115502197645,-0.15997115502197645
100.42,0.1511429047317644,-0.1511429047317644
100.421,0.12899508042321306,-0.12899508042321306
100.422,0.09940346001843503,-0.09940346001843503
100.423,0.06895683558739252,-0.06895683558739252
100.424,0.04316916077434407,-0.04316916077434407
100.425,0.025385944135352667,-0.025385944135352667
100.426,0.016596580952055295,-0.016596580952055295
100.427,0.01600019712560219,-0.01600019712560219
100.428,0.021917058262141187,-0.021917058262141187
100.429,0.03258006649632539,-0.03258006649632539
100.43,0.04648560645836064,-0.04648560645836064
100.431,0.06225202960759657,-0.06225202960759657
100.432,0.07820236118558266,-0.07820236118558266
100.433,0.0920361091235945,-0.0920361091235945
100.434,0.10091889039930768,-0.10091889039930768
100.435,0.10211418407692985,-0.10211418407692985
100.436,0.09399843594538693,-0.09399843594538693
100.437,0.07706459981887437,-0.07706459981887437
100.438,0.05443952403753871,-0.05443952403753871
100.439,0.03156470877107509,-0.03156470877107509
100.44,0.014981555894060139,-0.014981555894060139
100.441,0.010513378078001567,-0.010513378078001567
100.442,0.0214087500636041,-0.0214087500636041
100.443,0.04708985844220137,-0.04708985844220137
100.444,0.08299124311943473,-0.08299124311943473
100.445,0.12162486214277834,-0.12162486214277834
100.446,0.15458829380268302,-0.15458829380268302
100.447,0.17489662905186443,-0.17489662905186443
100.448,0.17889134361604142,-0.17889134361604142
100.449,0.1671125806092869,-0.1671125806092869
100.45,0.14387080635828242,-0.14387080635828242
100.451,0.11569550887424551,-0.11569550887424551
100.452,0.08921375475812454,-0.08921375475812454
100.453,0.06918574555240364,-0.06918574555240364
100.454,0.0573382059354558,-0.0573382059354558
100.455,0.05232609499491292,-0.05232609499491292
100.456,0.05073737628253516,-0.05073737628253516
100.457,0.048689792838877866,-0.048689792838877866
100.458,0.04338608662189103,-0.04338608662189103
100.459,0.03405619063529175,-0.03405619063529175
100.46,0.021988877694020248,-0.021988877694020248
100.461,0.009728538732289183,-0.009728538732289183
100.462,0.00016269343114072576,0.00016269343114072576
100.463,0.00622670576677864,0.00622670576677864
100.464,0.008642053586860321,0.008642053586860321
100.465,0.008963532729458157,0.008963532729458157
100.466,0.009212122993745409,0.009212122993745409
100.467,0.010741175557260174,0.010741175557260174
100.468,0.013405674301439685,0.013405674301439685
100.469,0.015438070572925344,0.015438070572925344
100.47,0.014135100122989686,0.014135100122989686
100.471,0.007106379090136672,0.007106379090136672
100.472,0.0064265410327615236,-0.0064265410327615236
100.473,0.024850392138377364,-0.024850392138377364
100.474,0.04429184747673354,-0.04429184747673354
100.475,0.05970202254261814,-0.05970202254261814
100.476,0.06654660853221483,-0.06654660853221483
100.477,0.062483818086782716,-0.062483818086782716
100.478,0.04837440833711815,-0.04837440833711815
100.479,0.028189184453926486,-0.028189184453926486
100.48,0.007783958116304168,-0.007783958116304168
100.481,0.007051453549148157,0.007051453549148157
100.482,0.012565198452243687,0.012565198452243687
100.483,0.008294004787903209,0.008294004787903209
100.484,0.0029005906935094528,-0.0029005906935094528
100.485,0.016052872255115203,-0.016052872255115203
100.486,0.02612819975421532,-0.02612819975421532
100.487,0.030098746203802484,-0.030098746203802484
100.488,0.028241416685412912,-0.028241416685412912
100.489,0.02411202601480844,-0.02411202601480844
100.49,0.02314626311729817,-0.02314626311729817
100.491,0.030375857934953565,-0.030375857934953565
100.492,0.048121723312640974,-0.048121723312640974
100.493,0.07458349597933933,-0.07458349597933933
100.494,0.10395039055768152,-0.10395039055768152
100.495,0.12810813883587768,-0.12810813883587768
100.496,0.13940885712824547,-0.13940885712824547
100.497,0.13353293089111795,-0.13353293089111795
100.498,0.11137749369342798,-0.11137749369342798
100.499,0.07920579322606758,-0.07920579322606758
100.5,0.04689107012448701,-0.04689107012448701
100.501,0.024777596371890587,-0.024777596371890587
100.502,0.020209274874107175,-0.020209274874107175
100.503,0.0349425249794153,-0.0349425249794153
100.504,0.06439131386215646,-0.06439131386215646
100.505,0.09903171640205799,-0.09903171640205799
100.506,0.12753586182468613,-0.12753586182468613
100.507,0.14058088069355146,-0.14058088069355146
100.508,0.13401611689610327,-0.13401611689610327
100.509,0.11027399885683287,-0.11027399885683287
100.51,0.07751317310159,-0.07751317310159
100.511,0.0467772976564137,-0.0467772976564137
100.512,0.0281571582291128,-0.0281571582291128
100.513,0.027303839915214678,-0.027303839915214678
100.514,0.04352353588350244,-0.04352353588350244
100.515,0.07012743043449932,-0.07012743043449932
100.516,0.09690890185085554,-0.09690890185085554
100.517,0.1138605533026229,-0.1138605533026229
100.518,0.11479813092771762,-0.11479813092771762
100.519,0.09958889714606545,-0.09958889714606545
100.52,0.07417997202514914,-0.07417997202514914
100.521,0.04841089460819359,-0.04841089460819359
100.522,0.03239219447403785,-0.03239219447403785
100.523,0.03275179608533951,-0.03275179608533951
100.524,0.05010594611309782,-0.05010594611309782
100.525,0.07867975737894906,-0.07867975737894906
100.526,0.1082374461131842,-0.1082374461131842
100.527,0.12765661635267223,-0.12765661635267223
100.528,0.12888925632983794,-0.12888925632983794
100.529,0.10990575975329997,-0.10990575975329997
100.53,0.07556975371584584,-0.07556975371584584
100.531,0.03611611711514939,-0.03611611711514939
100.532,0.0037454642763478097,-0.0037454642763478097
100.533,0.011491527235498955,0.011491527235498955
100.534,0.005098886732744168,0.005098886732744168
100.535,0.020342461265195566,-0.020342461265195566
100.536,0.05605132098326415,-0.05605132098326415
100.537,0.09000900135238954,-0.09000900135238954
100.538,0.11098381421296288,-0.11098381421296288
100.539,0.11224369506664988,-0.11224369506664988
100.54,0.09371170750261182,-0.09371170750261182
100.541,0.06187156500812252,-0.06187156500812252
100.542,0.027506908004636954,-0.027506908004636954
100.543,0.002086054201040244,-0.002086054201040244
100.544,0.005965487751062426,0.005965487751062426
100.545,0.006132172540551872,-0.006132172540551872
100.546,0.03484750242730261,-0.03484750242730261
100.547,0.07173843116989509,-0.07173843116989509
100.548,0.10635325894933623,-0.10635325894933623
100.549,0.12959407020937175,-0.12959407020937175
100.55,0.1364105598423938,-0.1364105598423938
100.551,0.12698731022326548,-0.12698731022326548
100.552,0.10614985850993519,-0.10614985850993519
100.553,0.08133516817417885,-0.08133516817417885
100.554,0.05993216437430793,-0.05993216437430793
100.555,0.04694783222632559,-0.04694783222632559
100.556,0.043761579337109,-0.043761579337109
100.557,0.048285365439895256,-0.048285365439895256
100.558,0.05632360229647626,-0.05632360229647626
100.559,0.06351629494665156,-0.06351629494665156
100.56,0.06709049322074445,-0.06709049322074445
100.561,0.06677906653958798,-0.06677906653958798
100.562,0.0646246587791125,-0.0646246587791125
100.563,0.06382583923499141,-0.06382583923499141
100.564,0.06713685051269869,-0.06713685051269869
100.565,0.07547720599176311,-0.07547720599176311
100.566,0.08730107974846857,-0.08730107974846857
100.567,0.0989707521948362,-0.0989707521948362
100.568,0.10599447701651732,-0.10599447701651732
100.569,0.10466986674175893,-0.10466986674175893
100.57,0.09353121121247543,-0.09353121121247543
100.571,0.07407591082994402,-0.07407591082994402
100.572,0.0505042289423252,-0.0505042289423252
100.573,0.028548930083782453,-0.028548930083782453
100.574,0.01377538911738152,-0.01377538911738152
100.575,0.009898001294849301,-0.009898001294849301
100.576,0.01763896491952832,-0.01763896491952832
100.577,0.034469807271879205,-0.034469807271879205
100.578,0.05529609308849992,-0.05529609308849992
100.579,0.07386651638440822,-0.07386651638440822
100.58,0.08449324477396591,-0.08449324477396591
100.581,0.08360863269890928,-0.08360863269890928
100.582,0.07075567870772981,-0.07075567870772981
100.583,0.048778489435231664,-0.048778489435231664
100.584,0.023187290878917577,-0.023187290878917577
100.585,0.0008644986775550034,-0.0008644986775550034
100.586,0.011584756729962509,0.011584756729962509
100.587,0.009469356519534733,0.009469356519534733
100.588,0.008725537404493888,-0.008725537404493888
100.589,0.04074341802914139,-0.04074341802914139
100.59,0.08080079650290795,-0.08080079650290795
100.591,0.12068269134841914,-0.12068269134841914
100.592,0.15151746669146116,-0.15151746669146116
100.593,0.16588147268026088,-0.16588147268026088
100.594,0.15975360322614718,-0.15975360322614718
100.595,0.13380423658440155,-0.13380423658440155
100.596,0.09359847967231638,-0.09359847967231638
100.597,0.048526081177722946,-0.048526081177722946
100.598,0.00960117212271483,-0.00960117212271483
100.599,0.013378617535486637,0.013378617535486637
100.6,0.014570122819203002,0.014570122819203002
100.601,0.006086180686812659,-0.006086180686812659
100.602,0.04257007418360137,-0.04257007418360137
100.603,0.08424016777412602,-0.08424016777412602
100.604,0.11874752029035784,-0.11874752029035784
100.605,0.13562282748025523,-0.13562282748025523
100.606,0.1294780155596038,-0.1294780155596038
100.607,0.10180362485609928,-0.10180362485609928
100.608,0.06071923248920863,-0.06071923248920863
100.609,0.018649072477299855,-0.018649072477299855
100.61,0.011437921170203591,0.011437921170203591
100.611,0.020085312604830596,0.020085312604830596
100.612,0.004413183834434342,0.004413183834434342
100.613,0.030834103415907088,-0.030834103415907088
100.614,0.07465958745316303,-0.07465958745316303
100.615,0.11322716393510479,-0.11322716393510479
100.616,0.1342541448899921,-0.1342541448899921
100.617,0.13096706950257098,-0.13096706950257098
100.618,0.10431565073665439,-0.10431565073665439
100.619,0.06269201624653031,-0.06269201624653031
100.62,0.019221083704618724,-0.019221083704618724
100.621,0.012499375250820455,0.012499375250820455
100.622,0.022801524191989664,0.022801524191989664
100.623,0.009027131506119224,0.009027131506119224
100.624,0.023742150134380746,-0.023742150134380746
100.625,0.06453656799363294,-0.06453656799363294
100.626,0.10028682856226323,-0.10028682856226323
100.627,0.12024444667681833,-0.12024444667681833
100.628,0.11951763074250032,-0.11951763074250032
100.629,0.1005195111503101,-0.1005195111503101
100.63,0.07185603263331486,-0.07185603263331486
100.631,0.04507489850299351,-0.04507489850299351
100.632,0.03044186932340942,-0.03044186932340942
100.633,0.03324489620930715,-0.03324489620930715
100.634,0.05193227299997949,-0.05193227299997949
100.635,0.07873665868853452,-0.07873665868853452
100.636,0.10255350666400909,-0.10255350666400909
100.637,0.11304236162858128,-0.11304236162858128
100.638,0.10448545960910272,-0.10448545960910272
100.639,0.07802315466246801,-0.07802315466246801
100.64,0.041458963819665184,-0.041458963819665184
100.641,0.006684801479935443,-0.006684801479935443
100.642,0.0143844005414544,0.0143844005414544
100.643,0.013953562911356077,0.013953562911356077
100.644,0.008871884369791583,-0.008871884369791583
100.645,0.047630700685366345,-0.047630700685366345
100.646,0.09053095223150043,-0.09053095223150043
100.647,0.12425742714772836,-0.12425742714772836
100.648,0.13826332741738634,-0.13826332741738634
100.649,0.12810616398683983,-0.12810616398683983
100.65,0.09674346306454407,-0.09674346306454407
100.651,0.05342153970473629,-0.05342153970473629
100.652,0.010610703412396116,-0.010610703412396116
100.653,0.019925333883355822,0.019925333883355822
100.654,0.030602985832758334,0.030602985832758334
100.655,0.01994174216039779,0.01994174216039779
100.656,0.007565090269248231,-0.007565090269248231
100.657,0.04340570489575535,-0.04340570489575535
100.658,0.07800639947671428,-0.07800639947671428
100.659,0.10360107656144002,-0.10360107656144002
100.66,0.11607037797835806,-0.11607037797835806
100.661,0.11528085660046128,-0.11528085660046128
100.662,0.10405861215463574,-0.10405861215463574
100.663,0.08642901563415173,-0.08642901563415173
100.664,0.06595967548013293,-0.06595967548013293
100.665,0.04489416013939629,-0.04489416013939629
100.666,0.024337971665212232,-0.024337971665212232
100.667,0.005242629564336854,-0.005242629564336854
100.668,0.010452434417980827,0.010452434417980827
100.669,0.019253215120154765,0.019253215120154765
100.67,0.01660876310794479,0.01660876310794479
100.671,0.0015231302997321672,-0.0015231302997321672
100.672,0.036567188507804604,-0.036567188507804604
100.673,0.0855529405811577,-0.0855529405811577
100.674,0.14055156682163017,-0.14055156682163017
100.675,0.18984941292559543,-0.18984941292559543
100.676,0.22076307966366604,-0.22076307966366604
100.677,0.2233505182515253,-0.2233505182515253
100.678,0.19383772231492202,-0.19383772231492202
100.679,0.13654292707391458,-0.13654292707391458
100.68,0.06348250478242201,-0.06348250478242201
100.681,0.008432617139630061,0.008432617139630061
100.682,0.061895042315042614,0.061895042315042614
100.683,0.0840714861177787,0.0840714861177787
100.684,0.07033624295969054,0.07033624295969054
100.685,0.025669388705662488,0.025669388705662488
100.686,0.03676037040795754,-0.03676037040795754
100.687,0.09941854130539063,-0.09941854130539063
100.688,0.14545922957035806,-0.14545922957035806
100.689,0.16345381033996909,-0.16345381033996909
100.69,0.15036145944668589,-0.15036145944668589
100.691,0.11189564291961696,-0.11189564291961696
100.692,0.06028714957891368,-0.06028714957891368
100.693,0.010264737798213464,-0.010264737798213464
100.694,0.02540176200024491,0.02540176200024491
100.695,0.03938710184077632,0.03938710184077632
100.696,0.031314649813815265,0.031314649813815265
100.697,0.00697526248338054,0.00697526248338054
100.698,0.024279331479992283,-0.024279331479992283
100.699,0.052949013439716586,-0.052949013439716586
100.7,0.0724045983336431,-0.0724045983336431
100.701,0.08055336980534245,-0.08055336980534245
100.702,0.0797373417620062,-0.0797373417620062
100.703,0.07509675381878333,-0.07509675381878333
100.704,0.07214433334563108,-0.07214433334563108
100.705,0.07450515591311824,-0.07450515591311824
100.706,0.08263001632407374,-0.08263001632407374
100.707,0.09386495920982563,-0.09386495920982563
100.708,0.10372894074544703,-0.10372894074544703
100.709,0.10781568375949213,-0.10781568375949213
100.71,0.1035478690599827,-0.1035478690599827
100.711,0.09112480750161966,-0.09112480750161966
100.712,0.07335736137258897,-0.07335736137258897
100.713,0.05452934396102904,-0.05452934396102904
100.714,0.038789552759133095,-0.038789552759133095
100.715,0.02872899449271482,-0.02872899449271482
100.716,0.024687409522203496,-0.024687409522203496
100.717,0.02501665189131641,-0.02501665189131641
100.718,0.02713668011884196,-0.02713668011884196
100.719,0.028907294257413674,-0.028907294257413674
100.72,0.029723981749871786,-0.029723981749871786
100.721,0.030868490465988163,-0.030868490465988163
100.722,0.03495143898714059,-0.03495143898714059
100.723,0.0446536513885426,-0.0446536513885426
100.724,0.06126192119166696,-0.06126192119166696
100.725,0.08359359725426241,-0.08359359725426241
100.726,0.10777623310993056,-0.10777623310993056
100.727,0.12804233849523805,-0.12804233849523805
100.728,0.13832896773480208,-0.13832896773480208
100.729,0.13417303174493067,-0.13417303174493067
100.73,0.11427291410550544,-0.11427291410550544
100.731,0.0811858570066406,-0.0811858570066406
100.732,0.04091043841957209,-0.04091043841957209
100.733,0.0014637365133299829,-0.0014637365133299829
100.734,0.029121220566082906,0.029121220566082906
100.735,0.04478428174582216,0.04478428174582216
100.736,0.042848137095572,0.042848137095572
100.737,0.024487564613853374,0.024487564613853374
100.738,0.005803840643381353,-0.005803840643381353
100.739,0.041518457622985894,-0.041518457622985894
100.74,0.07578642142868208,-0.07578642142868208
100.741,0.10290533793889156,-0.10290533793889156
100.742,0.11937834385842805,-0.11937834385842805
100.743,0.1242828280131969,-0.1242828280131969
100.744,0.11900207326087275,-0.11900207326087275
100.745,0.10651180136427707,-0.10651180136427707
100.746,0.09048382009582445,-0.09048382009582445
100.747,0.07444830664143753,-0.07444830664143753
100.748,0.06117466211632461,-0.06117466211632461
100.749,0.052332154493803684,-0.052332154493803684
100.75,0.04841354091175254,-0.04841354091175254
100.751,0.0488655056878865,-0.0488655056878865
100.752,0.05236443136688229,-0.05236443136688229
100.753,0.05718543753023697,-0.05718543753023697
100.754,0.06161650167304644,-0.06161650167304644
100.755,0.06435882388635861,-0.06435882388635861
100.756,0.06483654431709973,-0.06483654431709973
100.757,0.06333205524472607,-0.06333205524472607
100.758,0.06088592231985579,-0.06088592231985579
100.759,0.0589586827732812,-0.0589586827732812
100.76,0.05893195127730133,-0.05893195127730133
100.761,0.06159826694584103,-0.06159826694584103
100.762,0.06681849627350622,-0.06681849627350622
100.763,0.07348979167564584,-0.07348979167564584
100.764,0.07986842349886769,-0.07986842349886769
100.765,0.08416069199310039,-0.08416069199310039
100.766,0.08518089152554853,-0.08518089152554853
100.767,0.08282721983293806,-0.08282721983293806
100.768,0.07817263920992146,-0.07817263920992146
100.769,0.0731003202090782,-0.0731003202090782
100.77,0.06958818527756472,-0.06958818527756472
100.771,0.06889788208489145,-0.06889788208489145
100.772,0.0709869195201337,-0.0709869195201337
100.773,0.0744045531160673,-0.0744045531160673
100.774,0.0767639254085819,-0.0767639254085819
100.775,0.07566168571340082,-0.07566168571340082
100.776,0.0697247846684328,-0.0697247846684328
100.777,0.05938062762297813,-0.05938062762297813
100.778,0.04701349596532023,-0.04701349596532023
100.779,0.03637392569435438,-0.03637392569435438
100.78,0.031381102601877986,-0.031381102601877986
100.781,0.03470197412338705,-0.03470197412338705
100.782,0.04660975490339103,-0.04660975490339103
100.783,0.06456498367001562,-0.06456498367001562
100.784,0.0837345313354414,-0.0837345313354414
100.785,0.09834200736061482,-0.09834200736061482
100.786,0.10344008824903161,-0.10344008824903161
100.787,0.09652321687178833,-0.09652321687178833
100.788,0.0784265105383638,-0.0784265105383638
100.789,0.05318177613952968,-0.05318177613952968
100.79,0.026850225287057605,-0.026850225287057605
100.791,0.005702563232831248,-0.005702563232831248
100.792,0.005654600157955381,0.005654600157955381
100.793,0.005584977960089388,0.005584977960089388
100.794,0.004265135305364431,-0.004265135305364431
100.795,0.0197317110691122,-0.0197317110691122
100.796,0.03568706013957035,-0.03568706013957035
100.797,0.04782830499246837,-0.04782830499246837
100.798,0.054076464840362326,-0.054076464840362326
100.799,0.05511359499026747,-0.05511359499026747
100.8,0.05389972224734185,-0.05389972224734185
100.801,0.054373861514520616,-0.054373861514520616
100.802,0.05982423559744665,-0.05982423559744665
100.803,0.0715144467511627,-0.0715144467511627
100.804,0.08804446752000084,-0.08804446752000084
100.805,0.10565402472647178,-0.10565402472647178
100.806,0.11934439401429908,-0.11934439401429908
100.807,0.12442305298071155,-0.12442305298071155
100.808,0.11795643556147284,-0.11795643556147284
100.809,0.09968089977666084,-0.09968089977666084
100.81,0.07213352308015586,-0.07213352308015586
100.811,0.04003412649062399,-0.04003412649062399
100.812,0.009175671042827682,-0.009175671042827682
100.813,0.014814032339406813,0.014814032339406813
100.814,0.02751225809269675,0.02751225809269675
100.815,0.0263567560222433,0.0263567560222433
100.816,0.010900919890786787,0.010900919890786787
100.817,0.017225413078754803,-0.017225413078754803
100.818,0.05451802801329486,-0.05451802801329486
100.819,0.09589720266829704,-0.09589720266829704
100.82,0.1351413208235096,-0.1351413208235096
100.821,0.16556159712990326,-0.16556159712990326
100.822,0.18099851876229012,-0.18099851876229012
100.823,0.1770890864171072,-0.1770890864171072
100.824,0.1525634440198268,-0.1525634440198268
100.825,0.11016967026190727,-0.11016967026190727
100.826,0.056791419910220964,-0.056791419910220964
100.827,0.0024706306348786233,-0.0024706306348786233
100.828,0.04163924167346855,0.04163924167346855
100.829,0.06597776582643045,0.06597776582643045
100.83,0.06521087403905246,0.06521087403905246
100.831,0.03995455608996745,0.03995455608996745
100.832,0.0030729290524893482,-0.0030729290524893482
100.833,0.05269180518807426,-0.05269180518807426
100.834,0.09633878711691513,-0.09633878711691513
100.835,0.12370723401228989,-0.12370723401228989
100.836,0.1298077812850995,-0.1298077812850995
100.837,0.11641558665724516,-0.11641558665724516
100.838,0.09134779264492565,-0.09134779264492565
100.839,0.0657217371186194,-0.0657217371186194
100.84,0.05004608034521263,-0.05004608034521263
100.841,0.050443423058939674,-0.050443423058939674
100.842,0.06631959878851412,-0.06631959878851412
100.843,0.0903509880444554,-0.0903509880444554
100.844,0.11088986265071643,-0.11088986265071643
100.845,0.11604617409627604,-0.11604617409627604
100.846,0.09808709203126376,-0.09808709203126376
100.847,0.05663052817052616,-0.05663052817052616
100.848,0.0005286736918574952,0.0005286736918574952
100.849,0.05934091946822573,0.05934091946822573
100.85,0.10361731822331066,0.10361731822331066
100.851,0.12001639477595183,0.12001639477595183
100.852,0.10225570611348411,0.10225570611348411
100.853,0.05314247176092057,0.05314247176092057
100.854,0.01625347655674414,-0.01625347655674414
100.855,0.08999409640702039,-0.08999409640702039
100.856,0.15207815033188288,-0.15207815033188288
100.857,0.19103974822272707,-0.19103974822272707
100.858,0.20283104062072876,-0.20283104062072876
100.859,0.1911142751891063,-0.1911142751891063
100.86,0.16501909693444095,-0.16501909693444095
100.861,0.13531028463675476,-0.13531028463675476
100.862,0.11043775147321266,-0.11043775147321266
100.863,0.09391720068206988,-0.09391720068206988
100.864,0.08393215212946026,-0.08393215212946026
100.865,0.0751698414034957,-0.0751698414034957
100.866,0.0620374547265633,-0.0620374547265633
100.867,0.04187924389509545,-0.04187924389509545
100.868,0.016829369764463586,-0.016829369764463586
100.869,0.006514221027793088,0.006514221027793088
100.87,0.019531645916397444,0.019531645916397444
100.871,0.015206612658618557,0.015206612658618557
100.872,0.008517643904666361,-0.008517643904666361
100.873,0.047067372659589046,-0.047067372659589046
100.874,0.09006907869707304,-0.09006907869707304
100.875,0.12455341873505832,-0.12455341873505832
100.876,0.13946409086045353,-0.13946409086045353
100.877,0.12983166920123157,-0.12983166920123157
100.878,0.09900151198650409,-0.09900151198650409
100.879,0.05794865701261609,-0.05794865701261609
100.88,0.02175293093591102,-0.02175293093591102
100.881,0.004369645219934881,-0.004369645219934881
100.882,0.013519429410093764,-0.013519429410093764
100.883,0.04756494515925036,-0.04756494515925036
100.884,0.09560210710181549,-0.09560210710181549
100.885,0.14087977056641188,-0.14087977056641188
100.886,0.16646564069131697,-0.16646564069131697
100.887,0.1612298037527039,-0.1612298037527039
100.888,0.12403741494116205,-0.12403741494116205
100.889,0.06461153121310004,-0.06461153121310004
100.89,0.0006598750686808152,-0.0006598750686808152
100.891,0.047837138548212144,0.047837138548212144
100.892,0.06526649905610427,0.06526649905610427
100.893,0.04568168079609247,0.04568168079609247
100.894,0.005076369945995807,-0.005076369945995807
100.895,0.07119467384791767,-0.07119467384791767
100.896,0.13204751593960462,-0.13204751593960462
100.897,0.16895686653976383,-0.16895686653976383
100.898,0.17126491317772696,-0.17126491317772696
100.899,0.1396772694484485,-0.1396772694484485
100.9,0.0857864681235414,-0.0857864681235414
100.901,0.028002310506166306,-0.028002310506166306
100.902,0.014664787886189634,0.014664787886189634
100.903,0.028822768632628337,0.028822768632628337
100.904,0.010831119851199444,0.010831119851199444
100.905,0.032463930949702235,-0.032463930949702235
100.906,0.08649790103120591,-0.08649790103120591
100.907,0.13416280328300012,-0.13416280328300012
100.908,0.16151300637714117,-0.16151300637714117
100.909,0.162034074280759,-0.162034074280759
100.91,0.13810647000156173,-0.13810647000156173
100.911,0.0993497574548472,-0.0993497574548472
100.912,0.058646755008419094,-0.058646755008419094
100.913,0.027419574871349273,-0.027419574871349273
100.914,0.011897132814098321,-0.011897132814098321
100.915,0.011642448382818249,-0.011642448382818249
100.916,0.020698285440957975,-0.020698285440957975
100.917,0.03071520867748667,-0.03071520867748667
100.918,0.03471884573521555,-0.03471884573521555
100.919,0.030004842510003793,-0.030004842510003793
100.92,0.019062581791322586,-0.019062581791322586
100.921,0.008244975751391381,-0.008244975751391381
100.922,0.004797996339582777,-0.004797996339582777
100.923,0.013495891587706033,-0.013495891587706033
100.924,0.03426165421385685,-0.03426165421385685
100.925,0.06174802804890389,-0.06174802804890389
100.926,0.08707835075413939,-0.08707835075413939
100.927,0.10110270536000632,-0.10110270536000632
100.928,0.09793645128528361,-0.09793645128528361
100.929,0.0774349107344311,-0.0774349107344311
100.93,0.045654911493416606,-0.045654911493416606
100.931,0.013102391732372265,-0.013102391732372265
100.932,0.008622469324177207,0.008622469324177207
100.933,0.01059998058639322,0.01059998058639322
100.934,0.010521169644028494,-0.010521169644028494
100.935,0.051474882638255726,-0.051474882638255726
100.936,0.10343551063853196,-0.10343551063853196
100.937,0.15470525570871785,-0.15470525570871785
100.938,0.19402694701383139,-0.19402694701383139
100.939,0.21339390336027986,-0.21339390336027986
100.94,0.20952780065376997,-0.20952780065376997
100.941,0.183773646188927,-0.183773646188927
100.942,0.14077207367242084,-0.14077207367242084
100.943,0.08666749662008966,-0.08666749662008966
100.944,0.027650008387008485,-0.027650008387008485
100.945,0.030680701158866786,0.030680701158866786
100.946,0.08314183130971298,0.08314183130971298
100.947,0.12445211284203106,0.12445211284203106
100.948,0.14903922669787395,0.14903922669787395
100.949,0.15167558728465935,0.15167558728465935
100.95,0.12899591475519445,0.12899591475519445
100.951,0.08140495254058844,0.08140495254058844
100.952,0.014501314799831633,0.014501314799831633
100.953,0.06087427253732769,-0.06087427253732769
100.954,0.13045433498528014,-0.13045433498528014
100.955,0.1800099434164837,-0.1800099434164837
100.956,0.19951813846193112,-0.19951813846193112
100.957,0.1866245416236404,-0.1866245416236404
100.958,0.14803533324966212,-0.14803533324966212
100.959,0.09805805505072829,-0.09805805505072829
100.96,0.054469679822777284,-0.054469679822777284
100.961,0.03288878709667786,-0.03288878709667786
100.962,0.04148718395511253,-0.04148718395511253
100.963,0.07791506336548626,-0.07791506336548626
100.964,0.12966756173997906,-0.12966756173997906
100.965,0.17797830707081352,-0.17797830707081352
100.966,0.20407498179658168,-0.20407498179658168
100.967,0.1957254866934589,-0.1957254866934589
100.968,0.15179230473239425,-0.15179230473239425
100.969,0.08311109632577662,-0.08311109632577662
100.97,0.009239982825040682,-0.009239982825040682
100.971,0.04792843060842866,0.04792843060842866
100.972,0.07155269758992278,0.07155269758992278
100.973,0.05566200758263662,0.05566200758263662
100.974,0.0073231632794446,0.0073231632794446
100.975,0.055694225480805826,-0.055694225480805826
100.976,0.11102848282549715,-0.11102848282549715
100.977,0.13952952103727034,-0.13952952103727034
100.978,0.1320257840275214,-0.1320257840275214
100.979,0.09263782766641204,-0.09263782766641204
100.98,0.03740376609082385,-0.03740376609082385
100.981,0.011372622499681295,0.011372622499681295
100.982,0.033111143326314485,0.033111143326314485
100.983,0.016478020603142296,0.016478020603142296
100.984,0.03624012911055241,-0.03624012911055241
100.985,0.10951568520778487,-0.10951568520778487
100.986,0.17965415606791024,-0.17965415606791024
100.987,0.22284174059305373,-0.22284174059305373
100.988,0.2233747854391298,-0.2233747854391298
100.989,0.17918820380283185,-0.17918820380283185
100.99,0.1027276993549624,-0.1027276993549624
100.991,0.01683493442625994,-0.01683493442625994
100.992,0.05293693479834527,0.05293693479834527
100.993,0.08690667346023107,0.08690667346023107
100.994,0.07776306515652265,0.07776306515652265
100.995,0.03273084193329323,0.03273084193329323
100.996,0.029315816697264796,-0.029315816697264796
100.997,0.08473812251930002,-0.08473812251930002
100.998,0.1135672111076762,-0.1135672111076762
100.999,0.10651517955684897,-0.10651517955684897
101.0,0.06811419662668194,-0.06811419662668194
101.001,0.014916089489000361,-0.014916089489000361
101.002,0.030572371999809,0.030572371999809
101.003,0.048055298636539234,0.048055298636539234
101.004,0.026837869999645658,0.026837869999645658
101.005,0.03013530329537073,-0.03013530329537073
101.006,0.10697600804637097,-0.10697600804637097
101.007,0.1800102537138244,-0.1800102537138244
101.008,0.22559623527174,-0.22559623527174
101.009,0.22792468120594989,-0.22792468120594989
101.01,0.18418876142448637,-0.18418876142448637
101.011,0.10546691949822007,-0.10546691949822007
101.012,0.013150493261939178,-0.013150493261939178
101.013,0.06776328210911076,0.06776328210911076
101.014,0.11621508330587327,0.11621508330587327
101.015,0.12101246640592445,0.12101246640592445
101.016,0.08337208871745583,0.08337208871745583
101.017,0.015535274361642148,0.015535274361642148
101.018,0.06375774559691627,-0.06375774559691627
101.019,0.13519516338591175,-0.13519516338591175
101.02,0.1842021592222105,-0.1842021592222105
101.021,0.20404625384006125,-0.20404625384006125
101.022,0.19609038309236826,-0.19609038309236826
101.023,0.16759893499963574,-0.16759893499963574
101.024,0.12828218875871988,-0.12828218875871988
101.025,0.08701233016835697,-0.08701233016835697
101.026,0.0498237728353641,-0.0498237728353641
101.027,0.019607026175715525,-0.019607026175715525
101.028,0.0028619004977965545,0.0028619004977965545
101.029,0.017426524318214565,0.017426524318214565
101.03,0.023524765084781407,0.023524765084781407
101.031,0.02019559750846578,0.02019559750846578
101.032,0.007061217151336674,0.007061217151336674
101.033,0.014341332192428058,-0.014341332192428058
101.034,0.03976103620865057,-0.03976103620865057
101.035,0.06266550808841798,-0.06266550808841798
101.036,0.07605265748309598,-0.07605265748309598
101.037,0.07510413933139204,-0.07510413933139204
101.038,0.059631247237540985,-0.059631247237540985
101.039,0.03517040093615509,-0.03517040093615509
101.04,0.011989889907682016,-0.011989889907682016
101.041,0.0020438694467704854,-0.0020438694467704854
101.042,0.014760779394101697,-0.014760779394101697
101.043,0.05313573695268248,-0.05313573695268248
101.044,0.11164999861126446,-0.11164999861126446
101.045,0.17700057155531956,-0.17700057155531956
101.046,0.231656541558254,-0.231656541558254
101.047,0.25921061824904945,-0.25921061824904945
101.048,0.2497613771823738,-0.2497613771823738
101.049,0.2034402689524042,-0.2034402689524042
101.05,0.13076529627351285,-0.13076529627351285
101.051,0.04958007748283666,-0.04958007748283666
101.052,0.020456655772161936,0.020456655772161936
101.053,0.0639721566371545,0.0639721566371545
101.054,0.07447033816579318,0.07447033816579318
101.055,0.05582690964773884,0.05582690964773884
101.056,0.020204120862586716,0.020204120862586716
101.057,0.016810296490845533,-0.016810296490845533
101.058,0.042030550372157416,-0.042030550372157416
101.059,0.04931339813997693,-0.04931339813997693
101.06,0.041312352960706455,-0.041312352960706455
101.061,0.02773698149069337,-0.02773698149069337
101.062,0.020835971347660243,-0.020835971347660243
101.063,0.029889201831202694,-0.029889201831202694
101.064,0.05689283654837729,-0.05689283654837729
101.065,0.09518974233439048,-0.09518974233439048
101.066,0.13168304903054961,-0.13168304903054961
101.067,0.15188236421400003,-0.15188236421400003
101.068,0.14589201327341206,-0.14589201327341206
101.069,0.11299997250378369,-0.11299997250378369
101.07,0.06295789567350463,-0.06295789567350463
101.071,0.013223057387783288,-0.013223057387783288
101.072,0.017056638571667726,0.017056638571667726
101.073,0.014248326364693975,0.014248326364693975
101.074,0.02400686720670786,-0.02400686720670786
101.075,0.08673638448391652,-0.08673638448391652
101.076,0.15230306731498322,-0.15230306731498322
101.077,0.19515633196582516,-0.19515633196582516
101.078,0.19452278981628868,-0.19452278981628868
101.079,0.14209216515142498,-0.14209216515142498
101.08,0.04596949257774541,-0.04596949257774541
101.081,0.07065256586309299,0.07065256586309299
101.082,0.1758886390645804,0.1758886390645804
101.083,0.23867823983158476,0.23867823983158476
101.084,0.23837938115937418,0.23837938115937418
101.085,0.1713094572578937,0.1713094572578937
101.086,0.05208105842765609,0.05208105842765609
101.087,0.09071283579709066,-0.09071283579709066
101.088,0.22305361848295413,-0.22305361848295413
101.089,0.31550644750794077,-0.31550644750794077
101.09,0.35146772063513776,-0.35146772063513776
101.091,0.3310805149315741,-0.3310805149315741
101.092,0.2697359440274004,-0.2697359440274004
101.093,0.19188880479872794,-0.19188880479872794
101.094,0.12243013176258555,-0.12243013176258555
101.095,0.07857465167979161,-0.07857465167979161
101.096,0.06492087135113644,-0.06492087135113644
101.097,0.07316153825972282,-0.07316153825972282
101.098,0.0862936541824505,-0.0862936541824505
101.099,0.08566855136773899,-0.08566855136773899
101.1,0.05833922307475181,-0.05833922307475181
101.101,0.002175428339433405,-0.002175428339433405
101.102,0.07291911652527183,0.07291911652527183
101.103,0.14797228088054593,0.14797228088054593
101.104,0.20097080591275773,0.20097080591275773
101.105,0.21387117962057567,0.21387117962057567
101.106,0.17830093175799733,0.17830093175799733
101.107,0.09820778308269662,0.09820778308269662
101.108,0.011206834801997467,-0.011206834801997467
101.109,0.12772387422779896,-0.12772387422779896
101.11,0.22803630960198085,-0.22803630960198085
101.111,0.2935248907477308,-0.2935248907477308
101.112,0.31428324111206984,-0.31428324111206984
101.113,0.2905137646339836,-0.2905137646339836
101.114,0.2313054652911286,-0.2313054652911286
101.115,0.15154792646613002,-0.15154792646613002
101.116,0.06810894738090834,-0.06810894738090834
101.117,0.0036526140489225867,0.0036526140489225867
101.118,0.052346844384689506,0.052346844384689506
101.119,0.07178887602757666,0.07178887602757666
101.12,0.06121026858098122,0.06121026858098122
101.121,0.024808136609831166,0.024808136609831166
101.122,0.02908097038242685,-0.02908097038242685
101.123,0.08910101148297911,-0.08910101148297911
101.124,0.14238306166974968,-0.14238306166974968
101.125,0.17654228702613917,-0.17654228702613917
101.126,0.18207953799758292,-0.18207953799758292
101.127,0.15479096378626067,-0.15479096378626067
101.128,0.0975180215787419,-0.0975180215787419
101.129,0.020508975710498922,-0.020508975710498922
101.13,0.06009187784576331,0.06009187784576331
101.131,0.12559063164801687,0.12559063164801687
101.132,0.1592545063437656,0.1592545063437656
101.133,0.1508028457361017,0.1508028457361017
101.134,0.09952381809674704,0.09952381809674704
101.135,0.014946108454174656,0.014946108454174656
101.136,0.08531858971426387,-0.08531858971426387
101.137,0.1800666277883355,-0.1800666277883355
101.138,0.25005679693206473,-0.25005679693206473
101.139,0.28296916124440996,-0.28296916124440996
101.14,0.27626278101161794,-0.27626278101161794
101.141,0.23708988776502526,-0.23708988776502526
101.142,0.1793802658658804,-0.1793802658658804
101.143,0.11913108618439738,-0.11913108618439738
101.144,0.06950214426424506,-0.06950214426424506
101.145,0.037325607689900564,-0.037325607689900564
101.146,0.02209187501339882,-0.02209187501339882
101.147,0.01756807926233217,-0.01756807926233217
101.148,0.015271039100903216,-0.015271039100903216
101.149,0.008389210161337313,-0.008389210161337313
101.15,0.005348949045114626,0.005348949045114626
101.151,0.02290352450398614,0.02290352450398614
101.152,0.037455557179142396,0.037455557179142396
101.153,0.04155443686050719,0.04155443686050719
101.154,0.03057347409519573,0.03057347409519573
101.155,0.005057850553334964,0.005057850553334964
101.156,0.029012435307084194,-0.029012435307084194
101.157,0.0622043712488517,-0.0622043712488517
101.158,0.08513290327142475,-0.08513290327142475
101.159,0.09214029422342196,-0.09214029422342196
101.16,0.08370506598823402,-0.08370506598823402
101.161,0.06657782653818889,-0.06657782653818889
101.162,0.05148005988014415,-0.05148005988014415
101.163,0.04912320605697762,-0.04912320605697762
101.164,0.06596538221377135,-0.06596538221377135
101.165,0.10127249843371755,-0.10127249843371755
101.166,0.14662694419166844,-0.14662694419166844
101.167,0.18817844600709,-0.18817844600709
101.168,0.21096198188429005,-0.21096198188429005
101.169,0.20386489885674286,-0.20386489885674286
101.17,0.16357491188067563,-0.16357491188067563
101.171,0.0961694270047625,-0.0961694270047625
101.172,0.015794091708377755,-0.015794091708377755
101.173,0.05915648877600743,0.05915648877600743
101.174,0.1111376211506736,0.1111376211506736
101.175,0.1282403168423054,0.1282403168423054
101.176,0.10723801394332133,0.10723801394332133
101.177,0.05409198475653443,0.05409198475653443
101.178,0.01804540728607351,-0.01804540728607351
101.179,0.09253226312256047,-0.09253226312256047
101.18,0.15342142028948158,-0.15342142028948158
101.181,0.1889257577837642,-0.1889257577837642
101.182,0.19337045651042872,-0.19337045651042872
101.183,0.16743975881293793,-0.16743975881293793
101.184,0.11707710738744659,-0.11707710738744659
101.185,0.05170195161321578,-0.05170195161321578
101.186,0.017611063869677368,0.017611063869677368
101.187,0.07961718438040966,0.07961718438040966
101.188,0.12403435979615551,0.12403435979615551
101.189,0.1425557720937487,0.1425557720937487
101.19,0.1299872606950283,0.1299872606950283
101.191,0.08552907202899496,0.08552907202899496
101.192,0.01387926756302571,0.01387926756302571
101.193,0.07442746318954552,-0.07442746318954552
101.194,0.16403885312835853,-0.16403885312835853
101.195,0.23743102700102003,-0.23743102700102003
101.196,0.27887042760028935,-0.27887042760028935
101.197,0.27875457800462466,-0.27875457800462466
101.198,0.23699025110822702,-0.23699025110822702
101.199,0.1641029682135946,-0.1641029682135946
101.2,0.07931585134463404,-0.07931585134463404
101.201,0.005761807870512503,-0.005761807870512503
101.202,0.035994723736995526,0.035994723736995526
101.203,0.0342187339846185,0.0342187339846185
101.204,0.01000598322363555,-0.01000598322363555
101.205,0.08255574536491472,-0.08255574536491472
101.206,0.1601770828796849,-0.1601770828796849
101.207,0.2175301372306946,-0.2175301372306946
101.208,0.23524015017272626,-0.23524015017272626
101.209,0.20635084266185677,-0.20635084266185677
101.21,0.1389521008575093,-0.1389521008575093
101.211,0.05391730923409377,-0.05391730923409377
101.212,0.021721503472367676,0.021721503472367676
101.213,0.06373373087959444,0.06373373087959444
101.214,0.059072152825630386,0.059072152825630386
101.215,0.010821677246452666,0.010821677246452666
101.216,0.06211491808717429,-0.06211491808717429
101.217,0.13073830020836186,-0.13073830020836186
101.218,0.16542154124836494,-0.16542154124836494
101.219,0.14614701222323356,-0.14614701222323356
101.22,0.07015123476938079,-0.07015123476938079
101.221,0.04566756007353501,0.04566756007353501
101.222,0.16862023791382197,0.16862023791382197
101.223,0.25942723758745223,0.25942723758745223
101.224,0.284063814401601,0.284063814401601
101.225,0.22464731416949824,0.22464731416949824
101.226,0.08596894047688197,0.08596894047688197
101.227,0.1044547606898335,-0.1044547606898335
101.228,0.30299194644547855,-0.30299194644547855
101.229,0.46134191794751067,-0.46134191794751067
101.23,0.5395454413953359,-0.5395454413953359
101.231,0.5168356771928706,-0.5168356771928706
101.232,0.39727133760302136,-0.39727133760302136
101.233,0.20864607077984376,-0.20864607077984376
101.234,0.004884446647313467,0.004884446647313467
101.235,0.19426675169102503,0.19426675169102503
101.236,0.3178687340173165,0.3178687340173165
101.237,0.35134375868006296,0.35134375868006296
101.238,0.292590746784986,0.292590746784986
101.239,0.1608450171980933,0.1608450171980933
101.24,0.009429239825630709,-0.009429239825630709
101.241,0.17786103666367548,-0.17786103666367548
101.242,0.3080729865940238,-0.3080729865940238
101.243,0.3756447833475931,-0.3756447833475931
101.244,0.3723981684537737,-0.3723981684537737
101.245,0.3063970904566812,-0.3063970904566812
101.246,0.19819955812472,-0.19819955812472
101.247,0.07474260786815501,-0.07474260786815501
101.248,0.03738698380088734,0.03738698380088734
101.249,0.1176635103280721,0.1176635103280721
101.25,0.15517567436249347,0.15517567436249347
101.251,0.14955869614253614,0.14955869614253614
101.252,0.10950029253256299,0.10950029253256299
101.253,0.04950984503328404,0.04950984503328404
101.254,0.01410285560253588,-0.01410285560253588
101.255,0.0670735503844605,-0.0670735503844605
101.256,0.10005914240423897,-0.10005914240423897
101.257,0.1100415944644022,-0.1100415944644022
101.258,0.10010887790783896,-0.10010887790783896
101.259,0.07781098686964949,-0.07781098686964949
101.26,0.05258581431117848,-0.05258581431117848
101.261,0.032944658980554764,-0.032944658980554764
101.262,0.024155704887458218,-0.024155704887458218
101.263,0.02703853313841431,-0.02703853313841431
101.264,0.03819100806819187,-0.03819100806819187
101.265,0.05156720151117844,-0.05156720151117844
101.266,0.06091300291640289,-0.06091300291640289
101.267,0.06227009527892369,-0.06227009527892369
101.268,0.055689063007339,-0.055689063007339
101.269,0.04549999407414729,-0.04549999407414729
101.27,0.03893718513267541,-0.03893718513267541
101.271,0.04347692026504868,-0.04347692026504868
101.272,0.06374024397654221,-0.06374024397654221
101.273,0.09905488225011316,-0.09905488225011316
101.274,0.14264937755296325,-0.14264937755296325
101.275,0.18297329373218452,-0.18297329373218452
101.276,0.20693400568139875,-0.20693400568139875
101.277,0.20414051261891564,-0.20414051261891564
101.278,0.17079557354694364,-0.17079557354694364
101.279,0.11186002181056187,-0.11186002181056187
101.28,0.04057094249422721,-0.04057094249422721
101.281,0.02479145862426857,0.02479145862426857
101.282,0.06607808216571764,0.06607808216571764
101.283,0.07086472491103413,0.07086472491103413
101.284,0.0366924188276736,0.0366924188276736
101.285,0.027496933792412026,-0.027496933792412026
101.286,0.10336158918444982,-0.10336158918444982
101.287,0.16816061580326835,-0.16816061580326835
101.288,0.20134101921486391,-0.20134101921486391
101.289,0.19073944407125687,-0.19073944407125687
101.29,0.13648135347380752,-0.13648135347380752
101.291,0.05132739791653529,-0.05132739791653529
101.292,0.04270735846481233,0.04270735846481233
101.293,0.1204904477280555,0.1204904477280555
101.294,0.16084542158440374,0.16084542158440374
101.295,0.1524600521797732,0.1524600521797732
101.296,0.09689989598179793,0.09689989598179793
101.297,0.00789972338233702,0.00789972338233702
101.298,0.09275572118024145,-0.09275572118024145
101.299,0.18143703340313033,-0.18143703340313033
101.3,0.23906336039711995,-0.23906336039711995
101.301,0.25581554258751527,-0.25581554258751527
101.302,0.23290172315000368,-0.23290172315000368
101.303,0.18106571677926664,-0.18106571677926664
101.304,0.11652707062696432,-0.11652707062696432
101.305,0.055768148442340015,-0.055768148442340015
101.306,0.01082806109006762,-0.01082806109006762
101.307,0.013519229339840955,0.013519229339840955
101.308,0.02001121346934731,0.02001121346934731
101.309,0.016723964913188505,0.016723964913188505
101.31,0.013372061857544804,0.013372061857544804
101.311,0.017378729001710225,0.017378729001710225
101.312,0.030991338908616273,0.030991338908616273
101.313,0.05030953369732427,0.05030953369732427
101.314,0.06645527672238982,0.06645527672238982
101.315,0.06845561198682959,0.06845561198682959
101.316,0.04692380047687128,0.04692380047687128
101.317,0.0025647672430401114,-0.0025647672430401114
101.318,0.07737477731385634,-0.07737477731385634
101.319,0.16758087136157984,-0.16758087136157984
101.32,0.2576848944676282,-0.2576848944676282
101.321,0.32986499667628666,-0.32986499667628666
101.322,0.3679775716277136,-0.3679775716277136
101.323,0.36137042269631914,-0.36137042269631914
101.324,0.3076197073496285,-0.3076197073496285
101.325,0.21354528087977453,-0.21354528087977453
101.326,0.09423051048123954,-0.09423051048123954
101.327,0.02980050710817439,0.02980050710817439
101.328,0.13669226689675118,0.13669226689675118
101.329,0.20779515089722733,0.20779515089722733
101.33,0.23163652079177877,0.23163652079177877
101.331,0.20640638806925837,0.20640638806925837
101.332,0.14033024249668435,0.14033024249668435
101.333,0.049766880421769466,0.049766880421769466
101.334,0.04458725802621932,-0.04458725802621932
101.335,0.12251591563981123,-0.12251591563981123
101.336,0.1689535782879591,-0.1689535782879591
101.337,0.17733469827872117,-0.17733469827872117
101.338,0.15076352526134706,-0.15076352526134706
101.339,0.10071595203066963,-0.10071595203066963
101.34,0.04365584010177659,-0.04365584010177659
101.341,0.0034749687017361364,0.0034749687017361364
101.342,0.027630422229709684,0.027630422229709684
101.343,0.022706345196171096,0.022706345196171096
101.344,0.009503625549032058,-0.009503625549032058
101.345,0.06055256712490542,-0.06055256712490542
101.346,0.11823216455572616,-0.11823216455572616
101.347,0.17010225175602367,-0.17010225175602367
101.348,0.2065458760725215,-0.2065458760725215
101.349,0.2225123347707959,-0.2225123347707959
101.35,0.21765004129253163,-0.21765004129253163
101.351,0.19512798530621833,-0.19512798530621833
101.352,0.15987314208581405,-0.15987314208581405
101.353,0.11705320856497436,-0.11705320856497436
101.354,0.07138132359104798,-0.07138132359104798
101.355,0.027327549648538008,-0.027327549648538008
101.356,0.01019259339319789,0.01019259339319789
101.357,0.03538689128459804,0.03538689128459804
101.358,0.0420890322990044,0.0420890322990044
101.359,0.02544731013537538,0.02544731013537538
101.36,0.015581938386914684,-0.015581938386914684
101.361,0.07589501766645546,-0.07589501766645546
101.362,0.1432631518440799,-0.1432631518440799
101.363,0.19967675627816728,-0.19967675627816728
101.364,0.22524902645440037,-0.22524902645440037
101.365,0.20393664387873833,-0.20393664387873833
101.366,0.12945383320220605,-0.12945383320220605
101.367,0.00933691129646863,-0.00933691129646863
101.368,0.13460679849558632,0.13460679849558632
101.369,0.2702617783409125,0.2702617783409125
101.37,0.36297495127029067,0.36297495127029067
101.371,0.3851533303415271,0.3851533303415271
101.372,0.324848330537292,0.324848330537292
101.373,0.19050296627254015,0.19050296627254015
101.374,0.01001213615033869,0.01001213615033869
101.375,0.1760710796089502,-0.1760710796089502
101.376,0.32547494400922394,-0.32547494400922394
101.377,0.40613990315721715,-0.40613990315721715
101.378,0.4054850174216068,-0.4054850174216068
101.379,0.3340231462578923,-0.3340231462578923
101.38,0.2220164347582404,-0.2220164347582404
101.381,0.11004080353351686,-0.11004080353351686
101.382,0.03630209285156205,-0.03630209285156205
101.383,0.024656012162226015,-0.024656012162226015
101.384,0.07713545801303656,-0.07713545801303656
101.385,0.1733986142570917,-0.1733986142570917
101.386,0.2773122225878871,-0.2773122225878871
101.387,0.34858878725848963,-0.34858878725848963
101.388,0.3557606971501983,-0.3557606971501983
101.389,0.2863438303958803,-0.2863438303958803
101.39,0.15096569768452117,-0.15096569768452117
101.391,0.019795306956019276,0.019795306956019276
101.392,0.18474756989472874,0.18474756989472874
101.393,0.30451516461139905,0.30451516461139905
101.394,0.3530404411706132,0.3530404411706132
101.395,0.32454748402462585,0.32454748402462585
101.396,0.23393695895260636,0.23393695895260636
101.397,0.11079192393709958,0.11079192393709958
101.398,0.010745650448816257,-0.010745650448816257
101.399,0.10271240306261575,-0.10271240306261575
101.4,0.1511288438686339,-0.1511288438686339
101.401,0.15849149701641618,-0.15849149701641618
101.402,0.14049568460363349,-0.14049568460363349
101.403,0.11852988476841442,-0.11852988476841442
101.404,0.11086030884751197,-0.11086030884751197
101.405,0.12572618248255585,-0.12572618248255585
101.406,0.15872502305422187,-0.15872502305422187
101.407,0.1952188102733291,-0.1952188102733291
101.408,0.21664672435360977,-0.21664672435360977
101.409,0.20825042232064395,-0.20825042232064395
101.41,0.16528188885080497,-0.16528188885080497
101.411,0.09540041288883694,-0.09540041288883694
101.412,0.016415911100106317,-0.016415911100106317
101.413,0.04974313987636747,0.04974313987636747
101.414,0.08459538219052853,0.08459538219052853
101.415,0.07944284060096307,0.07944284060096307
101.416,0.03820620135746955,0.03820620135746955
101.417,0.024206947018154623,-0.024206947018154623
101.418,0.08733598005949594,-0.08733598005949594
101.419,0.13237839163171738,-0.13237839163171738
101.42,0.14855176262073289,-0.14855176262073289
101.421,0.13634053678501412,-0.13634053678501412
101.422,0.10653641715476114,-0.10653641715476114
101.423,0.07553070296764475,-0.07553070296764475
101.424,0.05867352077152188,-0.05867352077152188
101.425,0.0641904266717066,-0.0641904266717066
101.426,0.08990724409953366,-0.08990724409953366
101.427,0.12397953512954563,-0.12397953512954563
101.428,0.14934654892970278,-0.14934654892970278
101.429,0.15026968490654102,-0.15026968490654102
101.43,0.11856103780211946,-0.11856103780211946
101.431,0.057222146496060944,-0.057222146496060944
101.432,0.019855197554833337,0.019855197554833337
101.433,0.09206846925438605,0.09206846925438605
101.434,0.13873332828591955,0.13873332828591955
101.435,0.14587621194328748,0.14587621194328748
101.436,0.1108618539171613,0.1108618539171613
101.437,0.0432963388160581,0.0432963388160581
101.438,0.03805739567087951,-0.03805739567087951
101.439,0.11125500099673913,-0.11125500099673913
101.44,0.15799096266411428,-0.15799096266411428
101.441,0.16899488341853697,-0.16899488341853697
101.442,0.14629292481000367,-0.14629292481000367
101.443,0.10174227685576898,-0.10174227685576898
101.444,0.05251978746696595,-0.05251978746696595
101.445,0.015229703478617629,-0.015229703478617629
101.446,0.0006649263386488968,-0.0006649263386488968
101.447,0.01091383977044924,-0.01091383977044924
101.448,0.0396046263995955,-0.0396046263995955
101.449,0.07496100806614303,-0.07496100806614303
101.45,0.10440562421918342,-0.10440562421918342
101.451,0.11900396582937556,-0.11900396582937556
101.452,0.11621762909596212,-0.11621762909596212
101.453,0.10013248042353329,-0.10013248042353329
101.454,0.07927080646923823,-0.07927080646923823
101.455,0.06294227845835831,-0.06294227845835831
101.456,0.05754686933786124,-0.05754686933786124
101.457,0.06417687629892066,-0.06417687629892066
101.458,0.07832950882211087,-0.07832950882211087
101.459,0.09175108711837687,-0.09175108711837687
101.46,0.09567883870855065,-0.09567883870855065
101.461,0.08428584519533955,-0.08428584519533955
101.462,0.057109491268105494,-0.057109491268105494
101.463,0.019635609957968536,-0.019635609957968536
101.464,0.0181395577461394,0.0181395577461394
101.465,0.044673848610818245,0.044673848610818245
101.466,0.050400988489348375,0.050400988489348375
101.467,0.030706347519970922,0.030706347519970922
101.468,0.012526520873671565,-0.012526520873671565
101.469,0.07120766032666581,-0.07120766032666581
101.47,0.13302276355165166,-0.13302276355165166
101.471,0.18449401394824927,-0.18449401394824927
101.472,0.2142636839798575,-0.2142636839798575
101.473,0.21576005252051178,-0.21576005252051178
101.474,0.1886389531657704,-0.1886389531657704
101.475,0.13874899633561188,-0.13874899633561188
101.476,0.07673269723013054,-0.07673269723013054
101.477,0.015660179916542227,-0.015660179916542227
101.478,0.031749896348158835,0.031749896348158835
101.479,0.05574005023402373,0.05574005023402373
101.48,0.051451035537147805,0.051451035537147805
101.481,0.019834676580349653,0.019834676580349653
101.482,0.032613988100145375,-0.032613988100145375
101.483,0.09524623823734402,-0.09524623823734402
101.484,0.15549858323800236,-0.15549858323800236
101.485,0.20152783629898585,-0.20152783629898585
101.486,0.22468008549068097,-0.22468008549068097
101.487,0.22123422493086253,-0.22123422493086253
101.488,0.19299902837802974,-0.19299902837802974
101.489,0.14660515589366174,-0.14660515589366174
101.49,0.09166538625201626,-0.09166538625201626
101.491,0.03828814722425966,-0.03828814722425966
101.492,0.00537795125709617,0.00537795125709617
101.493,0.03489060588843973,0.03489060588843973
101.494,0.05008153753706068,0.05008153753706068
101.495,0.054337685872882124,0.054337685872882124
101.496,0.05289107012860028,0.05289107012860028
101.497,0.050721350621218075,0.050721350621218075
101.498,0.05078114449067961,0.05078114449067961
101.499,0.05311697520468828,0.05311697520468828
101.5,0.05512506708419518,0.05512506708419518
101.501,0.05277101987624322,0.05277101987624322
101.502,0.04226613583420158,0.04226613583420158
101.503,0.0215550728064533,0.0215550728064533
101.504,0.008920968827383802,-0.008920968827383802
101.505,0.04641036166880386,-0.04641036166880386
101.506,0.08682447285271089,-0.08682447285271089
101.507,0.12603000359848704,-0.12603000359848704
101.508,0.16089053854385282,-0.16089053854385282
101.509,0.18963271214273825,-0.18963271214273825
101.51,0.21144282018943772,-0.21144282018943772
101.511,0.22557415411440673,-0.22557415411440673
101.512,0.23049893116783626,-0.23049893116783626
101.513,0.22365187959694366,-0.22365187959694366
101.514,0.20206441625713478,-0.20206441625713478
101.515,0.16377138157686943,-0.16377138157686943
101.516,0.10946002444783587,-0.10946002444783587
101.517,0.04360939866778235,-0.04360939866778235
101.518,0.025542586652729016,0.025542586652729016
101.519,0.08747045067856907,0.08747045067856907
101.52,0.13196748861071006,0.13196748861071006
101.521,0.152064608973288,0.152064608973288
101.522,0.14619434903538076,0.14619434903538076
101.523,0.11869619267918541,0.11869619267918541
101.524,0.07830974955718917,0.07830974955718917
101.525,0.035057831554491825,0.035057831554491825
101.526,0.003401915689599133,-0.003401915689599133
101.527,0.03456106250043356,-0.03456106250043356
101.528,0.06179115047889505,-0.06179115047889505
101.529,0.09253454634109815,-0.09253454634109815
101.53,0.1344392370837718,-0.1344392370837718
101.531,0.1908048040935434,-0.1908048040935434
101.532,0.25714801298064505,-0.25714801298064505
101.533,0.32047853370679036,-0.32047853370679036
101.534,0.3620154766930742,-0.3620154766930742
101.535,0.3628384580334796,-0.3628384580334796
101.536,0.31078479422776584,-0.31078479422776584
101.537,0.20622638136011984,-0.20622638136011984
101.538,0.06448465311439999,-0.06448465311439999
101.539,0.08640482180483589,0.08640482180483589
101.54,0.21236223222507755,0.21236223222507755
101.541,0.2825951312492412,0.2825951312492412
101.542,0.2787613143839158,0.2787613143839158
101.543,0.20098168930586668,0.20098168930586668
101.544,0.06858553813647883,0.06858553813647883
101.545,0.08489792801336271,-0.08489792801336271
101.546,0.2211181633891297,-0.2211181633891297
101.547,0.3077964608264262,-0.3077964608264262
101.548,0.3277235938458125,-0.3277235938458125
101.549,0.283030077526675,-0.283030077526675
101.55,0.19343367072802975,-0.19343367072802975
101.551,0.0891507092430901,-0.0891507092430901
101.552,0.000908600859401365,-0.000908600859401365
101.553,0.04958774220279216,0.04958774220279216
101.554,0.05561893686716202,0.05561893686716202
101.555,0.026028008577616335,0.026028008577616335
101.556,0.019500986640306084,-0.019500986640306084
101.557,0.058543372778480096,-0.058543372778480096
101.558,0.07438126111268972,-0.07438126111268972
101.559,0.0617573456074092,-0.0617573456074092
101.56,0.02797629137484048,-0.02797629137484048
101.561,0.010840622489989293,0.010840622489989293
101.562,0.036747211903473964,0.036747211903473964
101.563,0.03744302162209645,0.03744302162209645
101.564,0.011338283325915022,0.011338283325915022
101.565,0.03170726553232461,-0.03170726553232461
101.566,0.07421671451155332,-0.07421671451155332
101.567,0.09799110108393039,-0.09799110108393039
101.568,0.09138816842152253,-0.09138816842152253
101.569,0.05415805761094972,-0.05415805761094972
101.57,0.0020598734619750037,0.0020598734619750037
101.571,0.05781754661614236,0.05781754661614236
101.572,0.09299858996898713,0.09299858996898713
101.573,0.09431521440021373,0.09431521440021373
101.574,0.060297476482907175,0.060297476482907175
101.575,0.0018448813904967665,0.0018448813904967665
101.576,0.0619081518166541,-0.0619081518166541
101.577,0.11086754853002267,-0.11086754853002267
101.578,0.13162872569617112,-0.13162872569617112
101.579,0.12255805320798807,-0.12255805320798807
101.58,0.09431733825629263,-0.09431733825629263
101.581,0.06557196328431636,-0.06557196328431636
101.582,0.055478988161069775,-0.055478988161069775
101.583,0.0758229192264901,-0.0758229192264901
101.584,0.12585604925033755,-0.12585604925033755
101.585,0.19191537368520317,-0.19191537368520317
101.586,0.25208548577718437,-0.25208548577718437
101.587,0.28423324170507236,-0.28423324170507236
101.588,0.27439967141275945,-0.27439967141275945
101.589,0.22232601967335708,-0.22232601967335708
101.59,0.14191962140019976,-0.14191962140019976
101.591,0.05636466137172047,-0.05636466137172047
101.592,0.010357141746079046,0.010357141746079046
101.593,0.04233954730882217,0.04233954730882217
101.594,0.03758786369510192,0.03758786369510192
101.595,0.008474383986979417,0.008474383986979417
101.596,0.023502229360691795,-0.023502229360691795
101.597,0.036752244671528156,-0.036752244671528156
101.598,0.01896712646044263,-0.01896712646044263
101.599,0.026901314799812726,0.026901314799812726
101.6,0.0826204022298036,0.0826204022298036
101.601,0.12097028238617846,0.12097028238617846
101.602,0.11625768672181858,0.11625768672181858
101.603,0.05519414625411767,0.05519414625411767
101.604,0.056087157498450946,-0.056087157498450946
101.605,0.19187666034942263,-0.19187666034942263
101.606,0.3141666887179546,-0.3141666887179546
101.607,0.3851591614022004,-0.3851591614022004
101.608,0.3807051726023045,-0.3807051726023045
101.609,0.29977861545868745,-0.29977861545868745
101.61,0.16627016646502646,-0.16627016646502646
101.611,0.02199813866314626,-0.02199813866314626
101.612,0.08702930556405031,0.08702930556405031
101.613,0.1265262660762978,0.1265262660762978
101.614,0.08644775905341784,0.08644775905341784
101.615,0.014481861377525052,-0.014481861377525052
101.616,0.13417253324363576,-0.13417253324363576
101.617,0.22100464687139332,-0.22100464687139332
101.618,0.23157704097416498,-0.23157704097416498
101.619,0.14633313642850954,-0.14633313642850954
101.62,0.02239816923182336,0.02239816923182336
101.621,0.23291166179844014,0.23291166179844014
101.622,0.42656689329913244,0.42656689329913244
101.623,0.5461185528365278,0.5461185528365278
101.624,0.5538317815528042,0.5538317815528042
101.625,0.4433154836477695,0.4433154836477695
101.626,0.24114446944002155,0.24114446944002155
101.627,0.002160936769189159,-0.002160936769189159
101.628,0.22859488155886776,-0.22859488155886776
101.629,0.390865498384833,-0.390865498384833
101.63,0.4661449276172026,-0.4661449276172026
101.631,0.4608578422989942,-0.4608578422989942
101.632,0.4052284709688976,-0.4052284709688976
101.633,0.3399327731427687,-0.3399327731427687
101.634,0.29993070691361856,-0.29993070691361856
101.635,0.3014212129620273,-0.3014212129620273
101.636,0.3365819563316602,-0.3365819563316602
101.637,0.37781384877332413,-0.37781384877332413
101.638,0.38968864246461066,-0.38968864246461066
101.639,0.3439792273025245,-0.3439792273025245
101.64,0.23205536886647082,-0.23205536886647082
101.641,0.06993920126664677,-0.06993920126664677
101.642,0.10594788478394879,0.10594788478394879
101.643,0.25086204999190076,0.25086204999190076
101.644,0.32725045132829744,0.32725045132829744
101.645,0.3180251425820817,0.3180251425820817
101.646,0.232715320147187,0.232715320147187
101.647,0.1042012463042048,0.1042012463042048
101.648,0.022836064869104167,-0.022836064869104167
101.649,0.1075934987020255,-0.1075934987020255
101.65,0.12728851166681354,-0.12728851166681354
101.651,0.08465827415617222,-0.08465827415617222
101.652,0.006127727289926166,-0.006127727289926166
101.653,0.06863966487271878,0.06863966487271878
101.654,0.10195222355384348,0.10195222355384348
101.655,0.07246813717795075,0.07246813717795075
101.656,0.01654850246406203,-0.01654850246406203
101.657,0.13814741426450583,-0.13814741426450583
101.658,0.25148446348670017,-0.25148446348670017
101.659,0.31692699489051057,-0.31692699489051057
101.66,0.3109429362303153,-0.3109429362303153
101.661,0.23528271771101428,-0.23528271771101428
101.662,0.11700252830131552,-0.11700252830131552
101.663,0.0008144467483699458,0.0008144467483699458
101.664,0.07439915545339115,0.07439915545339115
101.665,0.07522621135370988,0.07522621135370988
101.666,0.0007837889030537504,0.0007837889030537504
101.667,0.12377118915881336,-0.12377118915881336
101.668,0.25380388893001604,-0.25380388893001604
101.669,0.3404654160106161,-0.3404654160106161
101.67,0.3477227673460199,-0.3477227673460199
101.671,0.26518827678348966,-0.26518827678348966
101.672,0.11223112427182491,-0.11223112427182491
101.673,0.0681040475689918,0.0681040475689918
101.674,0.22328928092808553,0.22328928092808553
101.675,0.3087176320921621,0.3087176320921621
101.676,0.3023307265470965,0.3023307265470965
101.677,0.21148545774684635,0.21148545774684635
101.678,0.06980443820176063,0.06980443820176063
101.679,0.07476523277184932,-0.07476523277184932
101.68,0.17645242318382293,-0.17645242318382293
101.681,0.2069934845053667,-0.2069934845053667
101.682,0.16457765432993554,-0.16457765432993554
101.683,0.07349181484116851,-0.07349181484116851
101.684,0.025191032434708882,0.025191032434708882
101.685,0.08847028755904551,0.08847028755904551
101.686,0.08659849448084356,0.08659849448084356
101.687,0.013387723495249082,0.013387723495249082
101.688,0.11174530973247787,-0.11174530973247787
101.689,0.2504692332192181,-0.2504692332192181
101.69,0.3584591136489581,-0.3584591136489581
101.691,0.40002720766759126,-0.40002720766759126
101.692,0.3595398721569003,-0.3595398721569003
101.693,0.24598097717711742,-0.24598097717711742
101.694,0.08947671679027258,-0.08947671679027258
101.695,0.06867426964194068,0.06867426964194068
101.696,0.18886533966631047,0.18886533966631047
101.697,0.2446221307225045,0.2446221307225045
101.698,0.229082923549355,0.229082923549355
101.699,0.15490020739686616,0.15490020739686616
101.7,0.0482555217809435,0.0482555217809435
101.701,0.06044391105605873,-0.06044391105605873
101.702,0.14579388377366054,-0.14579388377366054
101.703,0.19358140988596584,-0.19358140988596584
101.704,0.2023819478850285,-0.2023819478850285
101.705,0.18081947859825942,-0.18081947859825942
101.706,0.1422431266328288,-0.1422431266328288
101.707,0.0992442621556473,-0.0992442621556473
101.708,0.06010659121985473,-0.06010659121985473
101.709,0.02817162319352806,-0.02817162319352806
101.71,0.0037213871812397104,-0.0037213871812397104
101.711,0.013090073494217203,0.013090073494217203
101.712,0.020063111056502603,0.020063111056502603
101.713,0.012845883406439773,0.012845883406439773
101.714,0.012885364414804257,-0.012885364414804257
101.715,0.057936173899600596,-0.057936173899600596
101.716,0.11655179464325705,-0.11655179464325705
101.717,0.17559481651722253,-0.17559481651722253
101.718,0.2169242417390882,-0.2169242417390882
101.719,0.22265887453283473,-0.22265887453283473
101.72,0.18171275742508963,-0.18171275742508963
101.721,0.0952298599074386,-0.0952298599074386
101.722,0.0213399147252189,0.0213399147252189
101.723,0.14077790931178402,0.14077790931178402
101.724,0.23093767855469793,0.23093767855469793
101.725,0.2640096327073447,0.2640096327073447
101.726,0.2253289003149741,0.2253289003149741
101.727,0.11880328277079255,0.11880328277079255
101.728,0.03299472082780297,-0.03299472082780297
101.729,0.194357968909738,-0.194357968909738
101.73,0.32607016221569407,-0.32607016221569407
101.731,0.3962597326581948,-0.3962597326581948
101.732,0.38920156264067873,-0.38920156264067873
101.733,0.3094349603620874,-0.3094349603620874
101.734,0.18005145990701976,-0.18005145990701976
101.735,0.03582305961352594,-0.03582305961352594
101.736,0.08661220794692404,0.08661220794692404
101.737,0.1585072808548449,0.1585072808548449
101.738,0.1659036589031737,0.1659036589031737
101.739,0.1119284756691683,0.1119284756691683
101.74,0.014274908838309619,0.014274908838309619
101.741,0.10088912421489904,-0.10088912421489904
101.742,0.20641116359823164,-0.20641116359823164
101.743,0.28072974835833986,-0.28072974835833986
101.744,0.31183467966719713,-0.31183467966719713
101.745,0.2979905349205757,-0.2979905349205757
101.746,0.2457268433915597,-0.2457268433915597
101.747,0.16637500155280704,-0.16637500155280704
101.748,0.07263156005609273,-0.07263156005609273
101.749,0.02374535579912851,0.02374535579912851
101.75,0.11272864849862074,0.11272864849862074
101.751,0.18568145209224762,0.18568145209224762
101.752,0.234733595653144,0.234733595653144
101.753,0.2527457576269856,0.2527457576269856
101.754,0.2343226500172293,0.2343226500172293
101.755,0.17769790841619626,0.17769790841619626
101.756,0.0867323995294893,0.0867323995294893
101.757,0.02799748958169057,-0.02799748958169057
101.758,0.14986697991132591,-0.14986697991132591
101.759,0.2589011519206492,-0.2589011519206492
101.76,0.3360274734020666,-0.3360274734020666
101.761,0.36775547379220486,-0.36775547379220486
101.762,0.3498617101620325,-0.3498617101620325
101.763,0.2888460251031526,-0.2888460251031526
101.764,0.20054987518709444,-0.20054987518709444
101.765,0.10618787393198004,-0.10618787393198004
101.766,0.026854798282786696,-0.026854798282786696
101.767,0.021936531536226322,0.021936531536226322
101.768,0.0341173275613067,0.0341173275613067
101.769,0.014224273558242073,0.014224273558242073
101.77,0.024440910529332727,-0.024440910529332727
101.771,0.06407621055490975,-0.06407621055490975
101.772,0.08779956834462233,-0.08779956834462233
101.773,0.08465125010093544,-0.08465125010093544
101.774,0.05276162015652064,-0.05276162015652064
101.775,0.00017813143210121396,0.00017813143210121396
101.776,0.059226265969629655,0.059226265969629655
101.777,0.10658830142853737,0.10658830142853737
101.778,0.12684347638494442,0.12684347638494442
101.779,0.1115295183253302,0.1115295183253302
101.78,0.06180029310649959,0.06180029310649959
101.781,0.011606564288875632,-0.011606564288875632
101.782,0.09113323004990381,-0.09113323004990381
101.783,0.15719844349877865,-0.15719844349877865
101.784,0.19375625497137627,-0.19375625497137627
101.785,0.19308537424663774,-0.19308537424663774
101.786,0.15840915116663168,-0.15840915116663168
101.787,0.10345969360939544,-0.10345969360939544
101.788,0.048891705643425154,-0.048891705643425154
101.789,0.016338145799464243,-0.016338145799464243
101.79,0.021650019533461906,-0.021650019533461906
101.791,0.06925227552383983,-0.06925227552383983
101.792,0.1494219851887657,-0.1494219851887657
101.793,0.23962477173696328,-0.23962477173696328
101.794,0.3099582736907339,-0.3099582736907339
101.795,0.33151910250552363,-0.33151910250552363
101.796,0.2854879559175132,-0.2854879559175132
101.797,0.17025689981106185,-0.17025689981106185
101.798,0.004217778245130921,-0.004217778245130921
101.799,0.17710797323563976,0.17710797323563976
101.8,0.3293328489032816,0.3293328489032816
101.801,0.4109251597701409,0.4109251597701409
101.802,0.3952158935717991,0.3952158935717991
101.803,0.27914312188565815,0.27914312188565815
101.804,0.08587620070923241,0.08587620070923241
101.805,0.13990814736492785,-0.13990814736492785
101.806,0.343192211839883,-0.343192211839883
101.807,0.47331703190474084,-0.47331703190474084
101.808,0.4980728436325521,-0.4980728436325521
101.809,0.4130107563485087,-0.4130107563485087
101.81,0.24306321882805404,-0.24306321882805404
101.811,0.03577160247537692,-0.03577160247537692
101.812,0.1520689192761422,0.1520689192761422
101.813,0.270502573609106,0.270502573609106
101.814,0.2904987083963835,0.2904987083963835
101.815,0.21183194267780525,0.21183194267780525
101.816,0.062414008368783636,0.062414008368783636
101.817,0.11066556103437042,-0.11066556103437042
101.818,0.25560068290165927,-0.25560068290165927
101.819,0.331379494639809,-0.331379494639809
101.82,0.3196257225717769,-0.3196257225717769
101.821,0.22926165624764638,-0.22926165624764638
101.822,0.09277348547442732,-0.09277348547442732
101.823,0.044513534577037994,0.044513534577037994
101.824,0.13862268242375264,0.13862268242375264
101.825,0.1601016928050083,0.1601016928050083
101.826,0.1022097193721303,0.1022097193721303
101.827,0.01812699282718455,-0.01812699282718455
101.828,0.16646566667957907,-0.16646566667957907
101.829,0.3017716134339554,-0.3017716134339554
101.83,0.3884476365744993,-0.3884476365744993
101.831,0.4057231602823663,-0.4057231602823663
101.832,0.3517961796919584,-0.3517961796919584
101.833,0.2420207895596148,-0.2420207895596148
101.834,0.1024087045581955,-0.1024087045581955
101.835,0.03890727203447408,0.03890727203447408
101.836,0.1592427864170589,0.1592427864170589
101.837,0.24566854748224065,0.24566854748224065
101.838,0.2951986535012179,0.2951986535012179
101.839,0.3116029250494823,0.3116029250494823
101.84,0.30074546696367244,0.30074546696367244
101.841,0.26667620672180226,0.26667620672180226
101.842,0.21012753334347112,0.21012753334347112
101.843,0.12987313220885666,0.12987313220885666
101.844,0.026093007789172118,0.026093007789172118
101.845,0.09601508683423132,-0.09601508683423132
101.846,0.22428148340917287,-0.22428148340917287
101.847,0.34051122827796976,-0.34051122827796976
101.848,0.42438320847440825,-0.42438320847440825
101.849,0.4591078863426201,-0.4591078863426201
101.85,0.43684635344897504,-0.43684635344897504
101.851,0.3618542147270881,-0.3618542147270881
101.852,0.25006378359845294,-0.25006378359845294
101.853,0.12507697951093089,-0.12507697951093089
101.854,0.011832616947301977,-0.011832616947301977
101.855,0.06995398124027341,0.06995398124027341
101.856,0.11041876664292238,0.11041876664292238
101.857,0.11081377014611471,0.11081377014611471
101.858,0.08121980959212882,0.08121980959212882
101.859,0.03579698843566148,0.03579698843566148
101.86,0.012504578850856762,-0.012504578850856762
101.861,0.055774353814553757,-0.055774353814553757
101.862,0.09220597243556061,-0.09220597243556061
101.863,0.12427384027077681,-0.12427384027077681
101.864,0.1550972221900383,-0.1550972221900383
101.865,0.18480453981423528,-0.18480453981423528
101.866,0.20868976342687962,-0.20868976342687962
101.867,0.2181757268214919,-0.2181757268214919
101.868,0.2043693691569347,-0.2043693691569347
101.869,0.1628023585243369,-0.1628023585243369
101.87,0.09728699273526942,-0.09728699273526942
101.871,0.020977908143651525,-0.020977908143651525
101.872,0.046304019837845045,0.046304019837845045
101.873,0.083995409507583,0.083995409507583
101.874,0.07810627348354449,0.07810627348354449
101.875,0.027312650876328393,0.027312650876328393
101.876,0.054611814545775905,-0.054611814545775905
101.877,0.14135389672334575,-0.14135389672334575
101.878,0.201251299210657,-0.201251299210657
101.879,0.20708167008065026,-0.20708167008065026
101.88,0.14535561122001384,-0.14535561122001384
101.881,0.0219836077476383,-0.0219836077476383
101.882,0.13776810765801417,0.13776810765801417
101.883,0.2953182878349483,0.2953182878349483
101.884,0.409139771100137,0.409139771100137
101.885,0.44634639085124483,0.44634639085124483
101.886,0.3919537978111822,0.3919537978111822
101.887,0.252999395083807,0.252999395083807
101.888,0.0563526993570691,0.0563526993570691
101.889,0.15894773892935787,-0.15894773892935787
101.89,0.3523066079257192,-0.3523066079257192
101.891,0.4917947032493588,-0.4917947032493588
101.892,0.5609506749146788,-0.5609506749146788
101.893,0.560416056467393,-0.560416056467393
101.894,0.5044501878231049,-0.5044501878231049
101.895,0.4140389165121966,-0.4140389165121966
101.896,0.30928911346394106,-0.30928911346394106
101.897,0.2037879379701104,-0.2037879379701104
101.898,0.1026585024529506,-0.1026585024529506
101.899,0.004545466894950834,-0.004545466894950834
101.9,0.0937229076249273,0.0937229076249273
101.901,0.19199139938120013,0.19199139938120013
101.902,0.2834277783296899,0.2834277783296899
101.903,0.3544637225560565,0.3544637225560565
101.904,0.3882056242769989,0.3882056242769989
101.905,0.37013320535313876,0.37013320535313876
101.906,0.2939988828131941,0.2939988828131941
101.907,0.16571010724923418,0.16571010724923418
101.908,0.0036508631411307224,0.0036508631411307224
101.909,0.16488076601891266,-0.16488076601891266
101.91,0.31011823262127625,-0.31011823262127625
101.911,0.40719220178016335,-0.40719220178016335
101.912,0.4421724081241529,-0.4421724081241529
101.913,0.41501272799832734,-0.41501272799832734
101.914,0.3386563923370728,-0.3386563923370728
101.915,0.23477362917629963,-0.23477362917629963
101.916,0.12759131055179274,-0.12759131055179274
101.917,0.03772599945619859,-0.03772599945619859
101.918,0.02225435708468937,0.02225435708468937
101.919,0.049517666331541754,0.049517666331541754
101.92,0.04981780346599951,0.04981780346599951
101.921,0.03426068985198749,0.03426068985198749
101.922,0.015223511101306153,0.015223511101306153
101.923,0.0026904733647596935,0.0026904733647596935
101.924,0.001905850797252917,0.001905850797252917
101.925,0.012685775311049419,0.012685775311049419
101.926,0.030200807508685035,0.030200807508685035
101.927,0.046712063248767866,0.046712063248767866
101.928,0.05367214514934737,0.05367214514934737
101.929,0.043730337241072226,0.043730337241072226
101.93,0.012382127809070997,0.012382127809070997
101.931,0.04084961443095303,-0.04084961443095303
101.932,0.11178261020455238,-0.11178261020455238
101.933,0.1916293797053027,-0.1916293797053027
101.934,0.26792410590915106,-0.26792410590915106
101.935,0.3264447727750831,-0.3264447727750831
101.936,0.35402415201091075,-0.35402415201091075
101.937,0.341792055039007,-0.341792055039007
101.938,0.2880523132487449,-0.2880523132487449
101.939,0.19984530196545902,-0.19984530196545902
101.94,0.09241549255854065,-0.09241549255854065
101.941,0.013683287188902327,0.013683287188902327
101.942,0.09737590020075437,0.09737590020075437
101.943,0.14255867458097615,0.14255867458097615
101.944,0.14268289505301834,0.14268289505301834
101.945,0.10289154693945335,0.10289154693945335
101.946,0.038796221065210634,0.038796221065210634
101.947,0.028001208767871155,-0.028001208767871155
101.948,0.07644533815160093,-0.07644533815160093
101.949,0.09263922909510347,-0.09263922909510347
101.95,0.07437398374409165,-0.07437398374409165
101.951,0.031968557414891685,-0.031968557414891685
101.952,0.015048982094437058,0.015048982094437058
101.953,0.04451534369626975,0.04451534369626975
101.954,0.03941135065117041,0.03941135065117041
101.955,0.005716120178312911,-0.005716120178312911
101.956,0.0819240317790495,-0.0819240317790495
101.957,0.16777208759712303,-0.16777208759712303
101.958,0.23556160212558597,-0.23556160212558597
101.959,0.2600688476881653,-0.2600688476881653
101.96,0.22703118477795836,-0.22703118477795836
101.961,0.13862251897456235,-0.13862251897456235
101.962,0.014034834722684852,-0.014034834722684852
101.963,0.11520768541758808,0.11520768541758808
101.964,0.2139195099449338,0.2139195099449338
101.965,0.25335852296486494,0.25335852296486494
101.966,0.21973888176196477,0.21973888176196477
101.967,0.11859194190387634,0.11859194190387634
101.968,0.026335383592737127,-0.026335383592737127
101.969,0.17932524812896333,-0.17932524812896333
101.97,0.30225708217984804,-0.30225708217984804
101.971,0.3647623798697339,-0.3647623798697339
101.972,0.35214502335339826,-0.35214502335339826
101.973,0.26897824206785326,-0.26897824206785326
101.974,0.13757403512210475,-0.13757403512210475
101.975,0.00805136728518896,0.00805136728518896
101.976,0.13093871800673318,0.13093871800673318
101.977,0.20031334430077785,0.20031334430077785
101.978,0.19880668172809401,0.19880668172809401
101.979,0.12615679650640876,0.12615679650640876
101.98,0.001243789398315709,-0.001243789398315709
101.981,0.15456786379265852,-0.15456786379265852
101.982,0.2993538373554966,-0.2993538373554966
101.983,0.40325733328623226,-0.40325733328623226
101.984,0.4430704171561156,-0.4430704171561156
101.985,0.40959685021762104,-0.40959685021762104
101.986,0.3094655163840937,-0.3094655163840937
101.987,0.16357328794690595,-0.16357328794690595
101.988,0.002484486211181247,-0.002484486211181247
101.989,0.14029833115303636,0.14029833115303636
101.99,0.23581619762985384,0.23581619762985384
101.991,0.2662674318742513,0.2662674318742513
101.992,0.22919539742704487,0.22919539742704487
101.993,0.13811948512101346,0.13811948512101346
101.994,0.019246105257620716,0.019246105257620716
101.995,0.09512922678861802,-0.09512922678861802
101.996,0.17497483831282212,-0.17497483831282212
101.997,0.2004536615761755,-0.2004536615761755
101.998,0.16719633409494006,-0.16719633409494006
101.999,0.0872918234531882,-0.0872918234531882
102.0,0.014454491687637905,0.014454491687637905
102.001,0.10802013957939205,0.10802013957939205
102.002,0.16721472369279833,0.16721472369279833
102.003,0.17746416961143896,0.17746416961143896
102.004,0.1397977287453156,0.1397977287453156
102.005,0.06965861000891715,0.06965861000891715
102.006,0.00914421509550234,-0.00914421509550234
102.007,0.07333502195070873,-0.07333502195070873
102.008,0.1088242276066701,-0.1088242276066701
102.009,0.11596080467422776,-0.11596080467422776
102.01,0.10929823429252328,-0.10929823429252328
102.011,0.11167858313249046,-0.11167858313249046
102.012,0.14452832577967523,-0.14452832577967523
102.013,0.21780453853960346,-0.21780453853960346
102.014,0.3234302222278561,-0.3234302222278561
102.015,0.43508220052212976,-0.43508220052212976
102.016,0.515094689481947,-0.515094689481947
102.017,0.5266915450567733,-0.5266915450567733
102.018,0.4476466376952619,-0.4476466376952619
102.019,0.2805874011936498,-0.2805874011936498
102.02,0.05590953137972465,-0.05590953137972465
102.021,0.1744863529038494,0.1744863529038494
102.022,0.35137828433724727,0.35137828433724727
102.023,0.4262315928108551,0.4262315928108551
102.024,0.37731272529349025,0.37731272529349025
102.025,0.21841511167342342,0.21841511167342342
102.026,0.003186207426025156,-0.003186207426025156
102.027,0.21955897697947802,-0.21955897697947802
102.028,0.3621666820947379,-0.3621666820947379
102.029,0.38305324750327907,-0.38305324750327907
102.03,0.2704279674934127,-0.2704279674934127
102.031,0.05348140503833054,-0.05348140503833054
102.032,0.20542507237279128,0.20542507237279128
102.033,0.4290413328473617,0.4290413328473617
102.034,0.5484261171332432,0.5484261171332432
102.035,0.5238486180113942,0.5238486180113942
102.036,0.3568435423826155,0.3568435423826155
102.037,0.08965422839410309,0.08965422839410309
102.038,0.20769380537856674,-0.20769380537856674
102.039,0.4585273862309851,-0.4585273862309851
102.04,0.6021592165115542,-0.6021592165115542
102.041,0.6109587313415799,-0.6109587313415799
102.042,0.4967300682724314,-0.4967300682724314
102.043,0.3048122467292127,-0.3048122467292127
102.044,0.09827932813956952,-0.09827932813956952
102.045,0.06231478687530978,0.06231478687530978
102.046,0.13701659681019307,0.13701659681019307
102.047,0.11677505942458333,0.11677505942458333
102.048,0.023182548540439996,0.023182548540439996
102.049,0.10152408302226434,-0.10152408302226434
102.05,0.21023224455339884,-0.21023224455339884
102.051,0.2668672978871237,-0.2668672978871237
102.052,0.25715485786261183,-0.25715485786261183
102.053,0.19103734098100178,-0.19103734098100178
102.054,0.09661497004570252,-0.09661497004570252
102.055,0.008401023521870554,-0.008401023521870554
102.056,0.04555040864883275,0.04555040864883275
102.057,0.053024216905530386,0.053024216905530386
102.058,0.020484266537945217,0.020484266537945217
102.059,0.031116048756325565,-0.031116048756325565
102.06,0.07546995871548579,-0.07546995871548579
102.061,0.09126038242485035,-0.09126038242485035
102.062,0.06978344844265583,-0.06978344844265583
102.063,0.01720261923746469,-0.01720261923746469
102.064,0.04902204532925869,0.04902204532925869
102.065,0.10773645339991011,0.10773645339991011
102.066,0.1424822547926916,0.1424822547926916
102.067,0.1472959837773462,0.1472959837773462
102.068,0.12773044339429984,0.12773044339429984
102.069,0.0969260325229675,0.0969260325229675
102.07,0.06859323264205774,0.06859323264205774
102.071,0.05002001442053161,0.05002001442053161
102.072,0.03820070516399654,0.03820070516399654
102.073,0.020902616458724932,0.020902616458724932
102.074,0.017558233555082126,-0.017558233555082126
102.075,0.08807082228689922,-0.08807082228689922
102.076,0.18942839573103587,-0.18942839573103587
102.077,0.3052449180640836,-0.3052449180640836
102.078,0.40690161799246893,-0.40690161799246893
102.079,0.462075242219115,-0.462075242219115
102.08,0.4461679045094079,-0.4461679045094079
102.081,0.3526045211341836,-0.3526045211341836
102.082,0.19803698827211946,-0.19803698827211946
102.083,0.020035023642819727,-0.020035023642819727
102.084,0.13264297847023654,0.13264297847023654
102.085,0.21448262307340182,0.21448262307340182
102.086,0.19782885329634414,0.19782885329634414
102.087,0.08284119636857445,0.08284119636857445
102.088,0.10073331061151469,-0.10073331061151469
102.089,0.3009362145393937,-0.3009362145393937
102.09,0.45813826092252585,-0.45813826092252585
102.091,0.5223979069100142,-0.5223979069100142
102.092,0.4683112395561627,-0.4683112395561627
102.093,0.3027608167147575,-0.3027608167147575
102.094,0.06317877274159267,-0.06317877274159267
102.095,0.19310489891857285,0.19310489891857285
102.096,0.40511760226375904,0.40511760226375904
102.097,0.5251418927940319,0.5251418927940319
102.098,0.5312357897775857,0.5312357897775857
102.099,0.43185835146381657,0.43185835146381657
102.1,0.26161546638790156,0.26161546638790156
102.101,0.06986105501848305,0.06986105501848305
102.102,0.09406646800219853,-0.09406646800219853
102.103,0.1944271379688608,-0.1944271379688608
102.104,0.21761163556815444,-0.21761163556815444
102.105,0.1735612747372185,-0.1735612747372185
102.106,0.09031000202677109,-0.09031000202677109
102.107,0.003911867179820394,-0.003911867179820394
102.108,0.052828537962218425,0.052828537962218425
102.109,0.05940514439676581,0.05940514439676581
102.11,0.012062184980087487,0.012062184980087487
102.111,0.0770796150014994,-0.0770796150014994
102.112,0.1852760343411166,-0.1852760343411166
102.113,0.2866701158846726,-0.2866701158846726
102.114,0.3595688654318163,-0.3595688654318163
102.115,0.39143777809464,-0.39143777809464
102.116,0.38056927757427306,-0.38056927757427306
102.117,0.3345458371650234,-0.3345458371650234
102.118,0.26654922956642824,-0.26654922956642824
102.119,0.1910057478113596,-0.1910057478113596
102.12,0.11994817931514812,-0.11994817931514812
102.121,0.0609545392638422,-0.0609545392638422
102.122,0.016841075865370203,-0.016841075865370203
102.123,0.013298107074411147,0.013298107074411147
102.124,0.0324243001637643,0.0324243001637643
102.125,0.04397284292075465,0.04397284292075465
102.126,0.05082117750620441,0.05082117750620441
102.127,0.05492822517454532,0.05492822517454532
102.128,0.057480931357384524,0.057480931357384524
102.129,0.059247353764737554,0.059247353764737554
102.13,0.06086159089223386,0.06086159089223386
102.131,0.06289832903827786,0.06289832903827786
102.132,0.0657475297450556,0.0657475297450556
102.133,0.06939984698813229,0.06939984698813229
102.134,0.07327077589548447,0.07327077589548447
102.135,0.07614373379936445,0.07614373379936445
102.136,0.07624518166667227,0.07624518166667227
102.137,0.07142288840931577,0.07142288840931577
102.138,0.0593995013664419,0.0593995013664419
102.139,0.03810186545067751,0.03810186545067751
102.14,0.006085058779899066,0.006085058779899066
102.141,0.03695408008438661,-0.03695408008438661
102.142,0.0896514527961384,-0.0896514527961384
102.143,0.1486051924031636,-0.1486051924031636
102.144,0.2083783536456989,-0.2083783536456989
102.145,0.2620543463488568,-0.2620543463488568
102.146,0.30237882036581776,-0.30237882036581776
102.147,0.32330365048166043,-0.32330365048166043
102.148,0.3215393728400511,-0.3215393728400511
102.149,0.2976186363888369,-0.2976186363888369
102.15,0.2560444917967659,-0.2560444917967659
102.151,0.20434903673560434,-0.20434903673560434
102.152,0.15124834019062194,-0.15124834019062194
102.153,0.1044197112785138,-0.1044197112785138
102.154,0.06860877899438111,-0.06860877899438111
102.155,0.04470615804048583,-0.04470615804048583
102.156,0.030117975228806326,-0.030117975228806326
102.157,0.02029330622296943,-0.02029330622296943
102.158,0.010835111095326533,-0.010835111095326533
102.159,0.0006156111626225425,0.0006156111626225425
102.16,0.013462344588051511,0.013462344588051511
102.161,0.024573633105136716,0.024573633105136716
102.162,0.029877557628082974,0.029877557628082974
102.163,0.026471685543715928,0.026471685543715928
102.164,0.014342391810262978,0.014342391810262978
102.165,0.003096010712505759,-0.003096010712505759
102.166,0.019976005552504117,-0.019976005552504117
102.167,0.030171109065340707,-0.030171109065340707
102.168,0.029865674685353394,-0.029865674685353394
102.169,0.01942156672306694,-0.01942156672306694
102.17,0.003666147848586876,-0.003666147848586876
102.171,0.009682680492869578,0.009682680492869578
102.172,0.012974613006216718,0.012974613006216718
102.173,0.0018567691771573802,0.0018567691771573802
102.174,0.022559802485947356,-0.022559802485947356
102.175,0.05361697105907404,-0.05361697105907404
102.176,0.08135735560838975,-0.08135735560838975
102.177,0.09639842390271514,-0.09639842390271514
102.178,0.09397296176930381,-0.09397296176930381
102.179,0.07644949395905642,-0.07644949395905642
102.18,0.05309490257286886,-0.05309490257286886
102.181,0.03685045111078111,-0.03685045111078111
102.182,0.039107603735279994,-0.039107603735279994
102.183,0.06441846762815073,-0.06441846762815073
102.184,0.10734411734212079,-0.10734411734212079
102.185,0.15304973275627964,-0.15304973275627964
102.186,0.1819409600981272,-0.1819409600981272
102.187,0.17704408439789965,-0.17704408439789965
102.188,0.13156161323313764,-0.13156161323313764
102.189,0.053619347345952195,-0.053619347345952195
102.19,0.034081578418667435,0.034081578418667435
102.191,0.10032925323748709,0.10032925323748709
102.192,0.11570172224081832,0.11570172224081832
102.193,0.06383392837423663,0.06383392837423663
102.194,0.050390879072855776,-0.050390879072855776
102.195,0.1991285175897961,-0.1991285175897961
102.196,0.3377883235385951,-0.3377883235385951
102.197,0.4179383081023711,-0.4179383081023711
102.198,0.40315487350994295,-0.40315487350994295
102.199,0.2826536954608906,-0.2826536954608906
102.2,0.07781250792330152,-0.07781250792330152
102.201,0.16129703644988003,0.16129703644988003
102.202,0.3690833390534043,0.3690833390534043
102.203,0.48372040457132615,0.48372040457132615
102.204,0.46663722349104986,0.46663722349104986
102.205,0.31584566046210205,0.31584566046210205
102.206,0.06840635778290616,0.06840635778290616
102.207,0.20933200951036757,-0.20933200951036757
102.208,0.44112585939472415,-0.44112585939472415
102.209,0.5639950300856029,-0.5639950300856029
102.21,0.5478225784137624,-0.5478225784137624
102.211,0.4049888368081579,-0.4049888368081579
102.212,0.18669475851074935,-0.18669475851074935
102.213,0.033120811877698886,0.033120811877698886
102.214,0.18131203141216123,0.18131203141216123
102.215,0.20904021299714692,0.20904021299714692
102.216,0.10770424600505657,0.10770424600505657
102.217,0.08790814055956775,-0.08790814055956775
102.218,0.3103538048430582,-0.3103538048430582
102.219,0.4807837513269112,-0.4807837513269112
102.22,0.5339510397447775,-0.5339510397447775
102.221,0.43902684197743647,-0.43902684197743647
102.222,0.20966119144529893,-0.20966119144529893
102.223,0.09978196458530197,0.09978196458530197
102.224,0.410450841847261,0.410450841847261
102.225,0.6424118539372676,0.6424118539372676
102.226,0.7378209189459382,0.7378209189459382
102.227,0.6767455815714485,0.6767455815714485
102.228,0.48108979029149856,0.48108979029149856
102.229,0.20599555089177302,0.20599555089177302
102.23,0.07795326941053715,-0.07795326941053715
102.231,0.3057076574245047,-0.3057076574245047
102.232,0.4352783381489097,-0.4352783381489097
102.233,0.4567306610999382,-0.4567306610999382
102.234,0.39066087485802814,-0.39066087485802814
102.235,0.2776775509786483,-0.2776775509786483
102.236,0.16315631124840013,-0.16315631124840013
102.237,0.08265252190884154,-0.08265252190884154
102.238,0.05259180613171954,-0.05259180613171954
102.239,0.06861692881017956,-0.06861692881017956
102.24,0.1111351088358653,-0.1111351088358653
102.241,0.15520657064641585,-0.15520657064641585
102.242,0.1807409197900497,-0.1807409197900497
102.243,0.17932745940520656,-0.17932745940520656
102.244,0.15565563464232357,-0.15565563464232357
102.245,0.12368448251308539,-0.12368448251308539
102.246,0.09964488150766548,-0.09964488150766548
102.247,0.09492318927983878,-0.09492318927983878
102.248,0.11160460320605481,-0.11160460320605481
102.249,0.14215606129109082,-0.14215606129109082
102.25,0.17298050035080548,-0.17298050035080548
102.251,0.19008442274337056,-0.19008442274337056
102.252,0.18442718583525264,-0.18442718583525264
102.253,0.15486597200929564,-0.15486597200929564
102.254,0.10776400872853309,-0.10776400872853309
102.255,0.05377189246108938,-0.05377189246108938
102.256,0.0034165739315702437,-0.0034165739315702437
102.257,0.03650665401310982,0.03650665401310982
102.258,0.06425928531189284,0.06425928531189284
102.259,0.08185734321273808,0.08185734321273808
102.26,0.09204273044231215,0.09204273044231215
102.261,0.09523750299806077,0.09523750299806077
102.262,0.08820525529325285,0.08820525529325285
102.263,0.0653487871759999,0.0653487871759999
102.264,0.02230098196274266,0.02230098196274266
102.265,0.03973613621181493,-0.03973613621181493
102.266,0.11104297349362524,-0.11104297349362524
102.267,0.17364559637430332,-0.17364559637430332
102.268,0.20544818380034957,-0.20544818380034957
102.269,0.18730668775721282,-0.18730668775721282
102.27,0.11073278689951316,-0.11073278689951316
102.271,0.01667991271251279,0.01667991271251279
102.272,0.17052081968213417,0.17052081968213417
102.273,0.31445138081780355,0.31445138081780355
102.274,0.40968150724480856,0.40968150724480856
102.275,0.4262512033140735,0.4262512033140735
102.276,0.3524798446814268,0.3524798446814268
102.277,0.19934442908780303,0.19934442908780303
102.278,0.0018849450013624924,-0.0018849450013624924
102.279,0.20820824618704004,-0.20820824618704004
102.28,0.37702037129609534,-0.37702037129609534
102.281,0.4779373665212676,-0.4779373665212676
102.282,0.5005562825518284,-0.5005562825518284
102.283,0.4557685297930071,-0.4557685297930071
102.284,0.37044331472831604,-0.37044331472831604
102.285,0.27752662136147677,-0.27752662136147677
102.286,0.2050759068944289,-0.2050759068944289
102.287,0.16796131942119563,-0.16796131942119563
102.288,0.1648615704736417,-0.1648615704736417
102.289,0.1811922875981412,-0.1811922875981412
102.29,0.1964666947566428,-0.1964666947566428
102.291,0.19308164893790547,-0.19308164893790547
102.292,0.16317677287384913,-0.16317677287384913
102.293,0.11112039384892836,-0.11112039384892836
102.294,0.05095630740493251,-0.05095630740493251
102.295,0.00010513088647601254,-0.00010513088647601254
102.296,0.027993497402917455,0.027993497402917455
102.297,0.02930223955164446,0.02930223955164446
102.298,0.010541757961225029,0.010541757961225029
102.299,0.01396607864292454,-0.01396607864292454
102.3,0.028586199225172693,-0.028586199225172693
102.301,0.023153415341130468,-0.023153415341130468
102.302,0.0025765922028810895,0.0025765922028810895
102.303,0.03869016445291984,0.03869016445291984
102.304,0.0692653145932256,0.0692653145932256
102.305,0.07928283618942333,0.07928283618942333
102.306,0.061500236513416295,0.061500236513416295
102.307,0.02041725910122394,0.02041725910122394
102.308,0.028460421030525374,-0.028460421030525374
102.309,0.06402557501136474,-0.06402557501136474
102.31,0.06773374366309182,-0.06773374366309182
102.311,0.031432969117123344,-0.031432969117123344
102.312,0.038250490461117614,0.038250490461117614
102.313,0.1208831921675102,0.1208831921675102
102.314,0.18848439547582374,0.18848439547582374
102.315,0.21498258510075763,0.21498258510075763
102.316,0.18548334614060957,0.18548334614060957
102.317,0.1019151926976023,0.1019151926976023
102.318,0.0171323981422854,-0.0171323981422854
102.319,0.14246185190702731,-0.14246185190702731
102.32,0.24411127920832665,-0.24411127920832665
102.321,0.30144660386545297,-0.30144660386545297
102.322,0.30981475054076335,-0.30981475054076335
102.323,0.28130210502372566,-0.28130210502372566
102.324,0.23931151859323996,-0.23931151859323996
102.325,0.2089787146475155,-0.2089787146475155
102.326,0.20703070238766552,-0.20703070238766552
102.327,0.23493927948945958,-0.23493927948945958
102.328,0.2780272223814497,-0.2780272223814497
102.329,0.3109701090434126,-0.3109701090434126
102.33,0.3077191742052702,-0.3077191742052702
102.331,0.25215542411008207,-0.25215542411008207
102.332,0.14542838412789316,-0.14542838412789316
102.333,0.007091210387137226,-0.007091210387137226
102.334,0.13059104521662968,0.13059104521662968
102.335,0.23324098462069287,0.23324098462069287
102.336,0.276084294505728,0.276084294505728
102.337,0.25249700403051945,0.25249700403051945
102.338,0.17619621043007583,0.17619621043007583
102.339,0.0761871660903164,0.0761871660903164
102.34,0.013751465035138355,-0.013751465035138355
102.341,0.0672139917726775,-0.0672139917726775
102.342,0.07446052920822199,-0.07446052920822199
102.343,0.0453761889248262,-0.0453761889248262
102.344,0.004935420619766484,-0.004935420619766484
102.345,0.017197304338792962,0.017197304338792962
102.346,0.000936273945813193,-0.000936273945813193
102.347,0.06389872137657737,-0.06389872137657737
102.348,0.15567735974295271,-0.15567735974295271
102.349,0.24447745106970187,-0.24447745106970187
102.35,0.29400523908455467,-0.29400523908455467
102.351,0.27728049236504115,-0.27728049236504115
102.352,0.1879312640166556,-0.1879312640166556
102.353,0.04465829979604341,-0.04465829979604341
102.354,0.11311244349015359,0.11311244349015359
102.355,0.23725322854198128,0.23725322854198128
102.356,0.28670321658182996,0.28670321658182996
102.357,0.24159117211483072,0.24159117211483072
102.358,0.11074276076386003,0.11074276076386003
102.359,0.07021042538276479,-0.07021042538276479
102.36,0.24969936294215245,-0.24969936294215245
102.361,0.3765386074884012,-0.3765386074884012
102.362,0.41626040266903996,-0.41626040266903996
102.363,0.3619756626639494,-0.3619756626639494
102.364,0.2361206678336637,-0.2361206678336637
102.365,0.08254702849389628,-0.08254702849389628
102.366,0.04831045933579947,0.04831045933579947
102.367,0.11613147302841287,0.11613147302841287
102.368,0.10364422677915464,0.10364422677915464
102.369,0.02152406776015403,0.02152406776015403
102.37,0.09621870059418303,-0.09621870059418303
102.371,0.20458322973771115,-0.20458322973771115
102.372,0.26329003032704557,-0.26329003032704557
102.373,0.2504516575664991,-0.2504516575664991
102.374,0.16961719250907603,-0.16961719250907603
102.375,0.04797193501714636,-0.04797193501714636
102.376,0.07346527038618866,0.07346527038618866
102.377,0.15411378611348003,0.15411378611348003
102.378,0.16762575251504175,0.16762575251504175
102.379,0.11056440704934678,0.11056440704934678
102.38,0.0031935704361782946,0.0031935704361782946
102.381,0.11765652792937586,-0.11765652792937586
102.382,0.2110324183546053,-0.2110324183546053
102.383,0.24532479939492113,-0.24532479939492113
102.384,0.2083051286703146,-0.2083051286703146
102.385,0.1105941279454743,-0.1105941279454743
102.386,0.018283291468707663,0.018283291468707663
102.387,0.13965174793190904,0.13965174793190904
102.388,0.2178561349875192,0.2178561349875192
102.389,0.23088446589703615,0.23088446589703615
102.39,0.17622573405021935,0.17622573405021935
102.391,0.07047434611962422,0.07047434611962422
102.392,0.05673828932749203,-0.05673828932749203
102.393,0.17219535344868664,-0.17219535344868664
102.394,0.24880928317611106,-0.24880928317611106
102.395,0.27270631641015974,-0.27270631641015974
102.396,0.24588416171977,-0.24588416171977
102.397,0.18416048847454425,-0.18416048847454425
102.398,0.11153067256789995,-0.11153067256789995
102.399,0.05291891437914842,-0.05291891437914842
102.4,0.027454866162818226,-0.027454866162818226
102.401,0.04392100535700583,-0.04392100535700583
102.402,0.09916955376521563,-0.09916955376521563
102.403,0.17943764340737756,-0.17943764340737756
102.404,0.2638588552765838,-0.2638588552765838
102.405,0.3291869297596758,-0.3291869297596758
102.406,0.3547631689695854,-0.3547631689695854
102.407,0.3269276741836752,-0.3269276741836752
102.408,0.24225114702190953,-0.24225114702190953
102.409,0.10908247640962487,-0.10908247640962487
102.41,0.05299389977247326,0.05299389977247326
102.411,0.2160124445594036,0.2160124445594036
102.412,0.3486514556499831,0.3486514556499831
102.413,0.4227457239235981,0.4227457239235981
102.414,0.4200147158230947,0.4200147158230947
102.415,0.33732805215500994,0.33732805215500994
102.416,0.1888487301285091,0.1888487301285091
102.417,0.003972404330561563,0.003972404330561563
102.418,0.1789447433411877,-0.1789447433411877
102.419,0.32178540288204194,-0.32178540288204194
102.42,0.3964276025324145,-0.3964276025324145
102.421,0.39222974251566656,-0.39222974251566656
102.422,0.31884034029299135,-0.31884034029299135
102.423,0.20320205231303357,-0.20320205231303357
102.424,0.08139413328435197,-0.08139413328435197
102.425,0.012333660741892016,0.012333660741892016
102.426,0.05593858769736482,0.05593858769736482
102.427,0.046011427820044526,0.046011427820044526
102.428,0.0019339816574771573,-0.0019339816574771573
102.429,0.05951357522339262,-0.05951357522339262
102.43,0.09593260658346148,-0.09593260658346148
102.431,0.08935195705013255,-0.08935195705013255
102.432,0.0352453006481428,-0.0352453006481428
102.433,0.05124315617322317,0.05124315617322317
102.434,0.1399352381450658,0.1399352381450658
102.435,0.19583896288482494,0.19583896288482494
102.436,0.19155354968758043,0.19155354968758043
102.437,0.11759775633696457,0.11759775633696457
102.438,0.013004460829076026,-0.013004460829076026
102.439,0.1676634640623602,-0.1676634640623602
102.44,0.3039257904954761,-0.3039257904954761
102.441,0.3828395282574444,-0.3828395282574444
102.442,0.3815716903644447,-0.3815716903644447
102.443,0.3010458883630007,-0.3010458883630007
102.444,0.16599595527152233,-0.16599595527152233
102.445,0.01735716490613659,-0.01735716490613659
102.446,0.10052275975791658,0.10052275975791658
102.447,0.1536536627339371,0.1536536627339371
102.448,0.12866619762012665,0.12866619762012665
102.449,0.03630782158564139,0.03630782158564139
102.45,0.0927835098559302,-0.0927835098559302
102.451,0.2184052106223977,-0.2184052106223977
102.452,0.303630016823202,-0.303630016823202
102.453,0.32588374361769157,-0.32588374361769157
102.454,0.2827654832653794,-0.2827654832653794
102.455,0.1910491848416095,-0.1910491848416095
102.456,0.0796810334549043,-0.0796810334549043
102.457,0.020440182357690517,0.020440182357690517
102.458,0.08621437188377867,0.08621437188377867
102.459,0.10837930802929208,0.10837930802929208
102.46,0.0921508808394591,0.0921508808394591
102.461,0.05283352288918386,0.05283352288918386
102.462,0.008552598207586914,0.008552598207586914
102.463,0.026869535598081806,-0.026869535598081806
102.464,0.04819077769870339,-0.04819077769870339
102.465,0.05880519877327939,-0.05880519877327939
102.466,0.06698778992801813,-0.06698778992801813
102.467,0.08027073294927245,-0.08027073294927245
102.468,0.10058260550613907,-0.10058260550613907
102.469,0.1223762167800575,-0.1223762167800575
102.47,0.1346515516786202,-0.1346515516786202
102.471,0.12608525591152053,-0.12608525591152053
102.472,0.09109093174781768,-0.09109093174781768
102.473,0.03411934384124671,-0.03411934384124671
102.474,0.029910441966623402,0.029910441966623402
102.475,0.07968260752360634,0.07968260752360634
102.476,0.09488190551265152,0.09488190551265152
102.477,0.06429655027473458,0.06429655027473458
102.478,0.008490534442405773,-0.008490534442405773
102.479,0.1042580774670322,-0.1042580774670322
102.48,0.19293713467304963,-0.19293713467304963
102.481,0.24278753112655949,-0.24278753112655949
102.482,0.231033270781412,-0.231033270781412
102.483,0.15233905259674874,-0.15233905259674874
102.484,0.022088478551198887,-0.022088478551198887
102.485,0.126902081510885,0.126902081510885
102.486,0.2534049974365531,0.2534049974365531
102.487,0.31976008743518003,0.31976008743518003
102.488,0.3030142504313913,0.3030142504313913
102.489,0.20169512550540714,0.20169512550540714
102.49,0.03614916091922815,0.03614916091922815
102.491,0.157497412137102,-0.157497412137102
102.492,0.3376427479478338,-0.3376427479478338
102.493,0.4683923812660753,-0.4683923812660753
102.494,0.5281519917822115,-0.5281519917822115
102.495,0.5132493211572284,-0.5132493211572284
102.496,0.43602949077161535,-0.43602949077161535
102.497,0.31874908021466175,-0.31874908021466175
102.498,0.18586059673262234,-0.18586059673262234
102.499,0.05751322772535594,-0.05751322772535594
102.5,0.05372034890181432,0.05372034890181432
102.501,0.1423742885771293,0.1423742885771293
102.502,0.20691780472693933,0.20691780472693933
102.503,0.24593271389563354,0.24593271389563354
102.504,0.2557787152255324,0.2557787152255324
102.505,0.23104647738363937,0.23104647738363937
102.506,0.1677026226143279,0.1677026226143279
102.507,0.06746599925365948,0.06746599925365948
102.508,0.058801670481604895,-0.058801670481604895
102.509,0.19071870537008717,-0.19071870537008717
102.51,0.3019530279598668,-0.3019530279598668
102.511,0.36707748938538476,-0.36707748938538476
102.512,0.3695794764753574,-0.3695794764753574
102.513,0.30814657288477343,-0.30814657288477343
102.514,0.19867134643342232,-0.19867134643342232
102.515,0.07075411148747623,-0.07075411148747623
102.516,0.040612170717700735,0.040612170717700735
102.517,0.10569756419362597,0.10569756419362597
102.518,0.10954416840243253,0.10954416840243253
102.519,0.0570248779068423,0.0570248779068423
102.52,0.028484221227894957,-0.028484221227894957
102.521,0.11264147432372107,-0.11264147432372107
102.522,0.16157404499729067,-0.16157404499729067
102.523,0.15348438238877748,-0.15348438238877748
102.524,0.08653048638981431,-0.08653048638981431
102.525,0.019764987233334308,0.019764987233334308
102.526,0.13021279188609336,0.13021279188609336
102.527,0.20504008059173828,0.20504008059173828
102.528,0.2128261378487588,0.2128261378487588
102.529,0.14111018186084134,0.14111018186084134
102.53,0.0012215259854453375,0.0012215259854453375
102.531,0.17425649897817275,-0.17425649897817275
102.532,0.3406127400006611,-0.3406127400006611
102.533,0.45386540500302186,-0.45386540500302186
102.534,0.4833652265379892,-0.4833652265379892
102.535,0.42033167527211723,-0.42033167527211723
102.536,0.2798813301197116,-0.2798813301197116
102.537,0.09619118272265514,-0.09619118272265514
102.538,0.08746458183350292,0.08746458183350292
102.539,0.23062576894792675,0.23062576894792675
102.54,0.3059583595017641,0.3059583595017641
102.541,0.30516491973116167,0.30516491973116167
102.542,0.23922488134980346,0.23922488134980346
102.543,0.1334693734285186,0.1334693734285186
102.544,0.019428349968023673,0.019428349968023673
102.545,0.0739292717670148,-0.0739292717670148
102.546,0.12712971626434877,-0.12712971626434877
102.547,0.133750809569531,-0.133750809569531
102.548,0.10024118871617249,-0.10024118871617249
102.549,0.042718444006315415,-0.042718444006315415
102.55,0.01789701369081853,0.01789701369081853
102.551,0.06096230389394908,0.06096230389394908
102.552,0.07030794166583365,0.07030794166583365
102.553,0.037003460973318525,0.037003460973318525
102.554,0.03936180331264871,-0.03936180331264871
102.555,0.15067906809659237,-0.15067906809659237
102.556,0.2813914374378085,-0.2813914374378085
102.557,0.41055258106477255,-0.41055258106477255
102.558,0.5148684616509154,-0.5148684616509154
102.559,0.5726103991734874,-0.5726103991734874
102.56,0.567974123230609,-0.567974123230609
102.561,0.4950609949356969,-0.4950609949356969
102.562,0.36038757674990485,-0.36038757674990485
102.563,0.18289475904855856,-0.18289475904855856
102.564,0.009078258655595084,0.009078258655595084
102.565,0.18355068261780993,0.18355068261780993
102.566,0.3121535688682522,0.3121535688682522
102.567,0.3769682734829949,0.3769682734829949
102.568,0.37491135277226495,0.37491135277226495
102.569,0.3181804880175281,0.3181804880175281
102.57,0.2303965528918599,0.2303965528918599
102.571,0.13942827364926602,0.13942827364926602
102.572,0.06901375559016754,0.06901375559016754
102.573,0.03178555488624779,0.03178555488624779
102.574,0.02594896634852839,0.02594896634852839
102.575,0.036732089376193766,0.036732089376193766
102.576,0.042174885764068026,0.042174885764068026
102.577,0.0213713353958358,0.0213713353958358
102.578,0.037572196095599364,-0.037572196095599364
102.579,0.13253964173759514,-0.13253964173759514
102.58,0.24707869171177843,-0.24707869171177843
102.581,0.3548996503750036,-0.3548996503750036
102.582,0.4277417423319304,-0.4277417423319304
102.583,0.4440332749190795,-0.4440332749190795
102.584,0.3955355007012352,-0.3955355007012352
102.585,0.28987606130611665,-0.28987606130611665
102.586,0.14828550665591445,-0.14828550665591445
102.587,0.0005513147964184562,0.0005513147964184562
102.588,0.1283877557610018,0.1283877557610018
102.589,0.2144665710158533,0.2144665710158533
102.59,0.24961184928036917,0.24961184928036917
102.591,0.2364165487138199,0.2364165487138199
102.592,0.18600412837725844,0.18600412837725844
102.593,0.11298606666920064,0.11298606666920064
102.594,0.030691875194424068,0.030691875194424068
102.595,0.051620096824019024,-0.051620096824019024
102.596,0.1288698530389003,-0.1288698530389003
102.597,0.19809859055874202,-0.19809859055874202
102.598,0.25569487460068596,-0.25569487460068596
102.599,0.29561560123234387,-0.29561560123234387
102.6,0.3098055929535787,-0.3098055929535787
102.601,0.29095118702306966,-0.29095118702306966
102.602,0.23651955777119116,-0.23651955777119116
102.603,0.1522431007273799,-0.1522431007273799
102.604,0.05317136080819873,-0.05317136080819873
102.605,0.03879798807514678,0.03879798807514678
102.606,0.10064734850539803,0.10064734850539803
102.607,0.11556326327730959,0.11556326327730959
102.608,0.07930558680844468,0.07930558680844468
102.609,0.003098725034631933,0.003098725034631933
102.61,0.08846512426183928,-0.08846512426183928
102.611,0.16433001327851282,-0.16433001327851282
102.612,0.1967273623363549,-0.1967273623363549
102.613,0.1706084569070747,-0.1706084569070747
102.614,0.08945115973581719,-0.08945115973581719
102.615,0.024819708680702268,0.024819708680702268
102.616,0.13813172900839987,0.13813172900839987
102.617,0.21495712822059976,0.21495712822059976
102.618,0.22994339388100782,0.22994339388100782
102.619,0.17654220566793977,0.17654220566793977
102.62,0.06957806932459065,0.06957806932459065
102.621,0.059310477387266136,-0.059310477387266136
102.622,0.17198698767256504,-0.17198698767256504
102.623,0.23648465905045268,-0.23648465905045268
102.624,0.2377171761586342,-0.2377171761586342
102.625,0.18250737138021278,-0.18250737138021278
102.626,0.09710974445692233,-0.09710974445692233
102.627,0.01798493742330498,-0.01798493742330498
102.628,0.021048195383033264,0.021048195383033264
102.629,0.0008434898856859441,0.0008434898856859441
102.63,0.07607452741990339,-0.07607452741990339
102.631,0.1860519572933257,-0.1860519572933257
102.632,0.29227598563329726,-0.29227598563329726
102.633,0.35745081537490275,-0.35745081537490275
102.634,0.3567691620596197,-0.3567691620596197
102.635,0.28662028235719994,-0.28662028235719994
102.636,0.16593730183344768,-0.16593730183344768
102.637,0.02966241763499322,-0.02966241763499322
102.638,0.08340125958967959,0.08340125958967959
102.639,0.1440663855314408,0.1440663855314408
102.64,0.14276695478408086,0.14276695478408086
102.641,0.09248312920895985,0.09248312920895985
102.642,0.023470404952456336,0.023470404952456336
102.643,0.02839237213370871,-0.02839237213370871
102.644,0.03549498046108723,-0.03549498046108723
102.645,0.010398523516901292,0.010398523516901292
102.646,0.093961142405806,0.093961142405806
102.647,0.18077327563927725,0.18077327563927725
102.648,0.22913420812809648,0.22913420812809648
102.649,0.2052383393690962,0.2052383393690962
102.65,0.09642988690661825,0.09642988690661825
102.651,0.08222533690367995,-0.08222533690367995
102.652,0.2906057619282777,-0.2906057619282777
102.653,0.4748496416160919,-0.4748496416160919
102.654,0.5837380209557994,-0.5837380209557994
102.655,0.5847612935288142,-0.5847612935288142
102.656,0.4745163666861504,-0.4745163666861504
102.657,0.2799503592629975,-0.2799503592629975
102.658,0.05003910478853313,-0.05003910478853313
102.659,0.1592929715649023,0.1592929715649023
102.66,0.3019536622741301,0.3019536622741301
102.661,0.35460118272079644,0.35460118272079644
102.662,0.3215483511237627,0.3215483511237627
102.663,0.23033169369871143,0.23033169369871143
102.664,0.1198778088996435,0.1198778088996435
102.665,0.025732130325183622,0.025732130325183622
102.666,0.032261818089705296,-0.032261818089705296
102.667,0.055451780304403675,-0.055451780304403675
102.668,0.06322709754440226,-0.06322709754440226
102.669,0.08263896321121134,-0.08263896321121134
102.67,0.13490246509230708,-0.13490246509230708
102.671,0.22409988248831259,-0.22409988248831259
102.672,0.33266200739474094,-0.33266200739474094
102.673,0.4257509073366057,-0.4257509073366057
102.674,0.46336158927042415,-0.46336158927042415
102.675,0.415981624803621,-0.415981624803621
102.676,0.2780848851562655,-0.2780848851562655
102.677,0.07419586079137042,-0.07419586079137042
102.678,0.14535255992227336,0.14535255992227336
102.679,0.3183150268697863,0.3183150268697863
102.68,0.38996453590749436,0.38996453590749436
102.681,0.33175605223142624,0.33175605223142624
102.682,0.15282599418215392,0.15282599418215392
102.683,0.09997220977283572,-0.09997220977283572
102.684,0.3541552937891965,-0.3541552937891965
102.685,0.5324860254064584,-0.5324860254064584
102.686,0.576296622681234,-0.576296622681234
102.687,0.4639271254339944,-0.4639271254339944
102.688,0.21833920820678465,-0.21833920820678465
102.689,0.09868097201804016,0.09868097201804016
102.69,0.40408633856495535,0.40408633856495535
102.691,0.6175265654927964,0.6175265654927964
102.692,0.684322109764087,0.684322109764087
102.693,0.5904438320082246,0.5904438320082246
102.694,0.3650925155814426,0.3650925155814426
102.695,0.07044560162027147,0.07044560162027147
102.696,0.21783158616088671,-0.21783158616088671
102.697,0.43293710866189217,-0.43293710866189217
102.698,0.5351266513241562,-0.5351266513241562
102.699,0.5203681417945614,-0.5203681417945614
102.7,0.41738926769900586,-0.41738926769900586
102.701,0.27489669998041844,-0.27489669998041844
102.702,0.1438310531040229,-0.1438310531040229
102.703,0.06084672409096814,-0.06084672409096814
102.704,0.03839526584695652,-0.03839526584695652
102.705,0.06420459358511077,-0.06420459358511077
102.706,0.10953746696621236,-0.10953746696621236
102.707,0.14258646823763255,-0.14258646823763255
102.708,0.14175474348584405,-0.14175474348584405
102.709,0.10389409519306325,-0.10389409519306325
102.71,0.04464721638024782,-0.04464721638024782
102.711,0.008920865884336715,0.008920865884336715
102.712,0.030328674698816283,0.030328674698816283
102.713,0.005547901176647718,0.005547901176647718
102.714,0.05995080387340734,-0.05995080387340734
102.715,0.14184024711369092,-0.14184024711369092
102.716,0.20524362770169624,-0.20524362770169624
102.717,0.21778133094197205,-0.21778133094197205
102.718,0.16257473365098063,-0.16257473365098063
102.719,0.046292373941556386,-0.046292373941556386
102.72,0.10101338113971314,0.10101338113971314
102.721,0.2346467675872279,0.2346467675872279
102.722,0.3098621294498496,0.3098621294498496
102.723,0.2973867477878598,0.2973867477878598
102.724,0.19443888398454057,0.19443888398454057
102.725,0.02719895104551817,0.02719895104551817
102.726,0.15646487396940256,-0.15646487396940256
102.727,0.30188403401049024,-0.30188403401049024
102.728,0.3652839724808816,-0.3652839724808816
102.729,0.32839660440088836,-0.32839660440088836
102.73,0.20500607490063216,-0.20500607490063216
102.731,0.03705434387258322,-0.03705434387258322
102.732,0.11861274511441211,0.11861274511441211
102.733,0.20863882976655201,0.20863882976655201
102.734,0.2007035887397992,0.2007035887397992
102.735,0.09444470194345933,0.09444470194345933
102.736,0.07789848038374259,-0.07789848038374259
102.737,0.26143233062873983,-0.26143233062873983
102.738,0.39600554309147795,-0.39600554309147795
102.739,0.43548233488943544,-0.43548233488943544
102.74,0.36270642276453013,-0.36270642276453013
102.741,0.19536401612530552,-0.19536401612530552
102.742,0.019114733826580244,0.019114733826580244
102.743,0.21797449328572083,0.21797449328572083
102.744,0.3422974148623592,0.3422974148623592
102.745,0.3548987697742132,0.3548987697742132
102.746,0.25143921206159137,0.25143921206159137
102.747,0.061458398202961284,0.061458398202961284
102.748,0.16076937020943205,-0.16076937020943205
102.749,0.35252628776504746,-0.35252628776504746
102.75,0.4609760905670479,-0.4609760905670479
102.751,0.45798914597306517,-0.45798914597306517
102.752,0.34723235025877563,-0.34723235025877563
102.753,0.16181873513023992,-0.16181873513023992
102.754,0.04627849245012161,0.04627849245012161
102.755,0.22147676302417718,0.22147676302417718
102.756,0.31980261240040586,0.31980261240040586
102.757,0.3197531644694951,0.3197531644694951
102.758,0.22611716129098602,0.22611716129098602
102.759,0.06637042242984093,0.06637042242984093
102.76,0.1185509855402398,-0.1185509855402398
102.761,0.2858816509875116,-0.2858816509875116
102.762,0.40155707117873496,-0.40155707117873496
102.763,0.44694045883903755,-0.44694045883903755
102.764,0.42055020007903,-0.42055020007903
102.765,0.33523799429122825,-0.33523799429122825
102.766,0.21251082176145752,-0.21251082176145752
102.767,0.07619040269939703,-0.07619040269939703
102.768,0.052684997003849654,0.052684997003849654
102.769,0.15866269965447466,0.15866269965447466
102.77,0.23235313880007347,0.23235313880007347
102.771,0.269360696591572,0.269360696591572
102.772,0.2687777429882756,0.2687777429882756
102.773,0.2321666106997231,0.2321666106997231
102.774,0.16341248229616823,0.16341248229616823
102.775,0.06921079969217958,0.06921079969217958
102.776,0.04046746773217924,-0.04046746773217924
102.777,0.1526444294757926,-0.1526444294757926
102.778,0.2527396333664087,-0.2527396333664087
102.779,0.326990232494203,-0.326990232494203
102.78,0.3652663173040951,-0.3652663173040951
102.781,0.36339555345458396,-0.36339555345458396
102.782,0.3241922093025804,-0.3241922093025804
102.783,0.25678100056773345,-0.25678100056773345
102.784,0.1743612830863137,-0.1743612830863137
102.785,0.09106103969431434,-0.09106103969431434
102.786,0.018800203964245532,-0.018800203964245532
102.787,0.03496673060038935,0.03496673060038935
102.788,0.06809077164732957,0.06809077164732957
102.789,0.0830897703269613,0.0830897703269613
102.79,0.08541348740030141,0.08541348740030141
102.791,0.08125904951095353,0.08125904951095353
102.792,0.07560454643909953,0.07560454643909953
102.793,0.07094065789814596,0.07094065789814596
102.794,0.06688901359846011,0.06688901359846011
102.795,0.060625814829596614,0.060625814829596614
102.796,0.047868549008985184,0.047868549008985184
102.797,0.024152509434838265,0.024152509434838265
102.798,0.01382348231964925,-0.01382348231964925
102.799,0.0669437600056777,-0.0669437600056777
102.8,0.13267244010695156,-0.13267244010695156
102.801,0.20451562404568124,-0.20451562404568124
102.802,0.2722302246609485,-0.2722302246609485
102.803,0.3230434409189411,-0.3230434409189411
102.804,0.3439738149753305,-0.3439738149753305
102.805,0.3250093404214818,-0.3250093404214818
102.806,0.26248632981029263,-0.26248632981029263
102.807,0.1616856073240065,-0.1616856073240065
102.808,0.03759713224383987,-0.03759713224383987
102.809,0.08688548967661003,0.08688548967661003
102.81,0.18540851829163896,0.18540851829163896
102.811,0.2344444533517318,0.2344444533517318
102.812,0.219852450414052,0.219852450414052
102.813,0.14176321268714176,0.14176321268714176
102.814,0.016060014698779046,0.016060014698779046
102.815,0.12843065252528996,-0.12843065252528996
102.816,0.2566695304267467,-0.2566695304267467
102.817,0.3364016506972106,-0.3364016506972106
102.818,0.34689259834356956,-0.34689259834356956
102.819,0.28475902965242084,-0.28475902965242084
102.82,0.16499573819586044,-0.16499573819586044
102.821,0.016727796583305365,-0.016727796583305365
102.822,0.12511795740400733,0.12511795740400733
102.823,0.22967798762469904,0.22967798762469904
102.824,0.2784564655202044,0.2784564655202044
102.825,0.26944467404485706,0.26944467404485706
102.826,0.21581017067937935,0.21581017067937935
102.827,0.13974994534320762,0.13974994534320762
102.828,0.06377200999920762,0.06377200999920762
102.829,0.0025740801160401006,0.0025740801160401006
102.83,0.041521261290113354,-0.041521261290113354
102.831,0.07789969713362077,-0.07789969713362077
102.832,0.12201213192632065,-0.12201213192632065
102.833,0.18690786920513902,-0.18690786920513902
102.834,0.2752624764448207,-0.2752624764448207
102.835,0.37519315472424153,-0.37519315472424153
102.836,0.4618905849964664,-0.4618905849964664
102.837,0.5049981619511407,-0.5049981619511407
102.838,0.4794658908355398,-0.4794658908355398
102.839,0.37610108288603883,-0.37610108288603883
102.84,0.2078230021373284,-0.2078230021373284
102.841,0.00885893898979695,-0.00885893898979695
102.842,0.17356338555878792,0.17356338555878792
102.843,0.2928349659238534,0.2928349659238534
102.844,0.31766823222092966,0.31766823222092966
102.845,0.24297482200289466,0.24297482200289466
102.846,0.09299666313836008,0.09299666313836008
102.847,0.0848361698044584,-0.0848361698044584
102.848,0.2338058642698998,-0.2338058642698998
102.849,0.3053809190049228,-0.3053809190049228
102.85,0.274710139126069,-0.274710139126069
102.851,0.1490285926259105,-0.1490285926259105
102.852,0.03396284768403479,0.03396284768403479
102.853,0.21747091601824264,0.21747091601824264
102.854,0.34326222157265485,0.34326222157265485
102.855,0.3700039040130261,0.3700039040130261
102.856,0.2863970770676234,0.2863970770676234
102.857,0.11484139311338915,0.11484139311338915
102.858,0.09558065232224522,-0.09558065232224522
102.859,0.28454721205189537,-0.28454721205189537
102.86,0.39938561307758613,-0.39938561307758613
102.861,0.4113309054414902,-0.4113309054414902
102.862,0.3239815862628225,-0.3239815862628225
102.863,0.17136523423891814,-0.17136523423891814
102.864,0.006425287070419228,-0.006425287070419228
102.865,0.11618107404863842,0.11618107404863842
102.866,0.15733581885217007,0.15733581885217007
102.867,0.10525839321588526,0.10525839321588526
102.868,0.021730092261514122,-0.021730092261514122
102.869,0.18202177097992056,-0.18202177097992056
