Czas,AbsSum,Sum
191.415,0.10539899854160972,-0.10539899854160972
191.416,0.04851425899464812,-0.04851425899464812
191.417,0.01714479832895388,0.01714479832895388
191.418,0.07331974327849511,0.07331974327849511
191.419,0.10255861913340714,0.10255861913340714
191.42,0.09338293706775036,0.09338293706775036
191.421,0.043960189474560485,0.043960189474560485
191.422,0.0368826956584245,-0.0368826956584245
191.423,0.13167289863942333,-0.13167289863942333
191.424,0.21877931254600946,-0.21877931254600946
191.425,0.2780707439758736,-0.2780707439758736
191.426,0.29609934372087976,-0.29609934372087976
191.427,0.26933441703422356,-0.26933441703422356
191.428,0.20459155201072465,-0.20459155201072465
191.429,0.11666461305993259,-0.11666461305993259
191.43,0.023994653258380794,-0.023994653258380794
191.431,0.0562579357240951,0.0562579357240951
191.432,0.11228731175670048,0.11228731175670048
191.433,0.13977761857320914,0.13977761857320914
191.434,0.14168983919662415,0.14168983919662415
191.435,0.1260383186599241,0.1260383186599241
191.436,0.102573822920347,0.102573822920347
191.437,0.07952652193073173,0.07952652193073173
191.438,0.06140875716698968,0.06140875716698968
191.439,0.04841826261550142,0.04841826261550142
191.44,0.03739697534852526,0.03739697534852526
191.441,0.02379546636948282,0.02379546636948282
191.442,0.003829991553604417,0.003829991553604417
191.443,0.02393738925120692,-0.02393738925120692
191.444,0.05806273569411524,-0.05806273569411524
191.445,0.09476753419990047,-0.09476753419990047
191.446,0.12922101586744017,-0.12922101586744017
191.447,0.15699661396219733,-0.15699661396219733
191.448,0.17516273682644135,-0.17516273682644135
191.449,0.18268886067887213,-0.18268886067887213
191.45,0.18016252677852573,-0.18016252677852573
191.451,0.16908839557469935,-0.16908839557469935
191.452,0.1511703861324516,-0.1511703861324516
191.453,0.12792133276811068,-0.12792133276811068
191.454,0.10073896629528689,-0.10073896629528689
191.455,0.07132934894892229,-0.07132934894892229
191.456,0.04216434628114141,-0.04216434628114141
191.457,0.016614498425958857,-0.016614498425958857
191.458,0.0014746391796509606,0.0014746391796509606
191.459,0.008745756741964206,0.008745756741964206
191.46,0.003546869229884342,0.003546869229884342
191.461,0.013058559628131405,-0.013058559628131405
191.462,0.036950171954239996,-0.036950171954239996
191.463,0.06155262320677557,-0.06155262320677557
191.464,0.07933988035394046,-0.07933988035394046
191.465,0.08386853512733405,-0.08386853512733405
191.466,0.07174059788008824,-0.07174059788008824
191.467,0.04386471944115422,-0.04386471944115422
191.468,0.005568285252547822,-0.005568285252547822
191.469,0.03454475790781353,0.03454475790781353
191.47,0.06670721690925197,0.06670721690925197
191.471,0.08248579474884221,0.08248579474884221
191.472,0.0769555275578897,0.0769555275578897
191.473,0.04994767774384368,0.04994767774384368
191.474,0.006053330176660543,0.006053330176660543
191.475,0.04656408713426741,-0.04656408713426741
191.476,0.09816060289737161,-0.09816060289737161
191.477,0.13962802000948382,-0.13962802000948382
191.478,0.16435185954178022,-0.16435185954178022
191.479,0.16929734695802978,-0.16929734695802978
191.48,0.15517816190339773,-0.15517816190339773
191.481,0.12583121516247597,-0.12583121516247597
191.482,0.08710276295103814,-0.08710276295103814
191.483,0.045602010350295985,-0.045602010350295985
191.484,0.007607070748298916,-0.007607070748298916
191.485,0.02173217864862398,0.02173217864862398
191.486,0.03888822078454335,0.03888822078454335
191.487,0.04221968716704683,0.04221968716704683
191.488,0.03207550383189206,0.03207550383189206
191.489,0.010748740692303915,0.010748740692303915
191.49,0.01778001067720636,-0.01778001067720636
191.491,0.0483926412285024,-0.0483926412285024
191.492,0.07570464485201966,-0.07570464485201966
191.493,0.09516184998763721,-0.09516184998763721
191.494,0.10412562353447308,-0.10412562353447308
191.495,0.10261918317022634,-0.10261918317022634
191.496,0.09342819729602114,-0.09342819729602114
191.497,0.08140019395531772,-0.08140019395531772
191.498,0.07203549404489362,-0.07203549404489362
191.499,0.06972643440241544,-0.06972643440241544
191.5,0.07618093034820572,-0.07618093034820572
191.501,0.08957909282035237,-0.08957909282035237
191.502,0.10482936975568413,-0.10482936975568413
191.503,0.1149558294498948,-0.1149558294498948
191.504,0.1132648208886815,-0.1132648208886815
191.505,0.0956399069284124,-0.0956399069284124
191.506,0.06221295207036037,-0.06221295207036037
191.507,0.01780899476737907,-0.01780899476737907
191.508,0.029070140408879563,0.029070140408879563
191.509,0.06848639005917234,0.06848639005917234
191.51,0.0918730386758333,0.0918730386758333
191.511,0.0945320989307683,0.0945320989307683
191.512,0.07700972722350974,0.07700972722350974
191.513,0.044879436472061496,0.044879436472061496
191.514,0.00697469795103145,0.00697469795103145
191.515,0.027374042731400983,-0.027374042731400983
191.516,0.05120296509819722,-0.05120296509819722
191.517,0.06193839290478498,-0.06193839290478498
191.518,0.061910855821555644,-0.061910855821555644
191.519,0.05719306337340224,-0.05719306337340224
191.52,0.055162288706187335,-0.055162288706187335
191.521,0.0616266261827868,-0.0616266261827868
191.522,0.07851325134114051,-0.07851325134114051
191.523,0.102936509530128,-0.102936509530128
191.524,0.128000803927655,-0.128000803927655
191.525,0.14510156305385036,-0.14510156305385036
191.526,0.14696663317431047,-0.14696663317431047
191.527,0.13040808390757408,-0.13040808390757408
191.528,0.09782600935062469,-0.09782600935062469
191.529,0.05690151491729012,-0.05690151491729012
191.53,0.018506707735735595,-0.018506707735735595
191.531,0.0065496835811258425,0.0065496835811258425
191.532,0.010926784791375432,0.010926784791375432
191.533,0.006777954983146484,-0.006777954983146484
191.534,0.041297381166348957,-0.041297381166348957
191.535,0.08197067037569028,-0.08197067037569028
191.536,0.11567436332880732,-0.11567436332880732
191.537,0.13054919596836245,-0.13054919596836245
191.538,0.11942799704860152,-0.11942799704860152
191.539,0.08197238727593836,-0.08197238727593836
191.54,0.02492426268449477,-0.02492426268449477
191.541,0.0395612623380337,0.0395612623380337
191.542,0.09698928364189108,0.09698928364189108
191.543,0.13412548399061142,0.13412548399061142
191.544,0.14215258099773043,0.14215258099773043
191.545,0.11860200908071983,0.11860200908071983
191.546,0.06767068887541106,0.06767068887541106
191.547,0.0010101587506106124,-0.0010101587506106124
191.548,0.0747035348318491,-0.0747035348318491
191.549,0.14033200006604518,-0.14033200006604518
191.55,0.18701653194013312,-0.18701653194013312
191.551,0.2078944448748834,-0.2078944448748834
191.552,0.20097973455854024,-0.20097973455854024
191.553,0.1690815354987789,-0.1690815354987789
191.554,0.11897162589722521,-0.11897162589722521
191.555,0.06006275936683492,-0.06006275936683492
191.556,0.002844477865116768,-0.002844477865116768
191.557,0.04273077610084419,0.04273077610084419
191.558,0.06876156482447993,0.06876156482447993
191.559,0.07066705981448207,0.07066705981448207
191.56,0.04804284162402994,0.04804284162402994
191.561,0.004913859411540766,0.004913859411540766
191.562,0.05077301395342981,-0.05077301395342981
191.563,0.10846287160190993,-0.10846287160190993
191.564,0.1569744713407798,-0.1569744713407798
191.565,0.1868007410171063,-0.1868007410171063
191.566,0.19221742961193478,-0.19221742961193478
191.567,0.17265006688515283,-0.17265006688515283
191.568,0.1328747135876538,-0.1328747135876538
191.569,0.08190583241836458,-0.08190583241836458
191.57,0.03078553188372335,-0.03078553188372335
191.571,0.01017621233283128,0.01017621233283128
191.572,0.03396381828348627,0.03396381828348627
191.573,0.038492980212595285,0.038492980212595285
191.574,0.026839814254261407,0.026839814254261407
191.575,0.005988333195191098,0.005988333195191098
191.576,0.015528640261986193,-0.015528640261986193
191.577,0.03037299858920517,-0.03037299858920517
191.578,0.034678109950707414,-0.034678109950707414
191.579,0.029145502461980555,-0.029145502461980555
191.58,0.01861619394957026,-0.01861619394957026
191.581,0.010256249118050564,-0.010256249118050564
191.582,0.010943433878565667,-0.010943433878565667
191.583,0.024706139104252123,-0.024706139104252123
191.584,0.05105876731941572,-0.05105876731941572
191.585,0.08479830510167252,-0.08479830510167252
191.586,0.1173622299278757,-0.1173622299278757
191.587,0.13934647060031824,-0.13934647060031824
191.588,0.14340498532409818,-0.14340498532409818
191.589,0.12662125964799564,-0.12662125964799564
191.59,0.0915992553687659,-0.0915992553687659
191.591,0.045916991615714386,-0.045916991615714386
191.592,9.384107269683195e-05,-9.384107269683195e-05
191.593,0.0353183681024003,0.0353183681024003
191.594,0.05264435376991128,0.05264435376991128
191.595,0.04912664278580858,0.04912664278580858
191.596,0.02750721363299724,0.02750721363299724
191.597,0.00498933357849507,-0.00498933357849507
191.598,0.038924115240444146,-0.038924115240444146
191.599,0.06544934977015526,-0.06544934977015526
191.6,0.07879735485359296,-0.07879735485359296
191.601,0.07772518102665393,-0.07772518102665393
191.602,0.06552956796375442,-0.06552956796375442
191.603,0.04869400719082273,-0.04869400719082273
191.604,0.034640452704303715,-0.034640452704303715
191.605,0.02930864369528885,-0.02930864369528885
191.606,0.03530652858412253,-0.03530652858412253
191.607,0.051169808460197586,-0.051169808460197586
191.608,0.0719098697549827,-0.0719098697549827
191.609,0.09063320639931238,-0.09063320639931238
191.61,0.10070321135940685,-0.10070321135940685
191.611,0.09777657397291539,-0.09777657397291539
191.612,0.08111390978106237,-0.08111390978106237
191.613,0.05380645223103231,-0.05380645223103231
191.614,0.021895959637162288,-0.021895959637162288
191.615,0.007311115277012226,0.007311115277012226
191.616,0.02721643071711588,0.02721643071711588
191.617,0.03361667256487677,0.03361667256487677
191.618,0.025646876873927305,0.025646876873927305
191.619,0.005762620902593163,0.005762620902593163
191.62,0.02116896376113042,-0.02116896376113042
191.621,0.049350707966461904,-0.049350707966461904
191.622,0.07364989755511142,-0.07364989755511142
191.623,0.09084630321246212,-0.09084630321246212
191.624,0.1002060086168779,-0.1002060086168779
191.625,0.10327026817732166,-0.10327026817732166
191.626,0.10298346088132138,-0.10298346088132138
191.627,0.10246889597464814,-0.10246889597464814
191.628,0.10384624835139411,-0.10384624835139411
191.629,0.10745128286630568,-0.10745128286630568
191.63,0.11168296581337422,-0.11168296581337422
191.631,0.11350851807113593,-0.11350851807113593
191.632,0.10946113871055307,-0.10946113871055307
191.633,0.09682341769440828,-0.09682341769440828
191.634,0.07463993588480689,-0.07463993588480689
191.635,0.044256317905630116,-0.044256317905630116
191.636,0.009221141669348953,-0.009221141669348953
191.637,0.02542952596008563,0.02542952596008563
191.638,0.054310127831340926,0.054310127831340926
191.639,0.07293377905800846,0.07293377905800846
191.64,0.07873063346533193,0.07873063346533193
191.641,0.0715655476009438,0.0715655476009438
191.642,0.05362907695138586,0.05362907695138586
191.643,0.028754346247005902,0.028754346247005902
191.644,0.0013725556496941849,0.0013725556496941849
191.645,0.02458465076117544,-0.02458465076117544
191.646,0.0465244866888489,-0.0465244866888489
191.647,0.06355166102680987,-0.06355166102680987
191.648,0.07627796096005024,-0.07627796096005024
191.649,0.08618579428552342,-0.08618579428552342
191.65,0.0947845746228797,-0.0947845746228797
191.651,0.10285680989544432,-0.10285680989544432
191.652,0.11005254010108056,-0.11005254010108056
191.653,0.11496839598057673,-0.11496839598057673
191.654,0.1156802130726422,-0.1156802130726422
191.655,0.11054024765363746,-0.11054024765363746
191.656,0.09895398902459163,-0.09895398902459163
191.657,0.0818505630848606,-0.0818505630848606
191.658,0.06165736836553526,-0.06165736836553526
191.659,0.041754067001277484,-0.041754067001277484
191.66,0.025560010490009666,-0.025560010490009666
191.661,0.015542679497589806,-0.015542679497589806
191.662,0.012476016748912855,-0.012476016748912855
191.663,0.015209168914502191,-0.015209168914502191
191.664,0.021046838828006842,-0.021046838828006842
191.665,0.026642124735488215,-0.026642124735488215
191.666,0.02912698629395738,-0.02912698629395738
191.667,0.027114201531410198,-0.027114201531410198
191.668,0.021231776022468285,-0.021231776022468285
191.669,0.013991901716398858,-0.013991901716398858
191.67,0.009009223084006535,-0.009009223084006535
191.671,0.009799464053996343,-0.009799464053996343
191.672,0.0185378403214973,-0.0185378403214973
191.673,0.03518554144444941,-0.03518554144444941
191.674,0.057288078208692306,-0.057288078208692306
191.675,0.08054117936931882,-0.08054117936931882
191.676,0.09997304699440857,-0.09997304699440857
191.677,0.11138583984200989,-0.11138583984200989
191.678,0.11260301360653624,-0.11260301360653624
191.679,0.10411753643380295,-0.10411753643380295
191.68,0.08891770370198793,-0.08891770370198793
191.681,0.07152714846509833,-0.07152714846509833
191.682,0.05655149343705834,-0.05655149343705834
191.683,0.04719270750014826,-0.04719270750014826
191.684,0.04421635715622452,-0.04421635715622452
191.685,0.04572445902009703,-0.04572445902009703
191.686,0.04783558563748036,-0.04783558563748036
191.687,0.0460814462535688,-0.0460814462535688
191.688,0.03708789919179267,-0.03708789919179267
191.689,0.019996970295748873,-0.019996970295748873
191.69,0.0028554782586072136,0.0028554782586072136
191.691,0.026277205229101597,0.026277205229101597
191.692,0.04353433389835293,0.04353433389835293
191.693,0.04829630806490748,0.04829630806490748
191.694,0.03664998220462534,0.03664998220462534
191.695,0.008571633707632031,0.008571633707632031
191.696,0.03162069691298164,-0.03162069691298164
191.697,0.07603039518355292,-0.07603039518355292
191.698,0.1150079618275417,-0.1150079618275417
191.699,0.13957241039018609,-0.13957241039018609
191.7,0.14377596644495205,-0.14377596644495205
191.701,0.12635815881514123,-0.12635815881514123
191.702,0.09122024442938503,-0.09122024442938503
191.703,0.04657003381577052,-0.04657003381577052
191.704,0.002949696022117143,-0.002949696022117143
191.705,0.029337856061957046,0.029337856061957046
191.706,0.042729715652473965,0.042729715652473965
191.707,0.034184776090151914,0.034184776090151914
191.708,0.00580426827867031,0.00580426827867031
191.709,0.03583258045994475,-0.03583258045994475
191.71,0.08139934040640906,-0.08139934040640906
191.711,0.12113107051418903,-0.12113107051418903
191.712,0.14709586036504885,-0.14709586036504885
191.713,0.15485984140575282,-0.15485984140575282
191.714,0.14417293515459828,-0.14417293515459828
191.715,0.11858750545993646,-0.11858750545993646
191.716,0.08421075503280628,-0.08421075503280628
191.717,0.048003230924410945,-0.048003230924410945
191.718,0.01611596906784385,-0.01611596906784385
191.719,0.007305561705171826,0.007305561705171826
191.72,0.020601959158217387,0.020601959158217387
191.721,0.02434931916535943,0.02434931916535943
191.722,0.020576128109291325,0.020576128109291325
191.723,0.01177849272377296,0.01177849272377296
191.724,8.151086406438246e-05,8.151086406438246e-05
191.725,0.013200177497375232,-0.013200177497375232
191.726,0.02751793483841858,-0.02751793483841858
191.727,0.042658780896365545,-0.042658780896365545
191.728,0.05816356266764944,-0.05816356266764944
191.729,0.07287481618578451,-0.07287481618578451
191.73,0.0848399648643382,-0.0848399648643382
191.731,0.0916587242371697,-0.0916587242371697
191.732,0.09119288399100023,-0.09119288399100023
191.733,0.08241001998530151,-0.08241001998530151
191.734,0.0660601713265816,-0.0660601713265816
191.735,0.044912216270655336,-0.044912216270655336
191.736,0.023398541474623058,-0.023398541474623058
191.737,0.006696255512696592,-0.006696255512696592
191.738,0.000544726212081903,0.000544726212081903
191.739,0.004510885470570103,-0.004510885470570103
191.74,0.021949562492287855,-0.021949562492287855
191.741,0.048819120717977116,-0.048819120717977116
191.742,0.07960793038950675,-0.07960793038950675
191.743,0.1074095266314734,-0.1074095266314734
191.744,0.1254983572660271,-0.1254983572660271
191.745,0.12892431885580402,-0.12892431885580402
191.746,0.11572200590085868,-0.11572200590085868
191.747,0.08742842072696722,-0.08742842072696722
191.748,0.04878229774089404,-0.04878229774089404
191.749,0.006688690011523835,-0.006688690011523835
191.75,0.03128399595035436,0.03128399595035436
191.751,0.058499596840424495,0.058499596840424495
191.752,0.07056168119930617,0.07056168119930617
191.753,0.06604518372861556,0.06604518372861556
191.754,0.046526111022094696,0.046526111022094696
191.755,0.01596625899862647,0.01596625899862647
191.756,0.020336065266131853,-0.020336065266131853
191.757,0.05693223416281179,-0.05693223416281179
191.758,0.08924871606388718,-0.08924871606388718
191.759,0.11423158668244215,-0.11423158668244215
191.76,0.1305174715455989,-0.1305174715455989
191.761,0.13817605481211714,-0.13817605481211714
191.762,0.13817854875622604,-0.13817854875622604
191.763,0.1317999063090709,-0.1317999063090709
191.764,0.12015089830421599,-0.12015089830421599
191.765,0.10396932296624795,-0.10396932296624795
191.766,0.08370189572917175,-0.08370189572917175
191.767,0.059810420147381804,-0.059810420147381804
191.768,0.03316552898988512,-0.03316552898988512
191.769,0.0053663399278987,-0.0053663399278987
191.77,0.02115140109194691,0.02115140109194691
191.771,0.04329245637842538,0.04329245637842538
191.772,0.05775457567003017,0.05775457567003017
191.773,0.06166573216511506,0.06166573216511506
191.774,0.05325862885074706,0.05325862885074706
191.775,0.03241535016920194,0.03241535016920194
191.776,0.0009365195458495013,0.0009365195458495013
191.777,0.03755386007825878,-0.03755386007825878
191.778,0.07807795807770024,-0.07807795807770024
191.779,0.11507513596218377,-0.11507513596218377
191.78,0.1433324246175739,-0.1433324246175739
191.781,0.15889236052785127,-0.15889236052785127
191.782,0.15975414178767167,-0.15975414178767167
191.783,0.1462216791916131,-0.1462216791916131
191.784,0.1208224489955676,-0.1208224489955676
191.785,0.08780998691094477,-0.08780998691094477
191.786,0.05235148794702382,-0.05235148794702382
191.787,0.01957036022721237,-0.01957036022721237
191.788,0.006354764945574187,0.006354764945574187
191.789,0.022846956858716183,0.022846956858716183
191.79,0.02921396971273449,0.02921396971273449
191.791,0.026516302867937158,0.026516302867937158
191.792,0.017078121456496786,0.017078121456496786
191.793,0.0037826331327062146,0.0037826331327062146
191.794,0.01065954510770506,-0.01065954510770506
191.795,0.02428320440798648,-0.02428320440798648
191.796,0.03614864090545433,-0.03614864090545433
191.797,0.0462821276061145,-0.0462821276061145
191.798,0.055327623202578446,-0.055327623202578446
191.799,0.0640413453197265,-0.0640413453197265
191.8,0.07280144840894376,-0.07280144840894376
191.801,0.08129394678397817,-0.08129394678397817
191.802,0.08847691425834803,-0.08847691425834803
191.803,0.09283592896000847,-0.09283592896000847
191.804,0.09285177213266516,-0.09285177213266516
191.805,0.08753437244882023,-0.08753437244882023
191.806,0.07685498892418297,-0.07685498892418297
191.807,0.06193779505174224,-0.06193779505174224
191.808,0.0449427883287431,-0.0449427883287431
191.809,0.028662163398777696,-0.028662163398777696
191.81,0.01593435300744661,-0.01593435300744661
191.811,0.009029531034614569,-0.009029531034614569
191.812,0.009163953341862485,-0.009163953341862485
191.813,0.016259230536380898,-0.016259230536380898
191.814,0.028991348891585167,-0.028991348891585167
191.815,0.045096200348066495,-0.045096200348066495
191.816,0.06183723708739275,-0.06183723708739275
191.817,0.07651310136774159,-0.07651310136774159
191.818,0.0868930519250829,-0.0868930519250829
191.819,0.0915074128378498,-0.0915074128378498
191.82,0.08977199620793008,-0.08977199620793008
191.821,0.08197029008162893,-0.08197029008162893
191.822,0.06914095500377682,-0.06914095500377682
191.823,0.052916529179238725,-0.052916529179238725
191.824,0.03533873624327355,-0.03533873624327355
191.825,0.018650516214873458,-0.018650516214873458
191.826,0.005050308708580364,-0.005050308708580364
191.827,0.003599732082044893,0.003599732082044893
191.828,0.006093001972585332,0.006093001972585332
191.829,0.0021696369189014852,0.0021696369189014852
191.83,0.007305258939367842,-0.007305258939367842
191.831,0.020365177357578257,-0.020365177357578257
191.832,0.03422471095153856,-0.03422471095153856
191.833,0.04581352569110997,-0.04581352569110997
191.834,0.05247329376143395,-0.05247329376143395
191.835,0.052657737981944175,-0.052657737981944175
191.836,0.04644160364422889,-0.04644160364422889
191.837,0.035665787157953655,-0.035665787157953655
191.838,0.023625366617488153,-0.023625366617488153
191.839,0.014327949502761173,-0.014327949502761173
191.84,0.011478770517487802,-0.011478770517487802
191.841,0.017446835282888817,-0.017446835282888817
191.842,0.032499173928774994,-0.032499173928774994
191.843,0.05454107957942467,-0.05454107957942467
191.844,0.07947619326351507,-0.07947619326351507
191.845,0.10213233731381433,-0.10213233731381433
191.846,0.1175339014544049,-0.1175339014544049
191.847,0.1221887252698527,-0.1221887252698527
191.848,0.11503373579426801,-0.11503373579426801
191.849,0.0977615544030842,-0.0977615544030842
191.85,0.07441270455480553,-0.07441270455480553
191.851,0.050321727556528306,-0.050321727556528306
191.852,0.03069290213939946,-0.03069290213939946
191.853,0.019196995465488143,-0.019196995465488143
191.854,0.016987883463184694,-0.016987883463184694
191.855,0.022430571262921473,-0.022430571262921473
191.856,0.031636969368044277,-0.031636969368044277
191.857,0.039676082981008554,-0.039676082981008554
191.858,0.04212615511011408,-0.04212615511011408
191.859,0.03652606000260261,-0.03652606000260261
191.86,0.023296302972416805,-0.023296302972416805
191.861,0.005836398471120052,-0.005836398471120052
191.862,0.010269976252347712,0.010269976252347712
191.863,0.018758902783532205,0.018758902783532205
191.864,0.014507392572509215,0.014507392572509215
191.865,0.004825956103608031,-0.004825956103608031
191.866,0.037809580640718154,-0.037809580640718154
191.867,0.07920635995248937,-0.07920635995248937
191.868,0.1209605120861853,-0.1209605120861853
191.869,0.15399231855923978,-0.15399231855923978
191.87,0.17036638667378667,-0.17036638667378667
191.871,0.16528704503695157,-0.16528704503695157
191.872,0.1384044999445686,-0.1384044999445686
191.873,0.09408143569432492,-0.09408143569432492
191.874,0.040529477709988715,-0.040529477709988715
191.875,0.011988953142184622,0.011988953142184622
191.876,0.05345980171898912,0.05345980171898912
191.877,0.07635584347333668,0.07635584347333668
191.878,0.07726776909662081,0.07726776909662081
191.879,0.057535348674821796,0.057535348674821796
191.88,0.022739392466873953,0.022739392466873953
191.881,0.018797793696191833,-0.018797793696191833
191.882,0.05810878988688728,-0.05810878988688728
191.883,0.087735694365357,-0.087735694365357
191.884,0.1033997763529636,-0.1033997763529636
191.885,0.10477779401123555,-0.10477779401123555
191.886,0.09521536769989314,-0.09521536769989314
191.887,0.08048809188251393,-0.08048809188251393
191.888,0.06696990988733675,-0.06696990988733675
191.889,0.05972071957734726,-0.05972071957734726
191.89,0.061021103322124626,-0.061021103322124626
191.891,0.06975675293659311,-0.06975675293659311
191.892,0.08182089025793915,-0.08182089025793915
191.893,0.09142124939572482,-0.09142124939572482
191.894,0.09292410978893628,-0.09292410978893628
191.895,0.08271074292833047,-0.08271074292833047
191.896,0.06050640754162384,-0.06050640754162384
191.897,0.029776568374239032,-0.029776568374239032
191.898,0.0029632683803340054,0.0029632683803340054
191.899,0.02977458033657654,0.02977458033657654
191.9,0.04343804154653341,0.04343804154653341
191.901,0.03952522851825013,0.03952522851825013
191.902,0.01780860090922709,0.01780860090922709
191.903,0.017420209028779277,-0.017420209028779277
191.904,0.058263965737320955,-0.058263965737320955
191.905,0.09516345353876055,-0.09516345353876055
191.906,0.11937006599343092,-0.11937006599343092
191.907,0.12527695846411935,-0.12527695846411935
191.908,0.11195325657350264,-0.11195325657350264
191.909,0.08342870632713517,-0.08342870632713517
191.91,0.047616587587669956,-0.047616587587669956
191.911,0.0141478569680763,-0.0141478569680763
191.912,0.008290851369828323,0.008290851369828323
191.913,0.014364509445192741,0.014364509445192741
191.914,0.0035471844842009936,0.0035471844842009936
191.915,0.019804137242930064,-0.019804137242930064
191.916,0.04779670634828004,-0.04779670634828004
191.917,0.07138895077748086,-0.07138895077748086
191.918,0.08311998285816402,-0.08311998285816402
191.919,0.07936917638390639,-0.07936917638390639
191.92,0.06145983367135299,-0.06145983367135299
191.921,0.03525820895660181,-0.03525820895660181
191.922,0.00937058735063323,-0.00937058735063323
191.923,0.007528103194947899,0.007528103194947899
191.924,0.009423463665932497,0.009423463665932497
191.925,0.005096017603267611,-0.005096017603267611
191.926,0.03230154350344849,-0.03230154350344849
191.927,0.06438612947611266,-0.06438612947611266
191.928,0.09182694499970834,-0.09182694499970834
191.929,0.10633646624774706,-0.10633646624774706
191.93,0.10349161961143871,-0.10349161961143871
191.931,0.0842109625437617,-0.0842109625437617
191.932,0.054592360705591925,-0.054592360705591925
191.933,0.02412608991837828,-0.02412608991837828
191.934,0.00280653181488022,-0.00280653181488022
191.935,0.0019798885710275993,0.0019798885710275993
191.936,0.012173490236924267,-0.012173490236924267
191.937,0.041812326586417425,-0.041812326586417425
191.938,0.0785293517329928,-0.0785293517329928
191.939,0.1114093834605624,-0.1114093834605624
191.94,0.13027990007854195,-0.13027990007854195
191.941,0.12877992083667744,-0.12877992083667744
191.942,0.10630923651497848,-0.10630923651497848
191.943,0.06826083572014485,-0.06826083572014485
191.944,0.024465896911433305,-0.024465896911433305
191.945,0.013671752585108665,0.013671752585108665
191.946,0.03647763303730556,0.03647763303730556
191.947,0.03874755491266657,0.03874755491266657
191.948,0.02111646312789439,0.02111646312789439
191.949,0.010321719079271596,-0.010321719079271596
191.95,0.04597828850084851,-0.04597828850084851
191.951,0.07567553968165508,-0.07567553968165508
191.952,0.09158704488481739,-0.09158704488481739
191.953,0.09033120432815844,-0.09033120432815844
191.954,0.07363601227280436,-0.07363601227280436
191.955,0.04746119979228969,-0.04746119979228969
191.956,0.01994564241387775,-0.01994564241387775
191.957,0.001111519018225593,0.001111519018225593
191.958,0.0104313456268319,0.0104313456268319
191.959,0.006459683835216001,0.006459683835216001
191.96,0.008679375472031015,-0.008679375472031015
191.961,0.030329478425363487,-0.030329478425363487
191.962,0.05305032930514142,-0.05305032930514142
191.963,0.07231931775952105,-0.07231931775952105
191.964,0.08561966582604497,-0.08561966582604497
191.965,0.09262257914676231,-0.09262257914676231
191.966,0.09452958637954179,-0.09452958637954179
191.967,0.0929511487408432,-0.0929511487408432
191.968,0.08884775504494091,-0.08884775504494091
191.969,0.0820004633470357,-0.0820004633470357
191.97,0.07123751641601372,-0.07123751641601372
191.971,0.05531698825028175,-0.05531698825028175
191.972,0.03407835878722931,-0.03407835878722931
191.973,0.009339366449874542,-0.009339366449874542
191.974,0.014916371607845758,0.014916371607845758
191.975,0.03326176808912429,0.03326176808912429
191.976,0.04031166044186274,0.04031166044186274
191.977,0.03250987873609046,0.03250987873609046
191.978,0.009595026024996844,0.009595026024996844
191.979,0.024819984721172084,-0.024819984721172084
191.98,0.06385232772595217,-0.06385232772595217
191.981,0.09904473892438037,-0.09904473892438037
191.982,0.122678223913819,-0.122678223913819
191.983,0.12999063543218747,-0.12999063543218747
191.984,0.1205837096666863,-0.1205837096666863
191.985,0.09853698137277334,-0.09853698137277334
191.986,0.07115229917492627,-0.07115229917492627
191.987,0.04669556750455439,-0.04669556750455439
191.988,0.031835605157600644,-0.031835605157600644
191.989,0.02959079192708547,-0.02959079192708547
191.99,0.03844248910021364,-0.03844248910021364
191.991,0.052906900739062346,-0.052906900739062346
191.992,0.06539246275654365,-0.06539246275654365
191.993,0.0687586280447714,-0.0687586280447714
191.994,0.05876700871526719,-0.05876700871526719
191.995,0.0356488353892751,-0.0356488353892751
191.996,0.004290968973028053,-0.004290968973028053
191.997,0.027025298304083067,0.027025298304083067
191.998,0.048951940282659256,0.048951940282659256
191.999,0.05376746438526103,0.05376746438526103
192.0,0.03763756603943591,0.03763756603943591
192.001,0.001793611054052846,0.001793611054052846
192.002,0.047681625338324096,-0.047681625338324096
192.003,0.10135504731084521,-0.10135504731084521
192.004,0.14876264276878182,-0.14876264276878182
192.005,0.18087694432265766,-0.18087694432265766
192.006,0.19206123852087598,-0.19206123852087598
192.007,0.18104944532216938,-0.18104944532216938
192.008,0.15080465048251968,-0.15080465048251968
192.009,0.10743110705270409,-0.10743110705270409
192.01,0.05854605080979036,-0.05854605080979036
192.011,0.011599776440075149,-0.011599776440075149
192.012,0.027439726384689278,0.027439726384689278
192.013,0.054802458927993625,0.054802458927993625
192.014,0.06901303601250208,0.06901303601250208
192.015,0.07052407905428915,0.07052407905428915
192.016,0.061127129289974436,0.061127129289974436
192.017,0.043366078478681125,0.043366078478681125
192.018,0.020089189545482444,0.020089189545482444
192.019,0.005836214413772245,-0.005836214413772245
192.02,0.0317067317836498,-0.0317067317836498
192.021,0.05514950434678756,-0.05514950434678756
192.022,0.07432394598872172,-0.07432394598872172
192.023,0.08814148539172795,-0.08814148539172795
192.024,0.09642366220853837,-0.09642366220853837
192.025,0.09989792665524233,-0.09989792665524233
192.026,0.09996648904895145,-0.09996648904895145
192.027,0.09826506613181851,-0.09826506613181851
192.028,0.09612178512816827,-0.09612178512816827
192.029,0.09409024961136392,-0.09409024961136392
192.03,0.09173286150192728,-0.09173286150192728
192.031,0.08776248383703056,-0.08776248383703056
192.032,0.08053214376954987,-0.08053214376954987
192.033,0.06873502463757308,-0.06873502463757308
192.034,0.05208805460288146,-0.05208805460288146
192.035,0.03175764732016284,-0.03175764732016284
192.036,0.01035537560514399,-0.01035537560514399
192.037,0.008535974410471603,0.008535974410471603
192.038,0.02119339889331817,0.02119339889331817
192.039,0.024709372690109976,0.024709372690109976
192.04,0.017793517360081168,0.017793517360081168
192.041,0.0011842531539580925,0.0011842531539580925
192.042,0.022448600873049562,-0.022448600873049562
192.043,0.04907791227007108,-0.04907791227007108
192.044,0.07420187622233543,-0.07420187622233543
192.045,0.09378963861566236,-0.09378963861566236
192.046,0.10504607647145114,-0.10504607647145114
192.047,0.10682595412165186,-0.10682595412165186
192.048,0.09964360447856124,-0.09964360447856124
192.049,0.08534059577725894,-0.08534059577725894
192.05,0.06655344692939902,-0.06655344692939902
192.051,0.04614637023690937,-0.04614637023690937
192.052,0.026742677065453302,-0.026742677065453302
192.053,0.010424141049170554,-0.010424141049170554
192.054,0.0014000429302398754,0.0014000429302398754
192.055,0.007998580147948076,0.007998580147948076
192.056,0.009253349925310683,0.009253349925310683
192.057,0.005563617772209151,0.005563617772209151
192.058,0.002269513068519413,-0.002269513068519413
192.059,0.013185715096820871,-0.013185715096820871
192.06,0.0260395193565085,-0.0260395193565085
192.061,0.03978727281819572,-0.03978727281819572
192.062,0.05363982997460903,-0.05363982997460903
192.063,0.06712013711502429,-0.06712013711502429
192.064,0.07998155866171763,-0.07998155866171763
192.065,0.09199141599796523,-0.09199141599796523
192.066,0.10264909055312854,-0.10264909055312854
192.067,0.11096111499205819,-0.11096111499205819
192.068,0.11540788040524652,-0.11540788040524652
192.069,0.11419142501722357,-0.11419142501722357
192.07,0.10575717327716072,-0.10575717327716072
192.071,0.08946422538242338,-0.08946422538242338
192.072,0.06618372764349145,-0.06618372764349145
192.073,0.038576576933951445,-0.038576576933951445
192.074,0.010864389518188244,-0.010864389518188244
192.075,0.011946659118545977,0.011946659118545977
192.076,0.025242372991981954,0.025242372991981954
192.077,0.026065593656606767,0.026065593656606767
192.078,0.01407878825687181,0.01407878825687181
192.079,0.008119723988186833,-0.008119723988186833
192.08,0.03549766699025936,-0.03549766699025936
192.081,0.061830075996998746,-0.061830075996998746
192.082,0.08135195313652832,-0.08135195313652832
192.083,0.09033325572131701,-0.09033325572131701
192.084,0.08807779313284658,-0.08807779313284658
192.085,0.07700546002449082,-0.07700546002449082
192.086,0.06176055191041896,-0.06176055191041896
192.087,0.047609200301864885,-0.047609200301864885
192.088,0.03863887395616872,-0.03863887395616872
192.089,0.03636255338583083,-0.03636255338583083
192.09,0.039219621129142124,-0.039219621129142124
192.091,0.043181411363347744,-0.043181411363347744
192.092,0.04329950381141434,-0.04329950381141434
192.093,0.03570098429595103,-0.03570098429595103
192.094,0.019352591896774185,-0.019352591896774185
192.095,0.003045556164225971,0.003045556164225971
192.096,0.025418405104573605,0.025418405104573605
192.097,0.03990823810001398,0.03990823810001398
192.098,0.03926726457244656,0.03926726457244656
192.099,0.019324169981650652,0.019324169981650652
192.1,0.01927032439244636,-0.01927032439244636
192.101,0.07062699840807063,-0.07062699840807063
192.102,0.12474831368889772,-0.12474831368889772
192.103,0.1699481462918201,-0.1699481462918201
192.104,0.19589498803759264,-0.19589498803759264
192.105,0.19640068752856965,-0.19640068752856965
192.106,0.17113247663994968,-0.17113247663994968
192.107,0.12573519864613103,-0.12573519864613103
192.108,0.07031897122235387,-0.07031897122235387
192.109,0.016750387868244343,-0.016750387868244343
192.11,0.024465894661760412,0.024465894661760412
192.111,0.046819385263342506,0.046819385263342506
192.112,0.0492047402730198,0.0492047402730198
192.113,0.035752880640663065,0.035752880640663065
192.114,0.014196644359876665,0.014196644359876665
192.115,0.006690523320988628,-0.006690523320988628
192.116,0.01979502752691653,-0.01979502752691653
192.117,0.021708452367821263,-0.021708452367821263
192.118,0.01355149569161418,-0.01355149569161418
192.119,0.000393956552209751,-0.000393956552209751
192.12,0.010493939167395272,0.010493939167395272
192.121,0.011996644302987303,0.011996644302987303
192.122,0.0005930486102521115,-0.0005930486102521115
192.123,0.028063173176643086,-0.028063173176643086
192.124,0.06691103161360124,-0.06691103161360124
192.125,0.11016717642668405,-0.11016717642668405
192.126,0.1491396438731215,-0.1491396438731215
192.127,0.17557243735951222,-0.17557243735951222
192.128,0.18363716769977878,-0.18363716769977878
192.129,0.17126281288912104,-0.17126281288912104
192.13,0.1405160814969746,-0.1405160814969746
192.131,0.0970057553699476,-0.0970057553699476
192.132,0.048524897104702425,-0.048524897104702425
192.133,0.0033065545935823115,-0.0033065545935823115
192.134,0.031678134553531745,0.031678134553531745
192.135,0.0520038169674828,0.0520038169674828
192.136,0.056413673991441815,0.056413673991441815
192.137,0.04670869664162458,0.04670869664162458
192.138,0.026997885127963972,0.026997885127963972
192.139,0.002532599659504031,0.002532599659504031
192.14,0.02158160005789911,-0.02158160005789911
192.141,0.041497991820011015,-0.041497991820011015
192.142,0.055325868937692535,-0.055325868937692535
192.143,0.06327550292771111,-0.06327550292771111
192.144,0.06724577259941467,-0.06724577259941467
192.145,0.06998186259965566,-0.06998186259965566
192.146,0.07403641720073462,-0.07403641720073462
192.147,0.08082132744982484,-0.08082132744982484
192.148,0.09002155153140512,-0.09002155153140512
192.149,0.0995542697718661,-0.0995542697718661
192.15,0.1061122539024626,-0.1061122539024626
192.151,0.10616364156452152,-0.10616364156452152
192.152,0.09713664822184964,-0.09713664822184964
192.153,0.07844156865304541,-0.07844156865304541
192.154,0.05200317643387853,-0.05200317643387853
192.155,0.0220972881016267,-0.0220972881016267
192.156,0.005522006622982412,0.005522006622982412
192.157,0.02500626027905284,0.02500626027905284
192.158,0.03194268735672279,0.03194268735672279
192.159,0.02459794678773708,0.02459794678773708
192.16,0.004502754193349778,0.004502754193349778
192.161,0.023820679839920644,-0.023820679839920644
192.162,0.05394422919152275,-0.05394422919152275
192.163,0.07915064635940461,-0.07915064635940461
192.164,0.09413970022498863,-0.09413970022498863
192.165,0.09635016206048674,-0.09635016206048674
192.166,0.0865326247647259,-0.0865326247647259
192.167,0.06842465220128824,-0.06842465220128824
192.168,0.0476382789053752,-0.0476382789053752
192.169,0.03009150854340148,-0.03009150854340148
192.17,0.020433761769658165,-0.020433761769658165
192.171,0.0208973910715049,-0.0208973910715049
192.172,0.030864046864078842,-0.030864046864078842
192.173,0.04721523556589613,-0.04721523556589613
192.174,0.06531163686240249,-0.06531163686240249
192.175,0.08028396430261064,-0.08028396430261064
192.176,0.08826320187273173,-0.08826320187273173
192.177,0.08723656825011838,-0.08723656825011838
192.178,0.07735754371582648,-0.07735754371582648
192.179,0.0607100858322166,-0.0607100858322166
192.18,0.04067165608924328,-0.04067165608924328
192.181,0.021096150736975128,-0.021096150736975128
192.182,0.005534249877417241,-0.005534249877417241
192.183,0.003357415525373497,0.003357415525373497
192.184,0.004158665603224643,0.004158665603224643
192.185,0.0032020232786694747,-0.0032020232786694747
192.186,0.017509584401386724,-0.017509584401386724
192.187,0.03644876075344705,-0.03644876075344705
192.188,0.05689637845677353,-0.05689637845677353
192.189,0.07532849211451675,-0.07532849211451675
192.19,0.08834917558392219,-0.08834917558392219
192.191,0.0933072466774082,-0.0933072466774082
192.192,0.08890249987533994,-0.08890249987533994
192.193,0.07562582229475345,-0.07562582229475345
192.194,0.05586373666429689,-0.05586373666429689
192.195,0.033550552378661336,-0.033550552378661336
192.196,0.013367782070842105,-0.013367782070842105
192.197,0.00036074449459011504,0.00036074449459011504
192.198,0.00480015685055335,0.00480015685055335
192.199,0.000572589680092106,-0.000572589680092106
192.2,0.013739571255971361,-0.013739571255971361
192.201,0.0306375131354214,-0.0306375131354214
192.202,0.04629080923706741,-0.04629080923706741
192.203,0.056280931675445456,-0.056280931675445456
192.204,0.05811678798454689,-0.05811678798454689
192.205,0.052068881536636025,-0.052068881536636025
192.206,0.04117269301395332,-0.04117269301395332
192.207,0.030355847763659516,-0.030355847763659516
192.208,0.024922467098365764,-0.024922467098365764
192.209,0.028845089961729742,-0.028845089961729742
192.21,0.04339458739856494,-0.04339458739856494
192.211,0.06654959374880609,-0.06654959374880609
192.212,0.09339294904107276,-0.09339294904107276
192.213,0.11739670896099175,-0.11739670896099175
192.214,0.1322183440790603,-0.1322183440790603
192.215,0.13347023502085842,-0.13347023502085842
192.216,0.11993520793503987,-0.11993520793503987
192.217,0.09387847495400214,-0.09387847495400214
192.218,0.06039116748103224,-0.06039116748103224
192.219,0.025997802312247353,-0.025997802312247353
192.22,0.003027833250565548,0.003027833250565548
192.221,0.022133244513701023,0.022133244513701023
192.222,0.029343360109082672,0.029343360109082672
192.223,0.025327398654551914,0.025327398654551914
192.224,0.01276638047984835,0.01276638047984835
192.225,0.0046781462206700875,-0.0046781462206700875
192.226,0.023406292217173386,-0.023406292217173386
192.227,0.0406028654577536,-0.0406028654577536
192.228,0.05448206329960903,-0.05448206329960903
192.229,0.06410616784875234,-0.06410616784875234
192.23,0.06899828487472481,-0.06899828487472481
192.231,0.06882855079683525,-0.06882855079683525
192.232,0.06338428190996581,-0.06338428190996581
192.233,0.052868998980956206,-0.052868998980956206
192.234,0.03838421045770457,-0.03838421045770457
192.235,0.02231406934328084,-0.02231406934328084
192.236,0.008318504888054301,-0.008318504888054301
192.237,0.0007611522664598969,-0.0007611522664598969
192.238,0.0036162101643697486,-0.0036162101643697486
192.239,0.01913333306609355,-0.01913333306609355
192.24,0.04669891196004883,-0.04669891196004883
192.241,0.08234461780529134,-0.08234461780529134
192.242,0.1191989725562902,-0.1191989725562902
192.243,0.1488949837089043,-0.1488949837089043
192.244,0.16362633660917125,-0.16362633660917125
192.245,0.15829613270964715,-0.15829613270964715
192.246,0.13211734228113625,-0.13211734228113625
192.247,0.08914319037277518,-0.08914319037277518
192.248,0.03750102640661457,-0.03750102640661457
192.249,0.012513644107718713,0.012513644107718713
192.25,0.050976547265582095,0.050976547265582095
192.251,0.07079843512601514,0.07079843512601514
192.252,0.0694167933050005,0.0694167933050005
192.253,0.04924541191921916,0.04924541191921916
192.254,0.016781557314613504,0.016781557314613504
192.255,0.019333268819880844,-0.019333268819880844
192.256,0.05070488802117579,-0.05070488802117579
192.257,0.0713276383476702,-0.0713276383476702
192.258,0.07888216191983377,-0.07888216191983377
192.259,0.0748825189460377,-0.0748825189460377
192.26,0.06372993250201775,-0.06372993250201775
192.261,0.05105486863469022,-0.05105486863469022
192.262,0.04191263174659943,-0.04191263174659943
192.263,0.039390169252650487,-0.039390169252650487
192.264,0.04399837200893941,-0.04399837200893941
192.265,0.053936877221621216,-0.053936877221621216
192.266,0.06602931536982815,-0.06602931536982815
192.267,0.07693224254552677,-0.07693224254552677
192.268,0.08417857535667628,-0.08417857535667628
192.269,0.08672820299801376,-0.08672820299801376
192.27,0.08491316539021765,-0.08491316539021765
192.271,0.07989841337253956,-0.07989841337253956
192.272,0.07294651930903462,-0.07294651930903462
192.273,0.06481959167871065,-0.06481959167871065
192.274,0.05556545673897495,-0.05556545673897495
192.275,0.04475770609088836,-0.04475770609088836
192.276,0.032062140656999305,-0.032062140656999305
192.277,0.017861638418905867,-0.017861638418905867
192.278,0.0036401819501911126,-0.0036401819501911126
192.279,0.00808477800447105,0.00808477800447105
192.28,0.014318677960711845,0.014318677960711845
192.281,0.012478638440976964,0.012478638440976964
192.282,0.0013180513074075861,0.0013180513074075861
192.283,0.018444349146971017,-0.018444349146971017
192.284,0.044037074946831956,-0.044037074946831956
192.285,0.07116050753084024,-0.07116050753084024
192.286,0.09498916364868704,-0.09498916364868704
192.287,0.1113551730835054,-0.1113551730835054
192.288,0.11775357143749354,-0.11775357143749354
192.289,0.11386747437565514,-0.11386747437565514
192.29,0.10146850279218023,-0.10146850279218023
192.291,0.08375030310381115,-0.08375030310381115
192.292,0.06433148351973406,-0.06433148351973406
192.293,0.0462592601815508,-0.0462592601815508
192.294,0.03132696024715309,-0.03132696024715309
192.295,0.019896910843231308,-0.019896910843231308
192.296,0.011239663576025238,-0.011239663576025238
192.297,0.004224094419275848,-0.004224094419275848
192.298,0.001919679768944249,0.001919679768944249
192.299,0.007055445456464859,0.007055445456464859
192.3,0.01001712871217908,0.01001712871217908
192.301,0.008953899822483402,0.008953899822483402
192.302,0.002024150018442583,0.002024150018442583
192.303,0.011804766392940702,-0.011804766392940702
192.304,0.032132449831057674,-0.032132449831057674
192.305,0.056901681014693395,-0.056901681014693395
192.306,0.08266944132747855,-0.08266944132747855
192.307,0.10530876601282746,-0.10530876601282746
192.308,0.12094318198364651,-0.12094318198364651
192.309,0.12684750252905896,-0.12684750252905896
192.31,0.12206561748995559,-0.12206561748995559
192.311,0.10758782893823593,-0.10758782893823593
192.312,0.08606400607834153,-0.08606400607834153
192.313,0.06116003004579751,-0.06116003004579751
192.314,0.036753395620551466,-0.036753395620551466
192.315,0.01618600350938204,-0.01618600350938204
192.316,0.0017478275466761284,-0.0017478275466761284
192.317,0.005524692364573536,0.005524692364573536
192.318,0.005753399646511781,0.005753399646511781
192.319,7.614358829488577e-05,-7.614358829488577e-05
192.32,0.010476263157938592,-0.010476263157938592
192.321,0.023768936904922655,-0.023768936904922655
192.322,0.038283632367593246,-0.038283632367593246
192.323,0.052442782153432344,-0.052442782153432344
192.324,0.06478820085252412,-0.06478820085252412
192.325,0.07402040758877682,-0.07402040758877682
192.326,0.0791033135129019,-0.0791033135129019
192.327,0.07943922428898342,-0.07943922428898342
192.328,0.07506467710129228,-0.07506467710129228
192.329,0.06678019731831997,-0.06678019731831997
192.33,0.05612443531983591,-0.05612443531983591
192.331,0.04514034347177531,-0.04514034347177531
192.332,0.035948088548385604,-0.035948088548385604
192.333,0.03021427406821242,-0.03021427406821242
192.334,0.02866297040693022,-0.02866297040693022
192.335,0.030788452375034914,-0.030788452375034914
192.336,0.034892050413872555,-0.034892050413872555
192.337,0.03848223855720301,-0.03848223855720301
192.338,0.03896975484030618,-0.03896975484030618
192.339,0.03448969940544688,-0.03448969940544688
192.34,0.024622234271929333,-0.024622234271929333
192.341,0.010785367943242474,-0.010785367943242474
192.342,0.003857038331553042,0.003857038331553042
192.343,0.015005820754253829,0.015005820754253829
192.344,0.01824435054687945,0.01824435054687945
192.345,0.010225815755422696,0.010225815755422696
192.346,0.010277898966044918,-0.010277898966044918
192.347,0.04176257988162213,-0.04176257988162213
192.348,0.08001540092002768,-0.08001540092002768
192.349,0.11882074405448495,-0.11882074405448495
192.35,0.15121328147537472,-0.15121328147537472
192.351,0.17099065871179842,-0.17099065871179842
192.352,0.1741160886894263,-0.1741160886894263
192.353,0.15965595379036968,-0.15965595379036968
192.354,0.1300087695776615,-0.1300087695776615
192.355,0.09036180683586281,-0.09036180683586281
192.356,0.047512037925285355,-0.047512037925285355
192.357,0.008353431438999026,-0.008353431438999026
192.358,0.021583707513050943,0.021583707513050943
192.359,0.03917768059109439,0.03917768059109439
192.36,0.04410247859723837,0.04410247859723837
192.361,0.038500776109684276,0.038500776109684276
192.362,0.026082961889653644,0.026082961889653644
192.363,0.01094227138651127,0.01094227138651127
192.364,0.00356300665544651,-0.00356300665544651
192.365,0.015552901145372333,-0.015552901145372333
192.366,0.02481922256668212,-0.02481922256668212
192.367,0.03247089260900293,-0.03247089260900293
192.368,0.04019971711760917,-0.04019971711760917
192.369,0.04944033780560442,-0.04944033780560442
192.37,0.060711179882543265,-0.060711179882543265
192.371,0.0733439261771488,-0.0733439261771488
192.372,0.08566680647325409,-0.08566680647325409
192.373,0.0955508086852298,-0.0955508086852298
192.374,0.10110996693041663,-0.10110996693041663
192.375,0.10130515325891243,-0.10130515325891243
192.376,0.09624666859181708,-0.09624666859181708
192.377,0.08710576381814006,-0.08710576381814006
192.378,0.07568718296819954,-0.07568718296819954
192.379,0.06383350513648467,-0.06383350513648467
192.38,0.05288600723354109,-0.05288600723354109
192.381,0.043397799635136014,-0.043397799635136014
192.382,0.03519446384462188,-0.03519446384462188
192.383,0.027742216919444118,-0.027742216919444118
192.384,0.02066316344473418,-0.02066316344473418
192.385,0.01417600628122695,-0.01417600628122695
192.386,0.009262438581671195,-0.009262438581671195
192.387,0.007458561113271256,-0.007458561113271256
192.388,0.01031323666123618,-0.01031323666123618
192.389,0.018690788295505745,-0.018690788295505745
192.39,0.032174088174537374,-0.032174088174537374
192.391,0.04881437518055265,-0.04881437518055265
192.392,0.06537447975745703,-0.06537447975745703
192.393,0.07805234815864515,-0.07805234815864515
192.394,0.08350385850432185,-0.08350385850432185
192.395,0.07986503938234502,-0.07986503938234502
192.396,0.06744694853804434,-0.06744694853804434
192.397,0.04885558294449199,-0.04885558294449199
192.398,0.028453575190412472,-0.028453575190412472
192.399,0.011280584540863892,-0.011280584540863892
192.4,0.0017223727539522615,-0.0017223727539522615
192.401,0.002308503155540098,-0.002308503155540098
192.402,0.012994379048184124,-0.012994379048184124
192.403,0.03114934547169712,-0.03114934547169712
192.404,0.05226782019160847,-0.05226782019160847
192.405,0.07120662889328655,-0.07120662889328655
192.406,0.0835942127039575,-0.0835942127039575
192.407,0.08700470674612559,-0.08700470674612559
192.408,0.08155871834808925,-0.08155871834808925
192.409,0.06978254454621624,-0.06978254454621624
192.41,0.05577736641936892,-0.05577736641936892
192.411,0.043953418237589026,-0.043953418237589026
192.412,0.03771023366612558,-0.03771023366612558
192.413,0.038455473593039136,-0.038455473593039136
192.414,0.04524895800418127,-0.04524895800418127
192.415,0.055167995229397304,-0.055167995229397304
192.416,0.0642726358720419,-0.0642726358720419
192.417,0.06887032803839532,-0.06887032803839532
192.418,0.06669185933010235,-0.06669185933010235
192.419,0.05761995396109976,-0.05761995396109976
192.42,0.0437489315070837,-0.0437489315070837
192.421,0.028757005712358952,-0.028757005712358952
192.422,0.01678127048265543,-0.01678127048265543
192.423,0.01113699670998114,-0.01113699670998114
192.424,0.013272318163814467,-0.013272318163814467
192.425,0.022281689002975114,-0.022281689002975114
192.426,0.035136205389444175,-0.035136205389444175
192.427,0.047574448671221514,-0.047574448671221514
192.428,0.05539717838818037,-0.05539717838818037
192.429,0.05578259862354029,-0.05578259862354029
192.43,0.04822454886377159,-0.04822454886377159
192.431,0.03479974465117286,-0.03479974465117286
192.432,0.01966331294220025,-0.01966331294220025
192.433,0.007898781427218782,-0.007898781427218782
192.434,0.004042982211041268,-0.004042982211041268
192.435,0.010710090580355436,-0.010710090580355436
192.436,0.027719997808936858,-0.027719997808936858
192.437,0.05199784206699665,-0.05199784206699665
192.438,0.07829254382785722,-0.07829254382785722
192.439,0.10052584877453208,-0.10052584877453208
192.44,0.11339903268838114,-0.11339903268838114
192.441,0.11380696399891643,-0.11380696399891643
192.442,0.10166240916673341,-0.10166240916673341
192.443,0.07990232957322319,-0.07990232957322319
192.444,0.053682773299455255,-0.053682773299455255
192.445,0.02900011241532041,-0.02900011241532041
192.446,0.011135168337406576,-0.011135168337406576
192.447,0.003356631992025627,-0.003356631992025627
192.448,0.006231021053969443,-0.006231021053969443
192.449,0.017697702409559923,-0.017697702409559923
192.45,0.03383895664566816,-0.03383895664566816
192.451,0.050077637525835605,-0.050077637525835605
192.452,0.062428295017293856,-0.062428295017293856
192.453,0.06844103292094306,-0.06844103292094306
192.454,0.06760095889584605,-0.06760095889584605
192.455,0.06113467857066024,-0.06113467857066024
192.456,0.05136410545667247,-0.05136410545667247
192.457,0.040874643068212424,-0.040874643068212424
192.458,0.03179086353493654,-0.03179086353493654
192.459,0.02537580383628879,-0.02537580383628879
192.46,0.02202387581453158,-0.02202387581453158
192.461,0.021559554639119516,-0.021559554639119516
192.462,0.02364419149562358,-0.02364419149562358
192.463,0.02807155571862141,-0.02807155571862141
192.464,0.03480466060913434,-0.03480466060913434
192.465,0.04374109395831427,-0.04374109395831427
192.466,0.05433546285897839,-0.05433546285897839
192.467,0.06529590761987558,-0.06529590761987558
192.468,0.07456666469149364,-0.07456666469149364
192.469,0.07970614453200509,-0.07970614453200509
192.47,0.07860514685159548,-0.07860514685159548
192.471,0.07032563993649255,-0.07032563993649255
192.472,0.05574475819430669,-0.05574475819430669
192.473,0.03770775598984766,-0.03770775598984766
192.474,0.020533104345741626,-0.020533104345741626
192.475,0.008932059747093324,-0.008932059747093324
192.476,0.006628926453053685,-0.006628926453053685
192.477,0.015113296605257731,-0.015113296605257731
192.478,0.03296022040621982,-0.03296022040621982
192.479,0.0560035481120813,-0.0560035481120813
192.48,0.0783822120567863,-0.0783822120567863
192.481,0.09418437642499644,-0.09418437642499644
192.482,0.09919245518338071,-0.09919245518338071
192.483,0.09216633884740322,-0.09216633884740322
192.484,0.07522604295927127,-0.07522604295927127
192.485,0.05317660488906706,-0.05317660488906706
192.486,0.0319680986798907,-0.0319680986798907
192.487,0.016783803389065044,-0.016783803389065044
192.488,0.010392925318948754,-0.010392925318948754
192.489,0.012333676611946509,-0.012333676611946509
192.49,0.01922313630753858,-0.01922313630753858
192.491,0.026107707730364083,-0.026107707730364083
192.492,0.028401074942548843,-0.028401074942548843
192.493,0.023734219268227497,-0.023734219268227497
192.494,0.013047817986007737,-0.013047817986007737
192.495,0.0004982675539594306,-0.0004982675539594306
192.496,0.007850243195739681,0.007850243195739681
192.497,0.0061475007490892075,0.0061475007490892075
192.498,0.009013354250931194,-0.009013354250931194
192.499,0.037038397959357594,-0.037038397959357594
192.5,0.07303316063690579,-0.07303316063690579
192.501,0.10894218774816122,-0.10894218774816122
192.502,0.13582678014945548,-0.13582678014945548
192.503,0.146580992914359,-0.146580992914359
192.504,0.1382100285740474,-0.1382100285740474
192.505,0.11290848526107422,-0.11290848526107422
192.506,0.07754799803648549,-0.07754799803648549
192.507,0.04169546099140409,-0.04169546099140409
192.508,0.014765342317574537,-0.014765342317574537
192.509,0.003200710570115506,-0.003200710570115506
192.51,0.008577782738463657,-0.008577782738463657
192.511,0.027235212164182454,-0.027235212164182454
192.512,0.051537787260455103,-0.051537787260455103
192.513,0.07235740085992026,-0.07235740085992026
192.514,0.0819667550659301,-0.0819667550659301
192.515,0.0764208035324423,-0.0764208035324423
192.516,0.056684652518685485,-0.056684652518685485
192.517,0.028189341772899,-0.028189341772899
192.518,0.000986135784680764,0.000986135784680764
192.519,0.022671292434691015,0.022671292434691015
192.52,0.031050889815553706,0.031050889815553706
192.521,0.024229871044156193,0.024229871044156193
192.522,0.0044745176759632965,0.0044745176759632965
192.523,0.022848947504416794,-0.022848947504416794
192.524,0.05118427259006397,-0.05118427259006397
192.525,0.07483521720861963,-0.07483521720861963
192.526,0.09045278915144295,-0.09045278915144295
192.527,0.0975093966763857,-0.0975093966763857
192.528,0.09770942884488143,-0.09770942884488143
192.529,0.09368265098698392,-0.09368265098698392
192.53,0.08755550309369331,-0.08755550309369331
192.531,0.08000788946674853,-0.08000788946674853
192.532,0.07019983849034317,-0.07019983849034317
192.533,0.056581520202951374,-0.056581520202951374
192.534,0.03822433446480544,-0.03822433446480544
192.535,0.016075018807940045,-0.016075018807940045
192.536,0.006467575717558294,0.006467575717558294
192.537,0.02401525244839431,0.02401525244839431
192.538,0.030659654580860618,0.030659654580860618
192.539,0.022006549463846392,0.022006549463846392
192.54,0.0029334784530414826,-0.0029334784530414826
192.541,0.040726156881354614,-0.040726156881354614
192.542,0.08384621866804365,-0.08384621866804365
192.543,0.12240117745721346,-0.12240117745721346
192.544,0.14680187732936434,-0.14680187732936434
192.545,0.1505772864003635,-0.1505772864003635
192.546,0.13242943958366094,-0.13242943958366094
192.547,0.09682543112648356,-0.09682543112648356
192.548,0.05286959226188315,-0.05286959226188315
192.549,0.01174742492849501,-0.01174742492849501
192.55,0.01649783805178151,0.01649783805178151
192.551,0.02586341284638527,0.02586341284638527
192.552,0.016054395519653708,0.016054395519653708
192.553,0.0076030184862891925,-0.0076030184862891925
192.554,0.035971351138451624,-0.035971351138451624
192.555,0.05905646216833438,-0.05905646216833438
192.556,0.06916751914791464,-0.06916751914791464
192.557,0.06328464628269359,-0.06328464628269359
192.558,0.043898879034301785,-0.043898879034301785
192.559,0.018084529617087397,-0.018084529617087397
192.56,0.004869830644465001,0.004869830644465001
192.561,0.016492440101096406,0.016492440101096406
192.562,0.011846226155384665,0.011846226155384665
192.563,0.008922038747331329,-0.008922038747331329
192.564,0.040666415966407854,-0.040666415966407854
192.565,0.07489572056029503,-0.07489572056029503
192.566,0.10243637243910475,-0.10243637243910475
192.567,0.11623999750891678,-0.11623999750891678
192.568,0.11345130916344959,-0.11345130916344959
192.569,0.09611298627987286,-0.09611298627987286
192.57,0.07033456751235478,-0.07033456751235478
192.571,0.04424193828162992,-0.04424193828162992
192.572,0.025395639372375656,-0.025395639372375656
192.573,0.018506267698116696,-0.018506267698116696
192.574,0.024148208185449493,-0.024148208185449493
192.575,0.03882983772959714,-0.03882983772959714
192.576,0.05633676611772975,-0.05633676611772975
192.577,0.06986842976025498,-0.06986842976025498
192.578,0.07426051874159167,-0.07426051874159167
192.579,0.067590522073259,-0.067590522073259
192.58,0.05168890965811457,-0.05168890965811457
192.581,0.03144304910988904,-0.03144304910988904
192.582,0.013163916980860058,-0.013163916980860058
192.583,0.0025662414273234235,-0.0025662414273234235
192.584,0.003008226436124528,-0.003008226436124528
192.585,0.014526740043793951,-0.014526740043793951
192.586,0.03393222668141804,-0.03393222668141804
192.587,0.05588689244077283,-0.05588689244077283
192.588,0.07458884063735727,-0.07458884063735727
192.589,0.08551485031519146,-0.08551485031519146
192.59,0.08668150429126842,-0.08668150429126842
192.591,0.07905784162144336,-0.07905784162144336
192.592,0.06604166395090194,-0.06604166395090194
192.593,0.052205851159009664,-0.052205851159009664
192.594,0.041739884178421005,-0.041739884178421005
192.595,0.037091475422401876,-0.037091475422401876
192.596,0.03823473955336931,-0.03823473955336931
192.597,0.042784016386879675,-0.042784016386879675
192.598,0.04690312911680494,-0.04690312911680494
192.599,0.046711601440410755,-0.046711601440410755
192.6,0.03973641554753271,-0.03973641554753271
192.601,0.02594425140853185,-0.02594425140853185
192.602,0.00801664153864079,-0.00801664153864079
192.603,0.00924057617675067,0.00924057617675067
192.604,0.020200440663916908,0.020200440663916908
192.605,0.020060537335921946,0.020060537335921946
192.606,0.006352082191025232,0.006352082191025232
192.607,0.02013574723022238,-0.02013574723022238
192.608,0.05530264569298027,-0.05530264569298027
192.609,0.09259575399967535,-0.09259575399967535
192.61,0.12456156681571018,-0.12456156681571018
192.611,0.14467525080453658,-0.14467525080453658
192.612,0.14895212397379354,-0.14895212397379354
192.613,0.13690733906432684,-0.13690733906432684
192.614,0.11161332718290207,-0.11161332718290207
192.615,0.07885648084838626,-0.07885648084838626
192.616,0.04564153707697305,-0.04564153707697305
192.617,0.018463029926782837,-0.018463029926782837
192.618,0.001810279597571518,-0.001810279597571518
192.619,0.002714535164068943,0.002714535164068943
192.62,0.0035233849701061803,-0.0035233849701061803
192.621,0.016867016177906535,-0.016867016177906535
192.622,0.032546618642193326,-0.032546618642193326
192.623,0.04599231219804256,-0.04599231219804256
192.624,0.05391094588814027,-0.05391094588814027
192.625,0.05486909348588187,-0.05486909348588187
192.626,0.0493017026633229,-0.0493017026633229
192.627,0.03904776091110951,-0.03904776091110951
192.628,0.02664041573070841,-0.02664041573070841
192.629,0.01461247240522845,-0.01461247240522845
192.63,0.0050172557982010035,-0.0050172557982010035
192.631,0.0007581773231375433,0.0007581773231375433
192.632,0.0019422238372135414,0.0019422238372135414
192.633,0.001767931442651638,-0.001767931442651638
192.634,0.010297694169879468,-0.010297694169879468
192.635,0.023147755642519807,-0.023147755642519807
192.636,0.03923593668016989,-0.03923593668016989
192.637,0.05675736524168007,-0.05675736524168007
192.638,0.07323243260314838,-0.07323243260314838
192.639,0.08586403235709839,-0.08586403235709839
192.64,0.09219978688735431,-0.09219978688735431
192.641,0.09093794499673158,-0.09093794499673158
192.642,0.0825941524403987,-0.0825941524403987
192.643,0.06972136675941787,-0.06972136675941787
192.644,0.056476015664831625,-0.056476015664831625
192.645,0.047531552259674315,-0.047531552259674315
192.646,0.046590962361731325,-0.046590962361731325
192.647,0.05495111327100288,-0.05495111327100288
192.648,0.0706384681848724,-0.0706384681848724
192.649,0.0885214214773471,-0.0885214214773471
192.65,0.10152485951881485,-0.10152485951881485
192.651,0.10270624562242314,-0.10270624562242314
192.652,0.08761964271851053,-0.08761964271851053
192.653,0.05621680616895697,-0.05621680616895697
192.654,0.01359328445566732,-0.01359328445566732
192.655,0.030811703644693322,0.030811703644693322
192.656,0.06548772852023599,0.06548772852023599
192.657,0.08003633830764523,0.08003633830764523
192.658,0.0683548968037655,0.0683548968037655
192.659,0.03082965413135952,0.03082965413135952
192.66,0.02521986214186478,-0.02521986214186478
192.661,0.08710887848868698,-0.08710887848868698
192.662,0.1400209811293528,-0.1400209811293528
192.663,0.1710245952844759,-0.1710245952844759
192.664,0.17270527992830764,-0.17270527992830764
192.665,0.14531682807777024,-0.14531682807777024
192.666,0.09677042329372709,-0.09677042329372709
192.667,0.0404227197832574,-0.0404227197832574
192.668,0.008706876827521581,0.008706876827521581
192.669,0.038173944587248654,0.038173944587248654
192.67,0.041541317411517786,0.041541317411517786
192.671,0.019991331578157467,0.019991331578157467
192.672,0.018335160752636748,-0.018335160752636748
192.673,0.06102642186341933,-0.06102642186341933
192.674,0.09525112701790917,-0.09525112701790917
192.675,0.11157195100057216,-0.11157195100057216
192.676,0.1065635987275324,-0.1065635987275324
192.677,0.0834828587921218,-0.0834828587921218
192.678,0.050869157667877585,-0.050869157667877585
192.679,0.01960371372316294,-0.01960371372316294
192.68,0.0005846080653506558,0.0005846080653506558
192.681,0.004049884805373605,0.004049884805373605
192.682,0.00928829401930309,-0.00928829401930309
192.683,0.03429000673850979,-0.03429000673850979
192.684,0.06254543481254016,-0.06254543481254016
192.685,0.08520862815833741,-0.08520862815833741
192.686,0.09575440676412539,-0.09575440676412539
192.687,0.09178626182378047,-0.09178626182378047
192.688,0.07539125620019793,-0.07539125620019793
192.689,0.05204855414108123,-0.05204855414108123
192.69,0.02857273140364669,-0.02857273140364669
192.691,0.01085418726373688,-0.01085418726373688
192.692,0.0021635233817798305,-0.0021635233817798305
192.693,0.002530415029865285,-0.002530415029865285
192.694,0.009294879494321395,-0.009294879494321395
192.695,0.018512867348536854,-0.018512867348536854
192.696,0.026624381593972624,-0.026624381593972624
192.697,0.031748513055806726,-0.031748513055806726
192.698,0.0341574547308916,-0.0341574547308916
192.699,0.03581977899576305,-0.03581977899576305
192.7,0.03926122962355727,-0.03926122962355727
192.701,0.04623742783604001,-0.04623742783604001
192.702,0.05676224853161582,-0.05676224853161582
192.703,0.06887856694457994,-0.06887856694457994
192.704,0.07926082072952179,-0.07926082072952179
192.705,0.08441648939565305,-0.08441648939565305
192.706,0.0820264881693441,-0.0820264881693441
192.707,0.07191408660928778,-0.07191408660928778
192.708,0.056272461202367396,-0.056272461202367396
192.709,0.03905617134533812,-0.03905617134533812
192.71,0.024747770964923643,-0.024747770964923643
192.711,0.01693505420694652,-0.01693505420694652
192.712,0.017197407788312913,-0.017197407788312913
192.713,0.024682418654378924,-0.024682418654378924
192.714,0.03650304005009153,-0.03650304005009153
192.715,0.04879484305264803,-0.04879484305264803
192.716,0.058047274076471034,-0.058047274076471034
192.717,0.062240711975731555,-0.062240711975731555
192.718,0.061406704735117223,-0.061406704735117223
192.719,0.05744546437924869,-0.05744546437924869
192.72,0.05330054981053434,-0.05330054981053434
192.721,0.051809605046292395,-0.051809605046292395
192.722,0.0546469383333964,-0.0546469383333964
192.723,0.061720466043589495,-0.061720466043589495
192.724,0.07120874424011159,-0.07120874424011159
192.725,0.0801925823728118,-0.0801925823728118
192.726,0.08563458321732387,-0.08563458321732387
192.727,0.0853575497551875,-0.0853575497551875
192.728,0.07869812460193903,-0.07869812460193903
192.729,0.06664681583594734,-0.06664681583594734
192.73,0.05147359258572681,-0.05147359258572681
192.731,0.03600878697348242,-0.03600878697348242
192.732,0.022843696555681192,-0.022843696555681192
192.733,0.013708377516689407,-0.013708377516689407
192.734,0.00918948427327304,-0.00918948427327304
192.735,0.008813338419357608,-0.008813338419357608
192.736,0.01139454689383923,-0.01139454689383923
192.737,0.015482986253013697,-0.015482986253013697
192.738,0.01974880779755217,-0.01974880779755217
192.739,0.023211630618801382,-0.023211630618801382
192.74,0.025308945124300264,-0.025308945124300264
192.741,0.025867588400955932,-0.025867588400955932
192.742,0.025062169328365136,-0.025062169328365136
192.743,0.023412012946736782,-0.023412012946736782
192.744,0.02180558584137171,-0.02180558584137171
192.745,0.021484959167352158,-0.021484959167352158
192.746,0.023906292502880566,-0.023906292502880566
192.747,0.030430276300345338,-0.030430276300345338
192.748,0.041876961544274116,-0.041876961544274116
192.749,0.058067818281860806,-0.058067818281860806
192.75,0.07753137829613621,-0.07753137829613621
192.751,0.09753526241676902,-0.09753526241676902
192.752,0.11452061383896261,-0.11452061383896261
192.753,0.12487994638685729,-0.12487994638685729
192.754,0.12588453059539473,-0.12588453059539473
192.755,0.1164862968567344,-0.1164862968567344
192.756,0.09772920871960955,-0.09772920871960955
192.757,0.07261102684052423,-0.07261102684052423
192.758,0.04540655832594864,-0.04540655832594864
192.759,0.020639603050709443,-0.020639603050709443
192.76,0.0020092538747433775,-0.0020092538747433775
192.761,0.00840780999604851,0.00840780999604851
192.762,0.010452020852294908,0.010452020852294908
192.763,0.0056180494236210965,0.0056180494236210965
192.764,0.0036322163805092567,-0.0036322163805092567
192.765,0.014712632453698804,-0.014712632453698804
192.766,0.025610945727137402,-0.025610945727137402
192.767,0.03522136322042302,-0.03522136322042302
192.768,0.0432504402326489,-0.0432504402326489
192.769,0.04981080853611519,-0.04981080853611519
192.77,0.05493887567720024,-0.05493887567720024
192.771,0.058291498843711986,-0.058291498843711986
192.772,0.05918500228021739,-0.05918500228021739
192.773,0.05697489271129108,-0.05697489271129108
192.774,0.05160445046128315,-0.05160445046128315
192.775,0.04404773356307834,-0.04404773356307834
192.776,0.03638531586125515,-0.03638531586125515
192.777,0.03138189093625188,-0.03138189093625188
192.778,0.031637791622319056,-0.031637791622319056
192.779,0.03858300072257559,-0.03858300072257559
192.78,0.05169091024394501,-0.05169091024394501
192.781,0.06825777330330562,-0.06825777330330562
192.782,0.08392201076200922,-0.08392201076200922
192.783,0.09383982641401156,-0.09383982641401156
192.784,0.0941816674671282,-0.0941816674671282
192.785,0.08346374925022715,-0.08346374925022715
192.786,0.06324375009727834,-0.06324375009727834
192.787,0.03789549786268187,-0.03789549786268187
192.788,0.013476620928566163,-0.013476620928566163
192.789,0.00398625098199723,0.00398625098199723
192.79,0.01025879500245841,0.01025879500245841
192.791,0.004137816127695482,0.004137816127695482
192.792,0.012238838092305637,-0.012238838092305637
192.793,0.034112019959770756,-0.034112019959770756
192.794,0.05560772821460169,-0.05560772821460169
192.795,0.07152606349004265,-0.07152606349004265
192.796,0.07882215087386402,-0.07882215087386402
192.797,0.07730744991232419,-0.07730744991232419
192.798,0.06938085423032869,-0.06938085423032869
192.799,0.058940270235830594,-0.058940270235830594
192.8,0.04990376334320279,-0.04990376334320279
192.801,0.04488536935892573,-0.04488536935892573
192.802,0.04448517025268006,-0.04448517025268006
192.803,0.04740194057733327,-0.04740194057733327
192.804,0.05125671729490122,-0.05125671729490122
192.805,0.053749084885053144,-0.053749084885053144
192.806,0.053655686210949405,-0.053655686210949405
192.807,0.05126381346855591,-0.05126381346855591
192.808,0.0480776598900815,-0.0480776598900815
192.809,0.04594374532847345,-0.04594374532847345
192.81,0.04599200006039872,-0.04599200006039872
192.811,0.04787835236537341,-0.04787835236537341
192.812,0.049703366783130476,-0.049703366783130476
192.813,0.04870819593988507,-0.04870819593988507
192.814,0.042518303226491305,-0.042518303226491305
192.815,0.030448544329493288,-0.030448544329493288
192.816,0.01430823860678021,-0.01430823860678021
192.817,0.001706825627533437,0.001706825627533437
192.818,0.012121209517700127,0.012121209517700127
192.819,0.01198167717497145,0.01198167717497145
192.82,0.0012538337856045079,-0.0012538337856045079
192.821,0.02644327673976732,-0.02644327673976732
192.822,0.05864211404355091,-0.05864211404355091
192.823,0.0902980501911802,-0.0902980501911802
192.824,0.1134502740270188,-0.1134502740270188
192.825,0.12223810897634335,-0.12223810897634335
192.826,0.11486526914887307,-0.11486526914887307
192.827,0.09430595506251827,-0.09430595506251827
192.828,0.06744297182406911,-0.06744297182406911
192.829,0.04286341923652004,-0.04286341923652004
192.83,0.02801827359892728,-0.02801827359892728
192.831,0.026704128705456243,-0.026704128705456243
192.832,0.037749410025281094,-0.037749410025281094
192.833,0.05539793153391026,-0.05539793153391026
192.834,0.07130631475086757,-0.07130631475086757
192.835,0.07750565752345218,-0.07750565752345218
192.836,0.06932150347547095,-0.06932150347547095
192.837,0.04723086361644946,-0.04723086361644946
192.838,0.016975442342608504,-0.016975442342608504
192.839,0.012163578671474218,0.012163578671474218
192.84,0.0303903568816839,0.0303903568816839
192.841,0.03071836132918282,0.03071836132918282
192.842,0.011466726843933017,0.011466726843933017
192.843,0.02293929403480921,-0.02293929403480921
192.844,0.06317197442646572,-0.06317197442646572
192.845,0.0978440072453397,-0.0978440072453397
192.846,0.1170694395053713,-0.1170694395053713
192.847,0.11557300838447415,-0.11557300838447415
192.848,0.0943241853718304,-0.0943241853718304
192.849,0.060163824121225784,-0.060163824121225784
192.85,0.023561192915734885,-0.023561192915734885
192.851,0.004740890019605093,0.004740890019605093
192.852,0.017075455051777988,0.017075455051777988
192.853,0.01109864620155876,0.01109864620155876
192.854,0.009771852323339547,-0.009771852323339547
192.855,0.037812114262684826,-0.037812114262684826
192.856,0.0637874874425084,-0.0637874874425084
192.857,0.0800980380499704,-0.0800980380499704
192.858,0.08319432692745965,-0.08319432692745965
192.859,0.07446629187065879,-0.07446629187065879
192.86,0.05935793221500896,-0.05935793221500896
192.861,0.04508333784078722,-0.04508333784078722
192.862,0.037798823551465466,-0.037798823551465466
192.863,0.0402581832146609,-0.0402581832146609
192.864,0.0507888014000184,-0.0507888014000184
192.865,0.06394683888120278,-0.06394683888120278
192.866,0.07261042285149433,-0.07261042285149433
192.867,0.07076000589270359,-0.07076000589270359
192.868,0.055950232035515635,-0.055950232035515635
192.869,0.030579657521700443,-0.030579657521700443
192.87,0.0014754441344537739,-0.0014754441344537739
192.871,0.02211324641684298,0.02211324641684298
192.872,0.031474207144462696,0.031474207144462696
192.873,0.02137440755990405,0.02137440755990405
192.874,0.00799008866875317,-0.00799008866875317
192.875,0.05069622058165035,-0.05069622058165035
192.876,0.09657756748057,-0.09657756748057
192.877,0.1340506731310236,-0.1340506731310236
192.878,0.15342288998524634,-0.15342288998524634
192.879,0.14967623747628878,-0.14967623747628878
192.88,0.1238940133289893,-0.1238940133289893
192.881,0.0829222937201739,-0.0829222937201739
192.882,0.03739627156965686,-0.03739627156965686
192.883,0.001258054666082753,0.001258054666082753
192.884,0.023956685002189504,0.023956685002189504
192.885,0.02633036619106277,0.02633036619106277
192.886,0.009699982878359936,0.009699982878359936
192.887,0.019555148725412086,-0.019555148725412086
192.888,0.05198344464647664,-0.05198344464647664
192.889,0.07778721857759163,-0.07778721857759163
192.89,0.08950823744303593,-0.08950823744303593
192.891,0.08395232540998043,-0.08395232540998043
192.892,0.06288350317955471,-0.06288350317955471
192.893,0.03237457149780576,-0.03237457149780576
192.894,0.0010585119930388576,-0.0010585119930388576
192.895,0.02220951902847723,0.02220951902847723
192.896,0.030654882203288825,0.030654882203288825
192.897,0.021275153119732382,0.021275153119732382
192.898,0.004469822078667862,-0.004469822078667862
192.899,0.04109556356012933,-0.04109556356012933
192.9,0.08050776476027721,-0.08050776476027721
192.901,0.11401787852003631,-0.11401787852003631
192.902,0.1344540252915839,-0.1344540252915839
192.903,0.13785267414785118,-0.13785267414785118
192.904,0.12432584234135147,-0.12432584234135147
192.905,0.09790133934250855,-0.09790133934250855
192.906,0.06538568969451919,-0.06538568969451919
192.907,0.03454424554331892,-0.03454424554331892
192.908,0.012071728154418482,-0.012071728154418482
192.909,0.001890553975537279,-0.001890553975537279
192.91,0.004239245669933944,-0.004239245669933944
192.911,0.015808648888027688,-0.015808648888027688
192.912,0.030896180110312477,-0.030896180110312477
192.913,0.043253565143825834,-0.043253565143825834
192.914,0.04808754504278079,-0.04808754504278079
192.915,0.04360698853824585,-0.04360698853824585
192.916,0.03162553598805673,-0.03162553598805673
192.917,0.017003720085142615,-0.017003720085142615
192.918,0.006072798249042499,-0.006072798249042499
192.919,0.0045150122267498816,-0.0045150122267498816
192.92,0.015371938525145068,-0.015371938525145068
192.921,0.037840678746032586,-0.037840678746032586
192.922,0.06728784887522266,-0.06728784887522266
192.923,0.09652721309870083,-0.09652721309870083
192.924,0.11798828472178025,-0.11798828472178025
192.925,0.12608947512045776,-0.12608947512045776
192.926,0.11903229419145578,-0.11903229419145578
192.927,0.09939690746264052,-0.09939690746264052
192.928,0.07330115481978738,-0.07330115481978738
192.929,0.04836474338857588,-0.04836474338857588
192.93,0.03113765696848947,-0.03113765696848947
192.931,0.024860395716936323,-0.024860395716936323
192.932,0.02834221905399059,-0.02834221905399059
192.933,0.03638752126816025,-0.03638752126816025
192.934,0.04168103113398569,-0.04168103113398569
192.935,0.03753228102758421,-0.03753228102758421
192.936,0.020555307468939077,-0.020555307468939077
192.937,0.007659807556045672,0.007659807556045672
192.938,0.0405226360038089,0.0405226360038089
192.939,0.06816886931517785,0.06816886931517785
192.94,0.08044946322857238,0.08044946322857238
192.941,0.07024679985218629,0.07024679985218629
192.942,0.03603538652794014,0.03603538652794014
192.943,0.01718324757308065,-0.01718324757308065
192.944,0.07893344108408318,-0.07893344108408318
192.945,0.13602830786763087,-0.13602830786763087
192.946,0.17620611160960975,-0.17620611160960975
192.947,0.19151376944008724,-0.19151376944008724
192.948,0.18038944718394356,-0.18038944718394356
192.949,0.147818010601932,-0.147818010601932
192.95,0.10355764506542109,-0.10355764506542109
192.951,0.059053916769856496,-0.059053916769856496
192.952,0.02406246251379396,-0.02406246251379396
192.953,0.004060416683657975,-0.004060416683657975
192.954,0.0007745416133631,0.0007745416133631
192.955,0.005208750092728587,-0.005208750092728587
192.956,0.015317262793412945,-0.015317262793412945
192.957,0.02326216481969634,-0.02326216481969634
192.958,0.02547714271953283,-0.02547714271953283
192.959,0.02220886049328097,-0.02220886049328097
192.96,0.017053174999286158,-0.017053174999286158
192.961,0.015182948683073016,-0.015182948683073016
192.962,0.02098171054792808,-0.02098171054792808
192.963,0.035997607837038204,-0.035997607837038204
192.964,0.057997499035370326,-0.057997499035370326
192.965,0.08148531978105777,-0.08148531978105777
192.966,0.0995053819109426,-0.0995053819109426
192.967,0.10607737558900743,-0.10607737558900743
192.968,0.09837592080842616,-0.09837592080842616
192.969,0.07785630836465363,-0.07785630836465363
192.97,0.04990578835425563,-0.04990578835425563
192.971,0.022129024456408186,-0.022129024456408186
192.972,0.0018660734098796539,-0.0018660734098796539
192.973,0.006184475501118447,0.006184475501118447
192.974,0.0014036092318940874,0.0014036092318940874
192.975,0.012744914075570324,-0.012744914075570324
192.976,0.03012850872318029,-0.03012850872318029
192.977,0.04425338363184095,-0.04425338363184095
192.978,0.0506262346816716,-0.0506262346816716
192.979,0.04831674437413158,-0.04831674437413158
192.98,0.040160888970828035,-0.040160888970828035
192.981,0.031539785925503105,-0.031539785925503105
192.982,0.028187540392701438,-0.028187540392701438
192.983,0.03383815734292561,-0.03383815734292561
192.984,0.04858763660629051,-0.04858763660629051
192.985,0.06859777135106881,-0.06859777135106881
192.986,0.0872901216424461,-0.0872901216424461
192.987,0.09764080217972193,-0.09764080217972193
192.988,0.09477972531435619,-0.09477972531435619
192.989,0.07796720303940186,-0.07796720303940186
192.99,0.05121543369604031,-0.05121543369604031
192.991,0.022277860970004726,-0.022277860970004726
192.992,0.00028995712190205136,-0.00028995712190205136
192.993,0.007182269154267118,0.007182269154267118
192.994,0.0032917735650727087,-0.0032917735650727087
192.995,0.02969716504361397,-0.02969716504361397
192.996,0.0649872945994614,-0.0649872945994614
192.997,0.09912669585379763,-0.09912669585379763
192.998,0.12213221661171969,-0.12213221661171969
192.999,0.1271511691498688,-0.1271511691498688
193.0,0.11259795325728106,-0.11259795325728106
193.001,0.08267068536287425,-0.08267068536287425
193.002,0.04608592885386653,-0.04608592885386653
193.003,0.013432825909376667,-0.013432825909376667
193.004,0.00602404065726958,0.00602404065726958
193.005,0.007104928388022236,0.007104928388022236
193.006,0.009795337364861156,-0.009795337364861156
193.007,0.03891174156047228,-0.03891174156047228
193.008,0.0709022688169767,-0.0709022688169767
193.009,0.09564659654101348,-0.09564659654101348
193.01,0.10518634909368163,-0.10518634909368163
193.011,0.0959376815217462,-0.0959376815217462
193.012,0.06956507263952627,-0.06956507263952627
193.013,0.032333400947758495,-0.032333400947758495
193.014,0.006787030184453036,0.006787030184453036
193.015,0.0386418912720603,0.0386418912720603
193.016,0.05628294680134682,0.05628294680134682
193.017,0.05656716120369376,0.05656716120369376
193.018,0.04059016978857022,0.04059016978857022
193.019,0.012950352084591055,0.012950352084591055
193.02,0.019822842558691267,-0.019822842558691267
193.021,0.05113730850532805,-0.05113730850532805
193.022,0.07594046865936976,-0.07594046865936976
193.023,0.09163898301243723,-0.09163898301243723
193.024,0.09817520088497333,-0.09817520088497333
193.025,0.0973745627358995,-0.0973745627358995
193.026,0.09188622205948482,-0.09188622205948482
193.027,0.08412296904604644,-0.08412296904604644
193.028,0.07555267450191039,-0.07555267450191039
193.029,0.0665323444861583,-0.0665323444861583
193.03,0.05666831298394748,-0.05666831298394748
193.031,0.04550204208071573,-0.04550204208071573
193.032,0.033217475648403605,-0.033217475648403605
193.033,0.021070863476359114,-0.021070863476359114
193.034,0.011350145687092361,-0.011350145687092361
193.035,0.006840396236520552,-0.006840396236520552
193.036,0.009948861975407564,-0.009948861975407564
193.037,0.02177168424540299,-0.02177168424540299
193.038,0.04142408988490154,-0.04142408988490154
193.039,0.0658932122299537,-0.0658932122299537
193.04,0.0905245714806312,-0.0905245714806312
193.041,0.11006187031832504,-0.11006187031832504
193.042,0.11998117807521769,-0.11998117807521769
193.043,0.11774910430787555,-0.11774910430787555
193.044,0.1036273956004552,-0.1036273956004552
193.045,0.08075223521118935,-0.08075223521118935
193.046,0.05441148139840035,-0.05441148139840035
193.047,0.030675367604613313,-0.030675367604613313
193.048,0.01473917806521019,-0.01473917806521019
193.049,0.009447061481980823,-0.009447061481980823
193.05,0.014444053128586432,-0.014444053128586432
193.051,0.026244906223708453,-0.026244906223708453
193.052,0.039250989264126845,-0.039250989264126845
193.053,0.04746113094029958,-0.04746113094029958
193.054,0.0463941845968886,-0.0463941845968886
193.055,0.034644754007799095,-0.034644754007799095
193.056,0.01456847616193957,-0.01456847616193957
193.057,0.00817136121533113,0.00817136121533113
193.058,0.026130151515953992,0.026130151515953992
193.059,0.03228030355499922,0.03228030355499922
193.06,0.022248501506818563,0.022248501506818563
193.061,0.004091415809177823,-0.004091415809177823
193.062,0.04219521581754038,-0.04219521581754038
193.063,0.08379135554157735,-0.08379135554157735
193.064,0.11898151338948415,-0.11898151338948415
193.065,0.13892964265757646,-0.13892964265757646
193.066,0.1383697970221217,-0.1383697970221217
193.067,0.11718966433097144,-0.11718966433097144
193.068,0.08060019378965255,-0.08060019378965255
193.069,0.03780999553709008,-0.03780999553709008
193.07,0.0004359418606814103,0.0004359418606814103
193.071,0.024755156351251584,0.024755156351251584
193.072,0.02963492007572377,0.02963492007572377
193.073,0.014835559321058067,0.014835559321058067
193.074,0.014692979553575403,-0.014692979553575403
193.075,0.05032485678892462,-0.05032485678892462
193.076,0.08223206152584905,-0.08223206152584905
193.077,0.10208493918220063,-0.10208493918220063
193.078,0.10521008188924041,-0.10521008188924041
193.079,0.09162948703682816,-0.09162948703682816
193.08,0.06575913851389292,-0.06575913851389292
193.081,0.03494434255294521,-0.03494434255294521
193.082,0.007329020073483794,-0.007329020073483794
193.083,0.010295527499286417,0.010295527499286417
193.084,0.014072382608947942,0.014072382608947942
193.085,0.003726191523537592,0.003726191523537592
193.086,0.017780576945303883,-0.017780576945303883
193.087,0.045350551686895724,-0.045350551686895724
193.088,0.07320197624569558,-0.07320197624569558
193.089,0.0962263684107384,-0.0962263684107384
193.09,0.1109227166867357,-0.1109227166867357
193.091,0.11576881473783351,-0.11576881473783351
193.092,0.11108542680701061,-0.11108542680701061
193.093,0.09858038400208469,-0.09858038400208469
193.094,0.0807933906410433,-0.0807933906410433
193.095,0.060606604738378866,-0.060606604738378866
193.096,0.04088339027405408,-0.04088339027405408
193.097,0.024203547089987176,-0.024203547089987176
193.098,0.01262174077896172,-0.01262174077896172
193.099,0.0074009569975797,-0.0074009569975797
193.1,0.008744532166974683,-0.008744532166974683
193.101,0.015624974327903662,-0.015624974327903662
193.102,0.025838932713784124,-0.025838932713784124
193.103,0.03637820551831794,-0.03637820551831794
193.104,0.04410268639531156,-0.04410268639531156
193.105,0.046571365029854594,-0.046571365029854594
193.106,0.04278814035200773,-0.04278814035200773
193.107,0.03360025398635791,-0.03360025398635791
193.108,0.021569717518610032,-0.021569717518610032
193.109,0.01030259116547394,-0.01030259116547394
193.11,0.0034115730447217274,-0.0034115730447217274
193.111,0.003432015756723472,-0.003432015756723472
193.112,0.011049946672959998,-0.011049946672959998
193.113,0.02490969400758114,-0.02490969400758114
193.114,0.042074047441230555,-0.042074047441230555
193.115,0.05897932044039489,-0.05897932044039489
193.116,0.07254704787979094,-0.07254704787979094
193.117,0.08105454300239734,-0.08105454300239734
193.118,0.08445601155448423,-0.08445601155448423
193.119,0.0840556576143553,-0.0840556576143553
193.12,0.08168719292369309,-0.08168719292369309
193.121,0.07875274343582161,-0.07875274343582161
193.122,0.07553734166697268,-0.07553734166697268
193.123,0.07111138928830318,-0.07111138928830318
193.124,0.0638956007447582,-0.0638956007447582
193.125,0.05267918148420281,-0.05267918148420281
193.126,0.037664345189756254,-0.037664345189756254
193.127,0.021051922109929566,-0.021051922109929566
193.128,0.0068202929930863965,-0.0068202929930863965
193.129,0.0003550649821570939,0.0003550649821570939
193.13,0.003255125690316052,-0.003255125690316052
193.131,0.01879483769937984,-0.01879483769937984
193.132,0.04383316096004963,-0.04383316096004963
193.133,0.07250680988826474,-0.07250680988826474
193.134,0.09691240310322202,-0.09691240310322202
193.135,0.10941779478697422,-0.10941779478697422
193.136,0.10518916279950896,-0.10518916279950896
193.137,0.08407755293762986,-0.08407755293762986
193.138,0.051149087640843915,-0.051149087640843915
193.139,0.015549545395651898,-0.015549545395651898
193.14,0.012058841512159413,0.012058841512159413
193.141,0.02274643341524696,0.02274643341524696
193.142,0.012227469396682178,0.012227469396682178
193.143,0.017538443566240125,-0.017538443566240125
193.144,0.05864229582414415,-0.05864229582414415
193.145,0.09940608863660871,-0.09940608863660871
193.146,0.12781421169251306,-0.12781421169251306
193.147,0.13513263089587135,-0.13513263089587135
193.148,0.11856564411167603,-0.11856564411167603
193.149,0.08209381448104347,-0.08209381448104347
193.15,0.03522014241673954,-0.03522014241673954
193.151,0.009967751322049967,0.009967751322049967
193.152,0.04246242508080922,0.04246242508080922
193.153,0.05554027627567204,0.05554027627567204
193.154,0.04848244332787233,0.04848244332787233
193.155,0.02629926058895471,0.02629926058895471
193.156,0.002379528044209933,-0.002379528044209933
193.157,0.02847402041518543,-0.02847402041518543
193.158,0.045568010980765905,-0.045568010980765905
193.159,0.051899465275888956,-0.051899465275888956
193.16,0.050573593317901566,-0.050573593317901566
193.161,0.04797856804819001,-0.04797856804819001
193.162,0.051015696145633505,-0.051015696145633505
193.163,0.06416541862532987,-0.06416541862532987
193.164,0.08745730823319886,-0.08745730823319886
193.165,0.11608353912269898,-0.11608353912269898
193.166,0.14180974660637058,-0.14180974660637058
193.167,0.15570200527591394,-0.15570200527591394
193.168,0.15122622606238367,-0.15122622606238367
193.169,0.1266460847521137,-0.1266460847521137
193.17,0.08588910545347228,-0.08588910545347228
193.171,0.03757824854383718,-0.03757824854383718
193.172,0.0074488208904592845,0.0074488208904592845
193.173,0.039306267312942955,0.039306267312942955
193.174,0.05187335487824374,0.05187335487824374
193.175,0.0443606292916654,0.0443606292916654
193.176,0.021178226276417744,0.021178226276417744
193.177,0.009765405920455716,-0.009765405920455716
193.178,0.039694897982603616,-0.039694897982603616
193.179,0.06161980272493672,-0.06161980272493672
193.18,0.07215033214544364,-0.07215033214544364
193.181,0.07196243353617338,-0.07196243353617338
193.182,0.06489404023229883,-0.06489404023229883
193.183,0.05612237708651635,-0.05612237708651635
193.184,0.05014838746068051,-0.05014838746068051
193.185,0.04931246063935546,-0.04931246063935546
193.186,0.053304595870147575,-0.053304595870147575
193.187,0.05972435192473424,-0.05972435192473424
193.188,0.06535167266287689,-0.06535167266287689
193.189,0.06755540104158864,-0.06755540104158864
193.19,0.06527032320103676,-0.06527032320103676
193.191,0.059199331073334305,-0.059199331073334305
193.192,0.05124332625070016,-0.05124332625070016
193.193,0.04348374621346174,-0.04348374621346174
193.194,0.037211896170268655,-0.037211896170268655
193.195,0.03245176707814901,-0.03245176707814901
193.196,0.028184206790498822,-0.028184206790498822
193.197,0.023153586140405857,-0.023153586140405857
193.198,0.01686260916011173,-0.01686260916011173
193.199,0.010255253716745072,-0.010255253716745072
193.2,0.005701697994939026,-0.005701697994939026
193.201,0.006191961792138323,-0.006191961792138323
193.202,0.014000487625137725,-0.014000487625137725
193.203,0.029354746916812835,-0.029354746916812835
193.204,0.04970753035922104,-0.04970753035922104
193.205,0.07003216228221754,-0.07003216228221754
193.206,0.0841873174895621,-0.0841873174895621
193.207,0.08696880363980408,-0.08696880363980408
193.208,0.07614626644388744,-0.07614626644388744
193.209,0.053707669499228006,-0.053707669499228006
193.21,0.02575184059474378,-0.02575184059474378
193.211,0.0009182660760441719,-0.0009182660760441719
193.212,0.012229301740495302,0.012229301740495302
193.213,0.00803472383761572,0.00803472383761572
193.214,0.014174228358131757,-0.014174228358131757
193.215,0.04953486308786459,-0.04953486308786459
193.216,0.08890450777719061,-0.08890450777719061
193.217,0.12158694769086908,-0.12158694769086908
193.218,0.13866934244443652,-0.13866934244443652
193.219,0.13586225614666325,-0.13586225614666325
193.22,0.1148678929494994,-0.1148678929494994
193.221,0.08277962462678767,-0.08277962462678767
193.222,0.04968204093406159,-0.04968204093406159
193.223,0.02524609878334838,-0.02524609878334838
193.224,0.015477604139428558,-0.015477604139428558
193.225,0.020745100473861466,-0.020745100473861466
193.226,0.03578746369303443,-0.03578746369303443
193.227,0.051722823935899664,-0.051722823935899664
193.228,0.05938118237485135,-0.05938118237485135
193.229,0.05280712783260966,-0.05280712783260966
193.23,0.031696341904427494,-0.031696341904427494
193.231,0.00187552556133197,-0.00187552556133197
193.232,0.026403319362509503,0.026403319362509503
193.233,0.04183093028958407,0.04183093028958407
193.234,0.03596270240258548,0.03596270240258548
193.235,0.006371326796194454,0.006371326796194454
193.236,0.04206002737553893,-0.04206002737553893
193.237,0.09818924357239389,-0.09818924357239389
193.238,0.14772301622829465,-0.14772301622829465
193.239,0.17741058117791808,-0.17741058117791808
193.24,0.17899248444526583,-0.17899248444526583
193.241,0.15165329427630225,-0.15165329427630225
193.242,0.10221743628118529,-0.10221743628118529
193.243,0.04306025443808714,-0.04306025443808714
193.244,0.01156477224939767,0.01156477224939767
193.245,0.04959784629239872,0.04959784629239872
193.246,0.06437356038191622,0.06437356038191622
193.247,0.056009986942205714,0.056009986942205714
193.248,0.030667403825570316,0.030667403825570316
193.249,0.001944742914454678,-0.001944742914454678
193.25,0.03189519535525631,-0.03189519535525631
193.251,0.05206649198448898,-0.05206649198448898
193.252,0.0599477339911314,-0.0599477339911314
193.253,0.05771349919997315,-0.05771349919997315
193.254,0.05072492950485652,-0.05072492950485652
193.255,0.045110379015211644,-0.045110379015211644
193.256,0.04534605361339761,-0.04534605361339761
193.257,0.0526866897971946,-0.0526866897971946
193.258,0.06493625768339162,-0.06493625768339162
193.259,0.07754066238966661,-0.07754066238966661
193.26,0.085514148232957,-0.085514148232957
193.261,0.08544132352702904,-0.08544132352702904
193.262,0.07681143168996607,-0.07681143168996607
193.263,0.06222040121989325,-0.06222040121989325
193.264,0.04640698663323961,-0.04640698663323961
193.265,0.034511696326087304,-0.034511696326087304
193.266,0.030211860020629144,-0.030211860020629144
193.267,0.03440689297945265,-0.03440689297945265
193.268,0.04490876171895797,-0.04490876171895797
193.269,0.05722243725113929,-0.05722243725113929
193.27,0.06611713162352983,-0.06611713162352983
193.271,0.06742651083192974,-0.06742651083192974
193.272,0.05946023217911167,-0.05946023217911167
193.273,0.04356831845649267,-0.04356831845649267
193.274,0.023706725137804696,-0.023706725137804696
193.275,0.005192317326348728,-0.005192317326348728
193.276,0.006910310665332764,0.006910310665332764
193.277,0.009239809209833583,0.009239809209833583
193.278,0.0009917328995328045,0.0009917328995328045
193.279,0.016029829130167705,-0.016029829130167705
193.28,0.03809273268422886,-0.03809273268422886
193.281,0.06065849181400429,-0.06065849181400429
193.282,0.07955648240732416,-0.07955648240732416
193.283,0.09186575974513123,-0.09186575974513123
193.284,0.09631131455570707,-0.09631131455570707
193.285,0.09317246220967901,-0.09317246220967901
193.286,0.08385682775755143,-0.08385682775755143
193.287,0.07036277069213215,-0.07036277069213215
193.288,0.05482491220399888,-0.05482491220399888
193.289,0.0392405191169396,-0.0392405191169396
193.29,0.02536172526280689,-0.02536172526280689
193.291,0.01466247738974269,-0.01466247738974269
193.292,0.008279615767446402,-0.008279615767446402
193.293,0.0068807727254311946,-0.0068807727254311946
193.294,0.010494110670800638,-0.010494110670800638
193.295,0.018399658859378443,-0.018399658859378443
193.296,0.02919158710764458,-0.02919158710764458
193.297,0.04106444119412822,-0.04106444119412822
193.298,0.05227595038007449,-0.05227595038007449
193.299,0.06163997649635211,-0.06163997649635211
193.3,0.06885490120393845,-0.06885490120393845
193.301,0.07450616563514556,-0.07450616563514556
193.302,0.07969377563460711,-0.07969377563460711
193.303,0.08538780734496243,-0.08538780734496243
193.304,0.09174675032623825,-0.09174675032623825
193.305,0.09768622961420848,-0.09768622961420848
193.306,0.10092722010278998,-0.10092722010278998
193.307,0.09859350953304546,-0.09859350953304546
193.308,0.08821985729687964,-0.08821985729687964
193.309,0.0688515277255578,-0.0688515277255578
193.31,0.04183550396727598,-0.04183550396727598
193.311,0.01096434589494022,-0.01096434589494022
193.312,0.018174163743597704,0.018174163743597704
193.313,0.03952418918386358,0.03952418918386358
193.314,0.048202400266450285,0.048202400266450285
193.315,0.0419501603956538,0.0419501603956538
193.316,0.021920774045883995,0.021920774045883995
193.317,0.00748576245538668,-0.00748576245538668
193.318,0.039732870100242956,-0.039732870100242956
193.319,0.06789044039975878,-0.06789044039975878
193.32,0.08648886096106678,-0.08648886096106678
193.321,0.09291948444709497,-0.09291948444709497
193.322,0.08795894543512928,-0.08795894543512928
193.323,0.07527518502814812,-0.07527518502814812
193.324,0.06009856067491015,-0.06009856067491015
193.325,0.04750327955161715,-0.04750327955161715
193.326,0.04085618064563512,-0.04085618064563512
193.327,0.040917049661759464,-0.040917049661759464
193.328,0.045845656675655655,-0.045845656675655655
193.329,0.05206609924118244,-0.05206609924118244
193.33,0.05566255007542065,-0.05566255007542065
193.331,0.05382285288446431,-0.05382285288446431
193.332,0.04585462886591396,-0.04585462886591396
193.333,0.033461666637784604,-0.033461666637784604
193.334,0.020223776898548262,-0.020223776898548262
193.335,0.010480948604353335,-0.010480948604353335
193.336,0.00799758706384801,-0.00799758706384801
193.337,0.014823929606959552,-0.014823929606959552
193.338,0.030677707227013573,-0.030677707227013573
193.339,0.05298391489333121,-0.05298391489333121
193.34,0.07750472426378319,-0.07750472426378319
193.341,0.09933460095651436,-0.09933460095651436
193.342,0.11397126200044427,-0.11397126200044427
193.343,0.11820624314659633,-0.11820624314659633
193.344,0.11067889300782119,-0.11067889300782119
193.345,0.09205480950354072,-0.09205480950354072
193.346,0.06487772747251663,-0.06487772747251663
193.347,0.03317860937155015,-0.03317860937155015
193.348,0.0019130581692349269,-0.0019130581692349269
193.349,0.023732425089829645,0.023732425089829645
193.35,0.039137484216063,0.039137484216063
193.351,0.04109260918514979,0.04109260918514979
193.352,0.02857196346140345,0.02857196346140345
193.353,0.0032467141287493284,0.0032467141287493284
193.354,0.03047479400594988,-0.03047479400594988
193.355,0.06603903941581646,-0.06603903941581646
193.356,0.09598570208555335,-0.09598570208555335
193.357,0.11364242465446783,-0.11364242465446783
193.358,0.11488818264110201,-0.11488818264110201
193.359,0.09948542048752773,-0.09948542048752773
193.36,0.07151695081064346,-0.07151695081064346
193.361,0.03866436063629097,-0.03866436063629097
193.362,0.010388174111315207,-0.010388174111315207
193.363,0.0045776083424398095,0.0045776083424398095
193.364,0.0007402228652477749,0.0007402228652477749
193.365,0.02237857561237233,-0.02237857561237233
193.366,0.059800347436580026,-0.059800347436580026
193.367,0.10220326093933407,-0.10220326093933407
193.368,0.13834930837426795,-0.13834930837426795
193.369,0.15816378244956453,-0.15816378244956453
193.37,0.15557205946886288,-0.15557205946886288
193.371,0.13023916911148892,-0.13023916911148892
193.372,0.08767154255733856,-0.08767154255733856
193.373,0.0376359888456288,-0.0376359888456288
193.374,0.00862767351835414,0.00862767351835414
193.375,0.041546558304908165,0.041546558304908165
193.376,0.05574642978874644,0.05574642978874644
193.377,0.05121643499633466,0.05121643499633466
193.378,0.032795176189307274,0.032795176189307274
193.379,0.008211609264072273,0.008211609264072273
193.38,0.014623757256752024,-0.014623757256752024
193.381,0.030157207353123106,-0.030157207353123106
193.382,0.03672629715631359,-0.03672629715631359
193.383,0.03662338234759199,-0.03662338234759199
193.384,0.03473960497827422,-0.03473960497827422
193.385,0.03633204928790945,-0.03633204928790945
193.386,0.04475141393358806,-0.04475141393358806
193.387,0.0599647592853183,-0.0599647592853183
193.388,0.07841071637319363,-0.07841071637319363
193.389,0.09423887436483758,-0.09423887436483758
193.39,0.10148271229504491,-0.10148271229504491
193.391,0.0963740529642928,-0.0963740529642928
193.392,0.07894774272437266,-0.07894774272437266
193.393,0.05333006599491508,-0.05333006599491508
193.394,0.026568066789005695,-0.026568066789005695
193.395,0.006376676121093494,-0.006376676121093494
193.396,0.001427085254902316,0.001427085254902316
193.397,0.005091789800374169,-0.005091789800374169
193.398,0.023290157400462252,-0.023290157400462252
193.399,0.046805893556907674,-0.046805893556907674
193.4,0.06770150433047673,-0.06770150433047673
193.401,0.0791708054039042,-0.0791708054039042
193.402,0.07788211303069836,-0.07788211303069836
193.403,0.06514476615316256,-0.06514476615316256
193.404,0.04648097055690337,-0.04648097055690337
193.405,0.02972762977351584,-0.02972762977351584
193.406,0.0222974781328088,-0.0222974781328088
193.407,0.028522610946517868,-0.028522610946517868
193.408,0.0479856028847071,-0.0479856028847071
193.409,0.07541936688610873,-0.07541936688610873
193.41,0.10223627102276933,-0.10223627102276933
193.411,0.11920537676313758,-0.11920537676313758
193.412,0.11941545433794598,-0.11941545433794598
193.413,0.10056654535890697,-0.10056654535890697
193.414,0.06585281006799881,-0.06585281006799881
193.415,0.02315732034161566,-0.02315732034161566
193.416,0.017179231177567145,0.017179231177567145
193.417,0.04530806653060737,0.04530806653060737
193.418,0.05462457033352597,0.05462457033352597
193.419,0.04349825530493945,0.04349825530493945
193.42,0.01550420046012202,0.01550420046012202
193.421,0.02183656755454788,-0.02183656755454788
193.422,0.05934383195468451,-0.05934383195468451
193.423,0.08874455703182382,-0.08874455703182382
193.424,0.10474179608889711,-0.10474179608889711
193.425,0.10602659453381813,-0.10602659453381813
193.426,0.09504996889946149,-0.09504996889946149
193.427,0.07677298775737262,-0.07677298775737262
193.428,0.05690505155144632,-0.05690505155144632
193.429,0.04023707722535297,-0.04023707722535297
193.43,0.029563802745168566,-0.029563802745168566
193.431,0.0254266339643745,-0.0254266339643745
193.432,0.02660087469860606,-0.02660087469860606
193.433,0.03101056615636355,-0.03101056615636355
193.434,0.036658448500263674,-0.036658448500263674
193.435,0.04222646898001725,-0.04222646898001725
193.436,0.04719090603882614,-0.04719090603882614
193.437,0.051521256623249356,-0.051521256623249356
193.438,0.05520209899994555,-0.05520209899994555
193.439,0.057868627938097106,-0.057868627938097106
193.44,0.05876654791535185,-0.05876654791535185
193.441,0.05707579641823146,-0.05707579641823146
193.442,0.05245080993775375,-0.05245080993775375
193.443,0.04550792753023836,-0.04550792753023836
193.444,0.03798599216914167,-0.03798599216914167
193.445,0.03242430852710998,-0.03242430852710998
193.446,0.03139812387459484,-0.03139812387459484
193.447,0.03654854865209145,-0.03654854865209145
193.448,0.04776149224203341,-0.04776149224203341
193.449,0.06283715509533894,-0.06283715509533894
193.45,0.07784489295927144,-0.07784489295927144
193.451,0.08812568635959261,-0.08812568635959261
193.452,0.08966790520314105,-0.08966790520314105
193.453,0.08042792002280386,-0.08042792002280386
193.454,0.06115465126036612,-0.06115465126036612
193.455,0.035416545539017186,-0.035416545539017186
193.456,0.008777361883015034,-0.008777361883015034
193.457,0.0126586567027005,0.0126586567027005
193.458,0.02390364949734458,0.02390364949734458
193.459,0.022445271542407275,0.022445271542407275
193.46,0.00889830107914169,0.00889830107914169
193.461,0.013239912833030942,-0.013239912833030942
193.462,0.038640005336827876,-0.038640005336827876
193.463,0.06166208909780613,-0.06166208909780613
193.464,0.07788036839006296,-0.07788036839006296
193.465,0.08516159094323117,-0.08516159094323117
193.466,0.08400607447748265,-0.08400607447748265
193.467,0.07710069659272689,-0.07710069659272689
193.468,0.06827550366134594,-0.06827550366134594
193.469,0.06122239717148703,-0.06122239717148703
193.47,0.05837789383362968,-0.05837789383362968
193.471,0.06028773285202571,-0.06028773285202571
193.472,0.06559644316452706,-0.06559644316452706
193.473,0.07160346411727847,-0.07160346411727847
193.474,0.07516550686994705,-0.07516550686994705
193.475,0.07364939173753371,-0.07364939173753371
193.476,0.0656639193597669,-0.0656639193597669
193.477,0.05140219159104498,-0.05140219159104498
193.478,0.032562533704617036,-0.032562533704617036
193.479,0.011937023786056544,-0.011937023786056544
193.48,0.007175010246733615,0.007175010246733615
193.481,0.02156730374702165,0.02156730374702165
193.482,0.028626502675937582,0.028626502675937582
193.483,0.026684518058505136,0.026684518058505136
193.484,0.015231082452279665,0.015231082452279665
193.485,0.004984776416119718,-0.004984776416119718
193.486,0.03194994513995986,-0.03194994513995986
193.487,0.062497500581160104,-0.062497500581160104
193.488,0.09257538463381643,-0.09257538463381643
193.489,0.11771116038189822,-0.11771116038189822
193.49,0.13366632114603183,-0.13366632114603183
193.491,0.13720245642757867,-0.13720245642757867
193.492,0.1268108272462466,-0.1268108272462466
193.493,0.10321881192461968,-0.10321881192461968
193.494,0.06950476966155383,-0.06950476966155383
193.495,0.030731174380248416,-0.030731174380248416
193.496,0.006874454444929956,0.006874454444929956
193.497,0.03703644659139993,0.03703644659139993
193.498,0.054602228824817356,0.054602228824817356
193.499,0.05650185034251387,0.05650185034251387
193.5,0.04228259929472511,0.04228259929472511
193.501,0.014117496423357911,0.014117496423357911
193.502,0.023678591451141928,-0.023678591451141928
193.503,0.06547633118701335,-0.06547633118701335
193.504,0.10529269428489996,-0.10529269428489996
193.505,0.13768124398817327,-0.13768124398817327
193.506,0.15841068153796156,-0.15841068153796156
193.507,0.1648792259346774,-0.1648792259346774
193.508,0.1562907665535892,-0.1562907665535892
193.509,0.13365824859245334,-0.13365824859245334
193.51,0.09969146403057871,-0.09969146403057871
193.511,0.05858376814747934,-0.05858376814747934
193.512,0.015664710450144392,-0.015664710450144392
193.513,0.02313452750988043,0.02313452750988043
193.514,0.052028283934292485,0.052028283934292485
193.515,0.06628785384504088,0.06628785384504088
193.516,0.06317451620455161,0.06317451620455161
193.517,0.04267649729210632,0.04267649729210632
193.518,0.007815988803365093,0.007815988803365093
193.519,0.03564340750588335,-0.03564340750588335
193.52,0.08012065389801803,-0.08012065389801803
193.521,0.11762961701251162,-0.11762961701251162
193.522,0.1413799232209697,-0.1413799232209697
193.523,0.1471830280606039,-0.1471830280606039
193.524,0.13430513892113116,-0.13430513892113116
193.525,0.10554258703693742,-0.10554258703693742
193.526,0.06650190183689886,-0.06650190183689886
193.527,0.024283615121599267,-0.024283615121599267
193.528,0.01407254835022087,0.01407254835022087
193.529,0.042973488155123585,0.042973488155123585
193.53,0.05915563195409623,0.05915563195409623
193.531,0.06190200751574926,0.06190200751574926
193.532,0.052640139073690806,0.052640139073690806
193.533,0.03414485557910707,0.03414485557910707
193.534,0.00965760755005629,0.00965760755005629
193.535,0.017793004250069244,-0.017793004250069244
193.536,0.04570890135474748,-0.04570890135474748
193.537,0.07208714493469781,-0.07208714493469781
193.538,0.0951876122087606,-0.0951876122087606
193.539,0.1133282663488242,-0.1133282663488242
193.54,0.12489687059600696,-0.12489687059600696
193.541,0.12864467797768875,-0.12864467797768875
193.542,0.12416877940074411,-0.12416877940074411
193.543,0.11236334300201589,-0.11236334300201589
193.544,0.09558321664213909,-0.09558321664213909
193.545,0.07733973839002051,-0.07733973839002051
193.546,0.061516723820471686,-0.061516723820471686
193.547,0.05129416396141584,-0.05129416396141584
193.548,0.048120181636971404,-0.048120181636971404
193.549,0.05111179209085259,-0.05111179209085259
193.55,0.05716355678432816,-0.05716355678432816
193.551,0.06182355644553428,-0.06182355644553428
193.552,0.060728220018752554,-0.060728220018752554
193.553,0.05116542180749306,-0.05116542180749306
193.554,0.03324389359287272,-0.03324389359287272
193.555,0.010230679121583375,-0.010230679121583375
193.556,0.012138091277027696,0.012138091277027696
193.557,0.027237391515272824,0.027237391515272824
193.558,0.029579736796365497,0.029579736796365497
193.559,0.016663016231339256,0.016663016231339256
193.56,0.009967483798578036,-0.009967483798578036
193.561,0.04483010359271877,-0.04483010359271877
193.562,0.07982005688197258,-0.07982005688197258
193.563,0.10637156913339052,-0.10637156913339052
193.564,0.1178345671740404,-0.1178345671740404
193.565,0.11134775734847802,-0.11134775734847802
193.566,0.08863540394542502,-0.08863540394542502
193.567,0.05548609592310916,-0.05548609592310916
193.568,0.020081966911783544,-0.020081966911783544
193.569,0.00929759177973044,0.00929759177973044
193.57,0.026489117874568313,0.026489117874568313
193.571,0.028912543510955624,0.028912543510955624
193.572,0.01788918842921916,0.01788918842921916
193.573,0.002210657432542784,-0.002210657432542784
193.574,0.025634567954780252,-0.025634567954780252
193.575,0.04712841539326085,-0.04712841539326085
193.576,0.06339629720296625,-0.06339629720296625
193.577,0.07368972293525655,-0.07368972293525655
193.578,0.07940741260184081,-0.07940741260184081
193.579,0.08294661152362548,-0.08294661152362548
193.58,0.0863066443755155,-0.0863066443755155
193.581,0.09001481963513913,-0.09001481963513913
193.582,0.09280192694543721,-0.09280192694543721
193.583,0.0921539652121075,-0.0921539652121075
193.584,0.0855196859727132,-0.0855196859727132
193.585,0.07168827812457734,-0.07168827812457734
193.586,0.05176723824782403,-0.05176723824782403
193.587,0.029321355688781914,-0.029321355688781914
193.588,0.009535982817353017,-0.009535982817353017
193.589,0.002365724787352308,0.002365724787352308
193.59,0.002923977019757773,0.002923977019757773
193.591,0.008183655481776686,-0.008183655481776686
193.592,0.027729359626506245,-0.027729359626506245
193.593,0.04970720424690267,-0.04970720424690267
193.594,0.06710851192968548,-0.06710851192968548
193.595,0.07415722451300677,-0.07415722451300677
193.596,0.068273120783372,-0.068273120783372
193.597,0.05108642797262575,-0.05108642797262575
193.598,0.02811680764890845,-0.02811680764890845
193.599,0.0071612868370636296,-0.0071612868370636296
193.6,0.004133023605700448,0.004133023605700448
193.601,0.0007501210584304197,0.0007501210584304197
193.602,0.017961711682630388,-0.017961711682630388
193.603,0.0478840799840794,-0.0478840799840794
193.604,0.08121291797181718,-0.08121291797181718
193.605,0.1087204772152287,-0.1087204772152287
193.606,0.12250253576516079,-0.12250253576516079
193.607,0.11835916615501962,-0.11835916615501962
193.608,0.09707037668797747,-0.09707037668797747
193.609,0.06417604726455461,-0.06417604726455461
193.61,0.028339211835570866,-0.028339211835570866
193.611,0.0011891058359416729,0.0011891058359416729
193.612,0.01721669970637718,0.01721669970637718
193.613,0.016566304377765517,0.016566304377765517
193.614,0.000775333935460365,0.000775333935460365
193.615,0.02461988701717499,-0.02461988701717499
193.616,0.051932638113058704,-0.051932638113058704
193.617,0.07368882407415545,-0.07368882407415545
193.618,0.0847596206130522,-0.0847596206130522
193.619,0.08363221611718796,-0.08363221611718796
193.62,0.07249291325506257,-0.07249291325506257
193.621,0.05618757512538364,-0.05618757512538364
193.622,0.040470326262147194,-0.040470326262147194
193.623,0.0301441066323076,-0.0301441066323076
193.624,0.02768347502023638,-0.02768347502023638
193.625,0.03272852726968356,-0.03272852726968356
193.626,0.04252711971974077,-0.04252711971974077
193.627,0.0530903065406807,-0.0530903065406807
193.628,0.06061570766733748,-0.06061570766733748
193.629,0.06268743839847646,-0.06268743839847646
193.63,0.05888228821857866,-0.05888228821857866
193.631,0.05064669946541056,-0.05064669946541056
193.632,0.040569590514113685,-0.040569590514113685
193.633,0.031371302294746384,-0.031371302294746384
193.634,0.02499651745659026,-0.02499651745659026
193.635,0.022124663260259192,-0.022124663260259192
193.636,0.02223100431309677,-0.02223100431309677
193.637,0.024116128308119045,-0.024116128308119045
193.638,0.026649883942945873,-0.026649883942945873
193.639,0.029407401336969063,-0.029407401336969063
193.64,0.032929546784179475,-0.032929546784179475
193.641,0.03849346900439943,-0.03849346900439943
193.642,0.047472280712993475,-0.047472280712993475
193.643,0.0605257449885066,-0.0605257449885066
193.644,0.07693830904235,-0.07693830904235
193.645,0.09438148636742427,-0.09438148636742427
193.646,0.10923889815966226,-0.10923889815966226
193.647,0.11744236938011643,-0.11744236938011643
193.648,0.11559077701537201,-0.11559077701537201
193.649,0.10201859936778457,-0.10201859936778457
193.65,0.07748217789871614,-0.07748217789871614
193.651,0.04523744881591574,-0.04523744881591574
193.652,0.010458921508354813,-0.010458921508354813
193.653,0.020859426494635347,0.020859426494635347
193.654,0.04323302942122709,0.04323302942122709
193.655,0.052895477403679614,0.052895477403679614
193.656,0.04857686410854911,0.04857686410854911
193.657,0.031666989825705594,0.031666989825705594
193.658,0.005750419578953503,0.005750419578953503
193.659,0.024332406838458942,-0.024332406838458942
193.66,0.053627756848821706,-0.053627756848821706
193.661,0.07810913119896878,-0.07810913119896878
193.662,0.09536023592029796,-0.09536023592029796
193.663,0.10476200642964306,-0.10476200642964306
193.664,0.10719303762416843,-0.10719303762416843
193.665,0.10438849380111748,-0.10438849380111748
193.666,0.09818894377986431,-0.09818894377986431
193.667,0.08992531491718603,-0.08992531491718603
193.668,0.08012741930515332,-0.08012741930515332
193.669,0.06862982337238832,-0.06862982337238832
193.67,0.05501402554564416,-0.05501402554564416
193.671,0.039210063781623505,-0.039210063781623505
193.672,0.02201937948266819,-0.02201937948266819
193.673,0.005335063654343664,-0.005335063654343664
193.674,0.00807474248277229,0.00807474248277229
193.675,0.015212523364148023,0.015212523364148023
193.676,0.013764951331287412,0.013764951331287412
193.677,0.0030066244009743226,0.0030066244009743226
193.678,0.015621600667654723,-0.015621600667654723
193.679,0.03851302315285332,-0.03851302315285332
193.68,0.060573313712709465,-0.060573313712709465
193.681,0.0764679236929049,-0.0764679236929049
193.682,0.08212983165249799,-0.08212983165249799
193.683,0.07609194926619267,-0.07609194926619267
193.684,0.06020554938538081,-0.06020554938538081
193.685,0.039443368395235656,-0.039443368395235656
193.686,0.02073631664731379,-0.02073631664731379
193.687,0.0110887664080499,-0.0110887664080499
193.688,0.015469346942239337,-0.015469346942239337
193.689,0.03509659085019812,-0.03509659085019812
193.69,0.06667908006978696,-0.06667908006978696
193.691,0.10292896138354857,-0.10292896138354857
193.692,0.13430545542153016,-0.13430545542153016
193.693,0.1515654848146878,-0.1515654848146878
193.694,0.14842050226139292,-0.14842050226139292
193.695,0.12351763170557395,-0.12351763170557395
193.696,0.08111884269906044,-0.08111884269906044
193.697,0.030210396612222246,-0.030210396612222246
193.698,0.01776464924788712,0.01776464924788712
193.699,0.05193503458490123,0.05193503458490123
193.7,0.06492454229175282,0.06492454229175282
193.701,0.054811523046515154,0.054811523046515154
193.702,0.025540009837056177,0.025540009837056177
193.703,0.01434106783729916,-0.01434106783729916
193.704,0.05422641802291783,-0.05422641802291783
193.705,0.08451259074366346,-0.08451259074366346
193.706,0.09923496523777597,-0.09923496523777597
193.707,0.09749284643699219,-0.09749284643699219
193.708,0.0832627365187868,-0.0832627365187868
193.709,0.06371625071468423,-0.06371625071468423
193.71,0.04663383329798798,-0.04663383329798798
193.711,0.037783419568014676,-0.037783419568014676
193.712,0.03912366996290373,-0.03912366996290373
193.713,0.04839872514372345,-0.04839872514372345
193.714,0.06021442045485792,-0.06021442045485792
193.715,0.0681851823693258,-0.0681851823693258
193.716,0.06738487786432523,-0.06738487786432523
193.717,0.05624294335875257,-0.05624294335875257
193.718,0.0372285532572163,-0.0372285532572163
193.719,0.016089788953792872,-0.016089788953792872
193.72,8.470295986184873e-05,8.470295986184873e-05
193.721,0.005309193102354115,0.005309193102354115
193.722,0.003193789486969023,-0.003193789486969023
193.723,0.023949400697978906,-0.023949400697978906
193.724,0.051603265702206635,-0.051603265702206635
193.725,0.07858037792270955,-0.07858037792270955
193.726,0.09746320116392526,-0.09746320116392526
193.727,0.10328589512215913,-0.10328589512215913
193.728,0.0949844055496396,-0.0949844055496396
193.729,0.07554502966272403,-0.07554502966272403
193.73,0.05084767686106251,-0.05084767686106251
193.731,0.02764398893880038,-0.02764398893880038
193.732,0.011390234051059656,-0.011390234051059656
193.733,0.004676202620492953,-0.004676202620492953
193.734,0.006752799617494087,-0.006752799617494087
193.735,0.014253299080168369,-0.014253299080168369
193.736,0.022775441213576886,-0.022775441213576886
193.737,0.028697185294952243,-0.028697185294952243
193.738,0.030540656042112757,-0.030540656042112757
193.739,0.029392223269980366,-0.029392223269980366
193.74,0.02825576334019142,-0.02825576334019142
193.741,0.030622180985345193,-0.030622180985345193
193.742,0.03883093532155302,-0.03883093532155302
193.743,0.05287190499122385,-0.05287190499122385
193.744,0.07010404563495698,-0.07010404563495698
193.745,0.08601715523345754,-0.08601715523345754
193.746,0.0957664604736842,-0.0957664604736842
193.747,0.09591495752213364,-0.09591495752213364
193.748,0.08573527859292018,-0.08573527859292018
193.749,0.0675820063853868,-0.0675820063853868
193.75,0.04618718115168885,-0.04618718115168885
193.751,0.02712856078406456,-0.02712856078406456
193.752,0.015023879560043696,-0.015023879560043696
193.753,0.012101601676083318,-0.012101601676083318
193.754,0.017653394911800846,-0.017653394911800846
193.755,0.028540580188399,-0.028540580188399
193.756,0.040531611492442665,-0.040531611492442665
193.757,0.04993946635761215,-0.04993946635761215
193.758,0.054923626313237106,-0.054923626313237106
193.759,0.05596131852755093,-0.05596131852755093
193.76,0.05532441574125446,-0.05532441574125446
193.761,0.05579554470869186,-0.05579554470869186
193.762,0.05916636419839427,-0.05916636419839427
193.763,0.0651604948387342,-0.0651604948387342
193.764,0.07126927548688544,-0.07126927548688544
193.765,0.07363319231390208,-0.07363319231390208
193.766,0.06867738137878565,-0.06867738137878565
193.767,0.05487905240429414,-0.05487905240429414
193.768,0.033941114961768326,-0.033941114961768326
193.769,0.010821383666759998,-0.010821383666759998
193.77,0.007531724159337783,0.007531724159337783
193.771,0.01439849950115879,0.01439849950115879
193.772,0.005729548992235767,0.005729548992235767
193.773,0.018070707975469502,-0.018070707975469502
193.774,0.051731156640029474,-0.051731156640029474
193.775,0.0863445182521978,-0.0863445182521978
193.776,0.11194766495959163,-0.11194766495959163
193.777,0.12066240477500079,-0.12066240477500079
193.778,0.10936291604265436,-0.10936291604265436
193.779,0.08094067115417525,-0.08094067115417525
193.78,0.04366939923243107,-0.04366939923243107
193.781,0.008793394682560018,-0.008793394682560018
193.782,0.012936078756858427,0.012936078756858427
193.783,0.014676700358155825,0.014676700358155825
193.784,0.004250733005486618,-0.004250733005486618
193.785,0.03802563720385621,-0.03802563720385621
193.786,0.07604830048374622,-0.07604830048374622
193.787,0.10618840626581605,-0.10618840626581605
193.788,0.118533268800455,-0.118533268800455
193.789,0.10844644675270398,-0.10844644675270398
193.79,0.07797644539597348,-0.07797644539597348
193.791,0.03519544913695705,-0.03519544913695705
193.792,0.008283497526412997,0.008283497526412997
193.793,0.040789142126337774,0.040789142126337774
193.794,0.05396195886399391,0.05396195886399391
193.795,0.04497856758943053,0.04497856758943053
193.796,0.017009340862083056,0.017009340862083056
193.797,0.02211807680800426,-0.02211807680800426
193.798,0.06250544741449171,-0.06250544741449171
193.799,0.09511792323233537,-0.09511792323233537
193.8,0.11412436550566296,-0.11412436550566296
193.801,0.11797971065431923,-0.11797971065431923
193.802,0.10906241992197008,-0.10906241992197008
193.803,0.09218054338941006,-0.09218054338941006
193.804,0.07260805380234503,-0.07260805380234503
193.805,0.0543972937982824,-0.0543972937982824
193.806,0.039522797209360694,-0.039522797209360694
193.807,0.028035390555536277,-0.028035390555536277
193.808,0.01899521581373087,-0.01899521581373087
193.809,0.011664415515975413,-0.011664415515975413
193.81,0.006377456018850425,-0.006377456018850425
193.811,0.004682518231632682,-0.004682518231632682
193.812,0.008682702062969838,-0.008682702062969838
193.813,0.01986356001465228,-0.01986356001465228
193.814,0.03793086998880879,-0.03793086998880879
193.815,0.060205780816388055,-0.060205780816388055
193.816,0.08192367482190122,-0.08192367482190122
193.817,0.09743512736371152,-0.09743512736371152
193.818,0.10194576344177231,-0.10194576344177231
193.819,0.09319595225432564,-0.09319595225432564
193.82,0.07246364186157384,-0.07246364186157384
193.821,0.044485261098225704,-0.044485261098225704
193.822,0.016256151860548962,-0.016256151860548962
193.823,0.004938456651832457,0.004938456651832457
193.824,0.013638878804571375,0.013638878804571375
193.825,0.00779274885730219,0.00779274885730219
193.826,0.010699536525074382,-0.010699536525074382
193.827,0.03663145478948848,-0.03663145478948848
193.828,0.06309245168509381,-0.06309245168509381
193.829,0.08348840854646622,-0.08348840854646622
193.83,0.0933355320627004,-0.0933355320627004
193.831,0.09129630556845603,-0.09129630556845603
193.832,0.07921029533046997,-0.07921029533046997
193.833,0.06121824637887874,-0.06121824637887874
193.834,0.04235997014726811,-0.04235997014726811
193.835,0.027150502773253593,-0.027150502773253593
193.836,0.01857423888568477,-0.01857423888568477
193.837,0.017724430464604257,-0.017724430464604257
193.838,0.024049161746003134,-0.024049161746003134
193.839,0.03595192499023325,-0.03595192499023325
193.84,0.05141374733704229,-0.05141374733704229
193.841,0.0683746491477959,-0.0683746491477959
193.842,0.08479139295323934,-0.08479139295323934
193.843,0.09848870015848732,-0.09848870015848732
193.844,0.10704886013019232,-0.10704886013019232
193.845,0.10797973841691033,-0.10797973841691033
193.846,0.0992623738828281,-0.0992623738828281
193.847,0.08016573181011721,-0.08016573181011721
193.848,0.05202348528918288,-0.05202348528918288
193.849,0.018588794262457742,-0.018588794262457742
193.85,0.014331711759920651,0.014331711759920651
193.851,0.04003006990379432,0.04003006990379432
