Czas,AbsSum,Sum
251.171,0.05868014672475175,0.05868014672475175
251.172,0.14674464084619276,0.14674464084619276
251.173,0.21879426516937728,0.21879426516937728
251.174,0.26010907767920943,0.26010907767920943
251.175,0.26372458263383813,0.26372458263383813
251.176,0.23184956191309314,0.23184956191309314
251.177,0.17483655911084517,0.17483655911084517
251.178,0.10807599697447778,0.10807599697447778
251.179,0.04774737476834301,0.04774737476834301
251.18,0.006637211976532553,0.006637211976532553
251.181,0.008845530523006295,-0.008845530523006295
251.182,0.0002786969184358501,0.0002786969184358501
251.183,0.026594088241755465,0.026594088241755465
251.184,0.058971971131364986,0.058971971131364986
251.185,0.0860352934271178,0.0860352934271178
251.186,0.09938375712154146,0.09938375712154146
251.187,0.09570235221710544,0.09570235221710544
251.188,0.07725572618124055,0.07725572618124055
251.189,0.050759922622466425,0.050759922622466425
251.19,0.02507488346356257,0.02507488346356257
251.191,0.008452993546044674,0.008452993546044674
251.192,0.006144815545335192,0.006144815545335192
251.193,0.01900618210357563,0.01900618210357563
251.194,0.04343428591576659,0.04343428591576659
251.195,0.07258278503632476,0.07258278503632476
251.196,0.09846971422104311,0.09846971422104311
251.197,0.11437666202530306,0.11437666202530306
251.198,0.11688378322854498,0.11688378322854498
251.199,0.1069915684243885,0.1069915684243885
251.2,0.09001172832374404,0.09001172832374404
251.201,0.07421005209176612,0.07421005209176612
251.202,0.0684899772312042,0.0684899772312042
251.203,0.07965570787477172,0.07965570787477172
251.204,0.10993647561650133,0.10993647561650133
251.205,0.15545272707827218,0.15545272707827218
251.206,0.20614611319257148,0.20614611319257148
251.207,0.24739236938835552,0.24739236938835552
251.208,0.26311770378402133,0.26311770378402133
251.209,0.23982626661370077,0.23982626661370077
251.21,0.1706213532302847,0.1706213532302847
251.211,0.0581678176816649,0.0581678176816649
251.212,0.08433180983059585,-0.08433180983059585
251.213,0.234679466906072,-0.234679466906072
251.214,0.36567441478001694,-0.36567441478001694
251.215,0.4508244804945527,-0.4508244804945527
251.216,0.4704945393262471,-0.4704945393262471
251.217,0.41695248667210405,-0.41695248667210405
251.218,0.296916012234668,-0.296916012234668
251.219,0.1307527499314226,-0.1307527499314226
251.22,0.05167605650108675,0.05167605650108675
251.221,0.21763025886275988,0.21763025886275988
251.222,0.33894767823975536,0.33894767823975536
251.223,0.39842382673898946,0.39842382673898946
251.224,0.39342311509461747,0.39342311509461747
251.225,0.33575129021938843,0.33575129021938843
251.226,0.24784225966749718,0.24784225966749718
251.227,0.1563449785576525,0.1563449785576525
251.228,0.08492893202956187,0.08492893202956187
251.229,0.04833231842148478,0.04833231842148478
251.23,0.049284140850482716,0.049284140850482716
251.231,0.07905327198699541,0.07905327198699541
251.232,0.12128107319316106,0.12128107319316106
251.233,0.15777828295893204,0.15777828295893204
251.234,0.17441531569980184,0.17441531569980184
251.235,0.16527791193517793,0.16527791193517793
251.236,0.13387728762837825,0.13387728762837825
251.237,0.09119062705311132,0.09119062705311132
251.238,0.05134021291406854,0.05134021291406854
251.239,0.02646119598961527,0.02646119598961527
251.24,0.02252075303922818,0.02252075303922818
251.241,0.03747400861534245,0.03747400861534245
251.242,0.0623102810106535,0.0623102810106535
251.243,0.0845431660099254,0.0845431660099254
251.244,0.09286941930993131,0.09286941930993131
251.245,0.08134278779088944,0.08134278779088944
251.246,0.051602756681126793,0.051602756681126793
251.247,0.012391388451298946,0.012391388451298946
251.248,0.02345904227172002,-0.02345904227172002
251.249,0.04350772447713336,-0.04350772447713336
251.25,0.04009260323454911,-0.04009260323454911
251.251,0.013099461223071596,-0.013099461223071596
251.252,0.029845635940724202,0.029845635940724202
251.253,0.07582698149764733,0.07582698149764733
251.254,0.11089076967820177,0.11089076967820177
251.255,0.12464316823014276,0.12464316823014276
251.256,0.11363304658286166,0.11363304658286166
251.257,0.08238694632698196,0.08238694632698196
251.258,0.041777046972415244,0.041777046972415244
251.259,0.005315642931611686,0.005315642931611686
251.26,0.015333408135247861,-0.015333408135247861
251.261,0.014091950201411518,-0.014091950201411518
251.262,0.007793723011892517,0.007793723011892517
251.263,0.042548539177923894,0.042548539177923894
251.264,0.0788511459989818,0.0788511459989818
251.265,0.10590825797601044,0.10590825797601044
251.266,0.11717143950405773,0.11717143950405773
251.267,0.11240242349413809,0.11240242349413809
251.268,0.09739690941909052,0.09739690941909052
251.269,0.08151254363405336,0.08151254363405336
251.27,0.07392044014600208,0.07392044014600208
251.271,0.07994259909331913,0.07994259909331913
251.272,0.09879958576738779,0.09879958576738779
251.273,0.12359212757423399,0.12359212757423399
251.274,0.14355502457978275,0.14355502457978275
251.275,0.14782609352757725,0.14782609352757725
251.276,0.1294409560597256,0.1294409560597256
251.277,0.08817629556500983,0.08817629556500983
251.278,0.03124539417127159,0.03124539417127159
251.279,0.028434248407363527,-0.028434248407363527
251.28,0.07587633545825767,-0.07587633545825767
251.281,0.0984161564654562,-0.0984161564654562
251.282,0.08947042465068089,-0.08947042465068089
251.283,0.05049922033138643,-0.05049922033138643
251.284,0.009407308890717614,0.009407308890717614
251.285,0.0761372320367355,0.0761372320367355
251.286,0.13450672183987167,0.13450672183987167
251.287,0.17232352377144555,0.17232352377144555
251.288,0.18336617093910035,0.18336617093910035
251.289,0.16848460815506905,0.16848460815506905
251.29,0.13465295340081962,0.13465295340081962
251.291,0.0924369079076901,0.0924369079076901
251.292,0.05277407618275354,0.05277407618275354
251.293,0.024081185019702245,0.024081185019702245
251.294,0.010488548654853602,0.010488548654853602
251.295,0.011559089475000617,0.011559089475000617
251.296,0.023343976151044554,0.023343976151044554
251.297,0.040231887413636924,0.040231887413636924
251.298,0.056882567617195345,0.056882567617195345
251.299,0.06962645883832908,0.06962645883832908
251.3,0.07699796643350454,0.07699796643350454
251.301,0.07942643350752876,0.07942643350752876
251.302,0.07840071234427759,0.07840071234427759
251.303,0.07555292191416374,0.07555292191416374
251.304,0.0720470409637648,0.0720470409637648
251.305,0.06845460082330024,0.06845460082330024
251.306,0.06504927517726622,0.06504927517726622
251.307,0.06226070849663312,0.06226070849663312
251.308,0.06097001282703762,0.06097001282703762
251.309,0.06242121274662571,0.06242121274662571
251.31,0.0677193569567216,0.0677193569567216
251.311,0.07710095346397994,0.07710095346397994
251.312,0.0893040117357522,0.0893040117357522
251.313,0.10137179658916073,0.10137179658916073
251.314,0.10908859314544439,0.10908859314544439
251.315,0.10801560565033297,0.10801560565033297
251.316,0.09485616941834496,0.09485616941834496
251.317,0.068722413176179,0.068722413176179
251.318,0.03186250394028178,0.03186250394028178
251.319,0.0104504167634204,-0.0104504167634204
251.32,0.05091365195799269,-0.05091365195799269
251.321,0.08184048145754896,-0.08184048145754896
251.322,0.09700735338224786,-0.09700735338224786
251.323,0.0931777091421776,-0.0931777091421776
251.324,0.07086432665944542,-0.07086432665944542
251.325,0.034114866818493406,-0.034114866818493406
251.326,0.010606794288949395,0.010606794288949395
251.327,0.056107905151410176,0.056107905151410176
251.328,0.09622941343872804,0.09622941343872804
251.329,0.12718304797553648,0.12718304797553648
251.33,0.14810379180643274,0.14810379180643274
251.331,0.160702717398421,0.160702717398421
251.332,0.16817644344607374,0.16817644344607374
251.333,0.1737473143294881,0.1737473143294881
251.334,0.1793103853663327,0.1793103853663327
251.335,0.1846222171886951,0.1846222171886951
251.336,0.18729651044235807,0.18729651044235807
251.337,0.1836228608447168,0.1836228608447168
251.338,0.1699687634204543,0.1699687634204543
251.339,0.1443345471417834,0.1443345471417834
251.34,0.1075616747114847,0.1075616747114847
251.341,0.06377011816858502,0.06377011816858502
251.342,0.019804867294422435,0.019804867294422435
251.343,0.016246345960992947,-0.016246345960992947
251.344,0.0371178012507154,-0.0371178012507154
251.345,0.03846128277094063,-0.03846128277094063
251.346,0.020358977104245612,-0.020358977104245612
251.347,0.012247445199035312,0.012247445199035312
251.348,0.050444020196634076,0.050444020196634076
251.349,0.08341898370745526,0.08341898370745526
251.35,0.10123897361089185,0.10123897361089185
251.351,0.09759542381292197,0.09759542381292197
251.352,0.07173794144944146,0.07173794144944146
251.353,0.028987259376999308,0.028987259376999308
251.354,0.02040916619274702,-0.02040916619274702
251.355,0.06384649000669296,-0.06384649000669296
251.356,0.08969135873858614,-0.08969135873858614
251.357,0.09044421277177594,-0.09044421277177594
251.358,0.0648134522901126,-0.0648134522901126
251.359,0.018066317479802363,-0.018066317479802363
251.36,0.03948241337406877,0.03948241337406877
251.361,0.09542099484918087,0.09542099484918087
251.362,0.13875519420680238,0.13875519420680238
251.363,0.16291841207101454,0.16291841207101454
251.364,0.16734985313920459,0.16734985313920459
251.365,0.1571558128065924,0.1571558128065924
251.366,0.14098071423892455,0.14098071423892455
251.367,0.1277994314494897,0.1277994314494897
251.368,0.12370528157382266,0.12370528157382266
251.369,0.1297800116954284,0.1297800116954284
251.37,0.1417780083780753,0.1417780083780753
251.371,0.15174587260020478,0.15174587260020478
251.372,0.15103166787038003,0.15103166787038003
251.373,0.13364340310755862,0.13364340310755862
251.374,0.0987701464071069,0.0987701464071069
251.375,0.05154318499810051,0.05154318499810051
251.376,0.0017094916365798518,0.0017094916365798518
251.377,0.03938255694080839,-0.03938255694080839
251.378,0.06247630938248805,-0.06247630938248805
251.379,0.06349825388512587,-0.06349825388512587
251.38,0.04493995238420212,-0.04493995238420212
251.381,0.014993756249898516,-0.014993756249898516
251.382,0.015314065699421286,0.015314065699421286
251.383,0.03602920438887458,0.03602920438887458
251.384,0.04184891651867284,0.04184891651867284
251.385,0.034080601158733126,0.034080601158733126
251.386,0.02021901884274735,0.02021901884274735
251.387,0.011206833583042863,0.011206833583042863
251.388,0.017276138409696662,0.017276138409696662
251.389,0.0438141806120258,0.0438141806120258
251.39,0.08875071357269948,0.08875071357269948
251.391,0.14249007772922861,0.14249007772922861
251.392,0.19055639846928796,0.19055639846928796
251.393,0.21817228275301392,0.21817228275301392
251.394,0.21527929747605778,0.21527929747605778
251.395,0.18028912971802047,0.18028912971802047
251.396,0.12121993791172203,0.12121993791172203
251.397,0.053714040232185845,0.053714040232185845
251.398,0.0035264437725788245,-0.0035264437725788245
251.399,0.03446282688563718,-0.03446282688563718
251.4,0.030753411343151793,-0.030753411343151793
251.401,0.005561071983209986,0.005561071983209986
251.402,0.06262758629252163,0.06262758629252163
251.403,0.12244965263920005,0.12244965263920005
251.404,0.16647803629031577,0.16647803629031577
251.405,0.18131545509046587,0.18131545509046587
251.406,0.16269960787904925,0.16269960787904925
251.407,0.11651231743103097,0.11651231743103097
251.408,0.056557412579863575,0.056557412579863575
251.409,8.326293879246105e-05,-8.326293879246105e-05
251.41,0.038528967662634694,-0.038528967662634694
251.411,0.050598225147013176,-0.050598225147013176
251.412,0.03689623639312967,-0.03689623639312967
251.413,0.005918962151678198,-0.005918962151678198
251.414,0.02937463168587029,0.02937463168587029
251.415,0.05623526378846622,0.05623526378846622
251.416,0.06638968015598157,0.06638968015598157
251.417,0.05846796643540997,0.05846796643540997
251.418,0.037866336694578395,0.037866336694578395
251.419,0.0142523225044493,0.0142523225044493
251.42,0.002258953152392995,-0.002258953152392995
251.421,0.004805508001648695,-0.004805508001648695
251.422,0.007981840891315928,0.007981840891315928
251.423,0.03194525310548135,0.03194525310548135
251.424,0.059470204352837897,0.059470204352837897
251.425,0.08277688278357642,0.08277688278357642
251.426,0.09711403471087543,0.09711403471087543
251.427,0.10260226055836563,0.10260226055836563
251.428,0.10400800794337517,0.10400800794337517
251.429,0.1085293445837976,0.1085293445837976
251.43,0.12244197599814699,0.12244197599814699
251.431,0.14790531895814008,0.14790531895814008
251.432,0.18119757092685962,0.18119757092685962
251.433,0.2131461400808008,0.2131461400808008
251.434,0.23172746172807024,0.23172746172807024
251.435,0.22601437321095186,0.22601437321095186
251.436,0.19013642022769361,0.19013642022769361
251.437,0.12587272983108688,0.12587272983108688
251.438,0.0429350845564902,0.0429350845564902
251.439,0.04323404389058472,-0.04323404389058472
251.44,0.115496127657301,-0.115496127657301
251.441,0.1596292113044765,-0.1596292113044765
251.442,0.1680889089198483,-0.1680889089198483
251.443,0.1417898818619766,-0.1417898818619766
251.444,0.08944203301617848,-0.08944203301617848
251.445,0.024762194377357605,-0.024762194377357605
251.446,0.03747579873338247,0.03747579873338247
251.447,0.08529860007315015,0.08529860007315015
251.448,0.11217923049474998,0.11217923049474998
251.449,0.1178372577168223,0.1178372577168223
251.45,0.10720323369662643,0.10720323369662643
251.451,0.08812836361237353,0.08812836361237353
251.452,0.06873099142477668,0.06873099142477668
251.453,0.055242880919469606,0.055242880919469606
251.454,0.050900482798446944,0.050900482798446944
251.455,0.05596960918282479,0.05596960918282479
251.456,0.06858229223343626,0.06858229223343626
251.457,0.08585047232450438,0.08585047232450438
251.458,0.10475890663542042,0.10475890663542042
251.459,0.12257870936586635,0.12257870936586635
251.46,0.13685408316072767,0.13685408316072767
251.461,0.14524901552115588,0.14524901552115588
251.462,0.1455931656160423,0.1455931656160423
251.463,0.13631969135866728,0.13631969135866728
251.464,0.11721822070470522,0.11721822070470522
251.465,0.09016805170121645,0.09016805170121645
251.466,0.059403538511267895,0.059403538511267895
251.467,0.030968211306108495,0.030968211306108495
251.468,0.011313266768565589,0.011313266768565589
251.469,0.005375444156062503,0.005375444156062503
251.47,0.014767869518662602,0.014767869518662602
251.471,0.036793447680580904,0.036793447680580904
251.472,0.06478318027260022,0.06478318027260022
251.473,0.089823581094304,0.089823581094304
251.474,0.10342032539883017,0.10342032539883017
251.475,0.10024717508586112,0.10024717508586112
251.476,0.08001722522238364,0.08001722522238364
251.477,0.04775547658373136,0.04775547658373136
251.478,0.01228267458213983,0.01228267458213983
251.479,0.01664089342049979,-0.01664089342049979
251.48,0.031550815747742544,-0.031550815747742544
251.481,0.029747520260044347,-0.029747520260044347
251.482,0.014083788355253035,-0.014083788355253035
251.483,0.00826192813582316,0.00826192813582316
251.484,0.028625118546955486,0.028625118546955486
251.485,0.04028775994185296,0.04028775994185296
251.486,0.04121744091880575,0.04121744091880575
251.487,0.035029428120682216,0.035029428120682216
251.488,0.02970703999500124,0.02970703999500124
251.489,0.034440680561723225,0.034440680561723225
251.49,0.05568031387738359,0.05568031387738359
251.491,0.09386332000877906,0.09386332000877906
251.492,0.14212563153227808,0.14212563153227808
251.493,0.18765925801930683,0.18765925801930683
251.494,0.2154548049401721,0.2154548049401721
251.495,0.2132850611319892,0.2132850611319892
251.496,0.17626489248643362,0.17626489248643362
251.497,0.10936584020153917,0.10936584020153917
251.498,0.026879325710608137,0.026879325710608137
251.499,0.05118430190268575,-0.05118430190268575
251.5,0.10473631119680205,-0.10473631119680205
251.501,0.11954227358133107,-0.11954227358133107
251.502,0.09154821189821039,-0.09154821189821039
251.503,0.028185799821478175,-0.028185799821478175
251.504,0.053792886084470526,0.053792886084470526
251.505,0.13327707212056983,0.13327707212056983
251.506,0.19097812987916019,0.19097812987916019
251.507,0.21487340196607718,0.21487340196607718
251.508,0.20322716337034508,0.20322716337034508
251.509,0.1643247880165284,0.1643247880165284
251.51,0.1131452507991999,0.1131452507991999
251.511,0.06618203507882647,0.06618203507882647
251.512,0.036174621776615234,0.036174621776615234
251.513,0.028458593009355493,0.028458593009355493
251.514,0.04002053201440359,0.04002053201440359
251.515,0.06138631122761962,0.06138631122761962
251.516,0.08051758582404434,0.08051758582404434
251.517,0.08726703204625874,0.08726703204625874
251.518,0.07684664856679024,0.07684664856679024
251.519,0.05120170054873108,0.05120170054873108
251.52,0.017975036724086735,0.017975036724086735
251.521,0.012403606730742922,-0.012403606730742922
251.522,0.030362607405523767,-0.030362607405523767
251.523,0.03026360418096974,-0.03026360418096974
251.524,0.011911195990223833,-0.011911195990223833
251.525,0.01986055539270648,0.01986055539270648
251.526,0.05716982988174468,0.05716982988174468
251.527,0.09176124325072177,0.09176124325072177
251.528,0.11734758337106932,0.11734758337106932
251.529,0.13084515351250503,0.13084515351250503
251.53,0.132253945227099,0.132253945227099
251.531,0.12350728460649285,0.12350728460649285
251.532,0.10700335452712362,0.10700335452712362
251.533,0.08458354437938809,0.08458354437938809
251.534,0.057432159873571864,0.057432159873571864
251.535,0.026873249535372068,0.026873249535372068
251.536,0.004445826055624047,-0.004445826055624047
251.537,0.03175092526173018,-0.03175092526173018
251.538,0.04838766722336252,-0.04838766722336252
251.539,0.047360094901357175,-0.047360094901357175
251.54,0.023809036458643962,-0.023809036458643962
251.541,0.022439346290274997,0.022439346290274997
251.542,0.08533531808645534,0.08533531808645534
251.543,0.15294293665448921,0.15294293665448921
251.544,0.20991964274575947,0.20991964274575947
251.545,0.24162101328383123,0.24162101328383123
251.546,0.23863150587206383,0.23863150587206383
251.547,0.20021132936944652,0.20021132936944652
251.548,0.13535991590662344,0.13535991590662344
251.549,0.06089401864190669,0.06089401864190669
251.55,0.003091807907314559,-0.003091807907314559
251.551,0.039099640130848656,-0.039099640130848656
251.552,0.03762044788934771,-0.03762044788934771
251.553,0.0002807786722373029,-0.0002807786722373029
251.554,0.0603674089755899,0.0603674089755899
251.555,0.12447203793209871,0.12447203793209871
251.556,0.1708688435893364,0.1708688435893364
251.557,0.18358412246001365,0.18358412246001365
251.558,0.1567994007582556,0.1567994007582556
251.559,0.09669025423349309,0.09669025423349309
251.56,0.019541588129556642,0.019541588129556642
251.561,0.05326664290612637,-0.05326664290612637
251.562,0.10180880998979869,-0.10180880998979869
251.563,0.11362370826621948,-0.11362370826621948
251.564,0.08730658954624593,-0.08730658954624593
251.565,0.032604647322186264,-0.032604647322186264
251.566,0.032928053275675495,0.032928053275675495
251.567,0.08956855459446311,0.08956855459446311
251.568,0.12151482500634625,0.12151482500634625
251.569,0.12150659105906825,0.12150659105906825
251.57,0.09259716862630718,0.09259716862630718
251.571,0.04665953149585733,0.04665953149585733
251.572,0.0002649664812475194,0.0002649664812475194
251.573,0.030628449995485085,-0.030628449995485085
251.574,0.035446340137253785,-0.035446340137253785
251.575,0.011777498107732987,-0.011777498107732987
251.576,0.03455481740568178,0.03455481740568178
251.577,0.09192947505336546,0.09192947505336546
251.578,0.14688299561442886,0.14688299561442886
251.579,0.18818737943767716,0.18818737943767716
251.58,0.20973629896852808,0.20973629896852808
251.581,0.2114368032705587,0.2114368032705587
251.582,0.19804112852871247,0.19804112852871247
251.583,0.1765521846563869,0.1765521846563869
251.584,0.15326318567403807,0.15326318567403807
251.585,0.13152181535403384,0.13152181535403384
251.586,0.11096135696497367,0.11096135696497367
251.587,0.08836200471678701,0.08836200471678701
251.588,0.05971023649211027,0.05971023649211027
251.589,0.022617868882761405,0.022617868882761405
251.59,0.021828751874439445,-0.021828751874439445
251.591,0.06848512486376634,-0.06848512486376634
251.592,0.10906781803004528,-0.10906781803004528
251.593,0.13429869753994428,-0.13429869753994428
251.594,0.1365976569449603,-0.1365976569449603
251.595,0.11248543974935454,-0.11248543974935454
251.596,0.06396590374744193,-0.06396590374744193
251.597,0.001521488555065842,0.001521488555065842
251.598,0.07256945155088235,0.07256945155088235
251.599,0.13629733480012307,0.13629733480012307
251.6,0.18123290191247676,0.18123290191247676
251.601,0.19988266355873363,0.19988266355873363
251.602,0.1904070044648658,0.1904070044648658
251.603,0.15705024487428143,0.15705024487428143
251.604,0.109256449595998,0.109256449595998
251.605,0.05966571747486693,0.05966571747486693
251.606,0.02139190765764898,0.02139190765764898
251.607,0.0051128902450015,0.0051128902450015
251.608,0.016552769621151597,0.016552769621151597
251.609,0.05489802292165891,0.05489802292165891
251.61,0.11255934933487644,0.11255934933487644
251.611,0.1764650180659726,0.1764650180659726
251.612,0.23076374780916353,0.23076374780916353
251.613,0.2604701148986661,0.2604701148986661
251.614,0.2552805078602436,0.2552805078602436
251.615,0.2126187481688684,0.2126187481688684
251.616,0.13902262669358034,0.13902262669358034
251.617,0.04929347024980846,0.04929347024980846
251.618,0.03663721730024716,-0.03663721730024716
251.619,0.09853612051003569,-0.09853612051003569
251.62,0.12124480485168343,-0.12124480485168343
251.621,0.09915951579449911,-0.09915951579449911
251.622,0.03846165544298308,-0.03846165544298308
251.623,0.0437453207203371,0.0437453207203371
251.624,0.12341971538015262,0.12341971538015262
251.625,0.17580543584128372,0.17580543584128372
251.626,0.18228778532637668,0.18228778532637668
251.627,0.13596657735858741,0.13596657735858741
251.628,0.04427507348458093,0.04427507348458093
251.629,0.07226801447750941,-0.07226801447750941
251.63,0.18500997149674725,-0.18500997149674725
251.631,0.26457145182029096,-0.26457145182029096
251.632,0.28869960562079,-0.28869960562079
251.633,0.24836074973529532,-0.24836074973529532
251.634,0.15031698094994705,-0.15031698094994705
251.635,0.015411805887052599,-0.015411805887052599
251.636,0.12698221794425302,0.12698221794425302
251.637,0.24679054636495912,0.24679054636495912
251.638,0.3211173054301202,0.3211173054301202
251.639,0.33995336966936684,0.33995336966936684
251.64,0.30813593726788,0.30813593726788
251.641,0.24309248142016116,0.24309248142016116
251.642,0.16913419411972996,0.16913419411972996
251.643,0.11005011849483859,0.11005011849483859
251.644,0.08220281378506011,0.08220281378506011
251.645,0.09011635494700987,0.09011635494700987
251.646,0.12575597361227375,0.12575597361227375
251.647,0.17157695466770084,0.17157695466770084
251.648,0.20631177189172512,0.20631177189172512
251.649,0.21169728159004797,0.21169728159004797
251.65,0.1781329196755883,0.1781329196755883
251.651,0.1076471119347322,0.1076471119347322
251.652,0.013394325596084666,0.013394325596084666
251.653,0.08405850447196228,-0.08405850447196228
251.654,0.16248158803744994,-0.16248158803744994
251.655,0.204058554934185,-0.204058554934185
251.656,0.20006188942664072,-0.20006188942664072
251.657,0.1528765506450791,-0.1528765506450791
251.658,0.0749283707184587,-0.0749283707184587
251.659,0.015036435324770947,0.015036435324770947
251.66,0.09715922812056177,0.09715922812056177
251.661,0.15565342756169165,0.15565342756169165
251.662,0.18254615706763544,0.18254615706763544
251.663,0.17903767639939194,0.17903767639939194
251.664,0.1542508353020422,0.1542508353020422
251.665,0.12187605180531991,0.12187605180531991
251.666,0.0957703877787921,0.0957703877787921
251.667,0.08580221988764425,0.08580221988764425
251.668,0.09510061157022465,0.09510061157022465
251.669,0.11942565389627124,0.11942565389627124
251.67,0.1487567251149764,0.1487567251149764
251.671,0.17057340816708177,0.17057340816708177
251.672,0.1738452603992482,0.1738452603992482
251.673,0.15256923050538873,0.15256923050538873
251.674,0.10783780952769995,0.10783780952769995
251.675,0.04784259237234956,0.04784259237234956
251.676,0.014199630332234259,-0.014199630332234259
251.677,0.06362599238988487,-0.06362599238988487
251.678,0.08841101031739096,-0.08841101031739096
251.679,0.0826001922392594,-0.0826001922392594
251.68,0.0481076985949761,-0.0481076985949761
251.681,0.005659591763216065,0.005659591763216065
251.682,0.06428045507099256,0.06428045507099256
251.683,0.11222863906528868,0.11222863906528868
251.684,0.13712179113910694,0.13712179113910694
251.685,0.13310538516432002,0.13310538516432002
251.686,0.10240143287513548,0.10240143287513548
251.687,0.05457386209948134,0.05457386209948134
251.688,0.003724375854673667,0.003724375854673667
251.689,0.035560517417720705,-0.035560517417720705
251.69,0.05232296885425736,-0.05232296885425736
251.691,0.04220692241873181,-0.04220692241873181
251.692,0.008441484039571123,-0.008441484039571123
251.693,0.03940460632035814,0.03940460632035814
251.694,0.08845617185133037,0.08845617185133037
251.695,0.1263751024472981,0.1263751024472981
251.696,0.14481559341387662,0.14481559341387662
251.697,0.14145633298330718,0.14145633298330718
251.698,0.12006775558120242,0.12006775558120242
251.699,0.0887290272256076,0.0887290272256076
251.7,0.056908582945185415,0.056908582945185415
251.701,0.03246168295400942,0.03246168295400942
251.702,0.019565289413025377,0.019565289413025377
251.703,0.018220805016440078,0.018220805016440078
251.704,0.02535089422701242,0.02535089422701242
251.705,0.03691731889877192,0.03691731889877192
251.706,0.05011246404163461,0.05011246404163461
251.707,0.06466898157967238,0.06466898157967238
251.708,0.08269838236222227,0.08269838236222227
251.709,0.10707972158652934,0.10707972158652934
251.71,0.13904708682783284,0.13904708682783284
251.711,0.17602695481652897,0.17602695481652897
251.712,0.21078455203004998,0.21078455203004998
251.713,0.2325225887353306,0.2325225887353306
251.714,0.2298642257074608,0.2298642257074608
251.715,0.19489192915426634,0.19489192915426634
251.716,0.12688697570058394,0.12688697570058394
251.717,0.034336690336809195,0.034336690336809195
251.718,0.06578458471641846,-0.06578458471641846
251.719,0.15161371803521362,-0.15161371803521362
251.72,0.20205208445104472,-0.20205208445104472
251.721,0.2028690356740408,-0.2028690356740408
251.722,0.15135123550787255,-0.15135123550787255
251.723,0.057911085231056925,-0.057911085231056925
251.724,0.05606659261955116,0.05606659261955116
251.725,0.16370499719019183,0.16370499719019183
251.726,0.23993251159773799,0.23993251159773799
251.727,0.26844846941678413,0.26844846941678413
251.728,0.24623600488606523,0.24623600488606523
251.729,0.18420506072897846,0.18420506072897846
251.73,0.10372180365338579,0.10372180365338579
251.731,0.030054263539860182,0.030054263539860182
251.732,0.015270061361729037,-0.015270061361729037
251.733,0.020854262382906108,-0.020854262382906108
251.734,0.011379090537903203,0.011379090537903203
251.735,0.0671444789318627,0.0671444789318627
251.736,0.12454353976028476,0.12454353976028476
251.737,0.16108386312963097,0.16108386312963097
251.738,0.16076337225994242,0.16076337225994242
251.739,0.11904176173768977,0.11904176173768977
251.74,0.04422647098241539,0.04422647098241539
251.741,0.045051915431631895,-0.045051915431631895
251.742,0.12538704036311388,-0.12538704036311388
251.743,0.17538682202388045,-0.17538682202388045
251.744,0.18162467334980148,-0.18162467334980148
251.745,0.14203006298212306,-0.14203006298212306
251.746,0.06587191082938126,-0.06587191082938126
251.747,0.029425458480360156,0.029425458480360156
251.748,0.12345409010538289,0.12345409010538289
251.749,0.1982981946827147,0.1982981946827147
251.75,0.24269274303404398,0.24269274303404398
251.751,0.2538096296726311,0.2538096296726311
251.752,0.2364617901595829,0.2364617901595829
251.753,0.20034113072505222,0.20034113072505222
251.754,0.15644172422799274,0.15644172422799274
251.755,0.11391512081495958,0.11391512081495958
251.756,0.07827180409535273,0.07827180409535273
251.757,0.051240154362623525,0.051240154362623525
251.758,0.0319605138123924,0.0319605138123924
251.759,0.01875618765580578,0.01875618765580578
251.76,0.010623984392294616,0.010623984392294616
251.761,0.007828654702999316,0.007828654702999316
251.762,0.01144622554377217,0.01144622554377217
251.763,0.022185173029546146,0.022185173029546146
251.764,0.039129677284369446,0.039129677284369446
251.765,0.059079249489196295,0.059079249489196295
251.766,0.07690287761420644,0.07690287761420644
251.767,0.08689363713915821,0.08689363713915821
251.768,0.08467670520387727,0.08467670520387727
251.769,0.0689615758175457,0.0689615758175457
251.77,0.042441017836541084,0.042441017836541084
251.771,0.011421913764498193,0.011421913764498193
251.772,0.015779183037452182,-0.015779183037452182
251.773,0.031196988647537283,-0.031196988647537283
251.774,0.029576573027175757,-0.029576573027175757
251.775,0.009960457800808675,-0.009960457800808675
251.776,0.024008290730718418,0.024008290730718418
251.777,0.06514678503107318,0.06514678503107318
251.778,0.10478668826435467,0.10478668826435467
251.779,0.13514264814337595,0.13514264814337595
251.78,0.15124922001241048,0.15124922001241048
251.781,0.15191023600302267,0.15191023600302267
251.782,0.1394700219837357,0.1394700219837357
251.783,0.118618641061498,0.118618641061498
251.784,0.09473894252659698,0.09473894252659698
251.785,0.07239425277344158,0.07239425277344158
251.786,0.05442525209284943,0.05442525209284943
251.787,0.041838760838772915,0.041838760838772915
251.788,0.03434940100354633,0.03434940100354633
251.789,0.031202944208705397,0.031202944208705397
251.79,0.03185102392537931,0.03185102392537931
251.791,0.03617196641128806,0.03617196641128806
251.792,0.04417944460892498,0.04417944460892498
251.793,0.055420755060277216,0.055420755060277216
251.794,0.06842900337632818,0.06842900337632818
251.795,0.08058965815526586,0.08058965815526586
251.796,0.0886119494385913,0.0886119494385913
251.797,0.08952790577001468,0.08952790577001468
251.798,0.08188591044004889,0.08188591044004889
251.799,0.06666876542856426,0.06666876542856426
251.8,0.04751106935453442,0.04751106935453442
251.801,0.03001016568270365,0.03001016568270365
251.802,0.020243693216362324,0.020243693216362324
251.803,0.022908962653278797,0.022908962653278797
251.804,0.03967166071056272,0.03967166071056272
251.805,0.06828541924876941,0.06828541924876941
251.806,0.1028220170146259,0.1028220170146259
251.807,0.1350071926235088,0.1350071926235088
251.808,0.15630614016418698,0.15630614016418698
251.809,0.16016463906788325,0.16016463906788325
251.81,0.1437650528869152,0.1437650528869152
251.811,0.1088124487850286,0.1088124487850286
251.812,0.06116672751905994,0.06116672751905994
251.813,0.009477178561153377,0.009477178561153377
251.814,0.03675633054827243,-0.03675633054827243
251.815,0.0691568050483432,-0.0691568050483432
251.816,0.08200025573671299,-0.08200025573671299
251.817,0.07302028299088748,-0.07302028299088748
251.818,0.043452224330574274,-0.043452224330574274
251.819,0.002511310538072964,0.002511310538072964
251.82,0.05858142514471232,0.05858142514471232
251.821,0.11730093229187233,0.11730093229187233
251.822,0.17090004960264982,0.17090004960264982
251.823,0.2120699848611165,0.2120699848611165
251.824,0.23472327096658607,0.23472327096658607
251.825,0.2347965987004077,0.2347965987004077
251.826,0.2110533197425042,0.2110533197425042
251.827,0.16571008658746855,0.16571008658746855
251.828,0.1046197988372537,0.1046197988372537
251.829,0.036756165421294895,0.036756165421294895
251.83,0.027111125759969434,-0.027111125759969434
251.831,0.07641774483741148,-0.07641774483741148
251.832,0.10308489449210245,-0.10308489449210245
251.833,0.10349629736813781,-0.10349629736813781
251.834,0.07957128803578761,-0.07957128803578761
251.835,0.038514511938099294,-0.038514511938099294
251.836,0.008831202954259654,0.008831202954259654
251.837,0.05068931697913892,0.05068931697913892
251.838,0.07742321662118234,0.07742321662118234
251.839,0.08412684494745837,0.08412684494745837
251.84,0.07196823662756047,0.07196823662756047
251.841,0.04785030348897612,0.04785030348897612
251.842,0.022431175052863406,0.022431175052863406
251.843,0.007030886550392079,0.007030886550392079
251.844,0.010292256194365246,0.010292256194365246
251.845,0.03555294426986211,0.03555294426986211
251.846,0.07969151197943813,0.07969151197943813
251.847,0.1337890830453663,0.1337890830453663
251.848,0.1854262948102987,0.1854262948102987
251.849,0.22196900416781506,0.22196900416781506
251.85,0.23392312137048488,0.23392312137048488
251.851,0.21743542349780487,0.21743542349780487
251.852,0.17527694925637172,0.17527694925637172
251.853,0.11608433768013238,0.11608433768013238
251.854,0.0521187482473513,0.0521187482473513
251.855,0.0038084648201742732,-0.0038084648201742732
251.856,0.04140419242557869,-0.04140419242557869
251.857,0.05516729108714524,-0.05516729108714524
251.858,0.04533850771494896,-0.04533850771494896
251.859,0.0173791715547017,-0.0173791715547017
251.86,0.019779294124425695,0.019779294124425695
251.861,0.05618091963771432,0.05618091963771432
251.862,0.08332464427535657,0.08332464427535657
251.863,0.0960699368186213,0.0960699368186213
251.864,0.0935602423171269,0.0935602423171269
251.865,0.07903330372709783,0.07903330372709783
251.866,0.058664468724005436,0.058664468724005436
251.867,0.03979945468926971,0.03979945468926971
251.868,0.029037134116570273,0.029037134116570273
251.869,0.030612585195841646,0.030612585195841646
251.87,0.04542460635214218,0.04542460635214218
251.871,0.07088537201309575,0.07088537201309575
251.872,0.10158340919001718,0.10158340919001718
251.873,0.13058147085177585,0.13058147085177585
251.874,0.15104648739497417,0.15104648739497417
251.875,0.1578478042466045,0.1578478042466045
251.876,0.14877055166784348,0.14877055166784348
251.877,0.12507144229598044,0.12507144229598044
251.878,0.09124216336170221,0.09124216336170221
251.879,0.05401740690262202,0.05401740690262202
251.88,0.02083739086288916,0.02083739086288916
251.881,0.00188963664519759,-0.00188963664519759
251.882,0.010316039302031288,-0.010316039302031288
251.883,0.004096829196470919,-0.004096829196470919
251.884,0.013506200048837957,0.013506200048837957
251.885,0.0364120907823513,0.0364120907823513
251.886,0.05723159624464569,0.05723159624464569
251.887,0.06914274358395356,0.06914274358395356
251.888,0.06766737170019388,0.06766737170019388
251.889,0.05189713275863639,0.05189713275863639
251.89,0.024848291980136272,0.024848291980136272
251.891,0.007157716431525296,-0.007157716431525296
251.892,0.03594368108670931,-0.03594368108670931
251.893,0.05340095511275067,-0.05340095511275067
251.894,0.053416247983541054,-0.053416247983541054
251.895,0.03333450666748938,-0.03333450666748938
251.896,0.005382876534721026,0.005382876534721026
251.897,0.05743714313178061,0.05743714313178061
251.898,0.11480857244597531,0.11480857244597531
251.899,0.1684152636450087,0.1684152636450087
251.9,0.20991022815693006,0.20991022815693006
251.901,0.23321137158849048,0.23321137158849048
251.902,0.23545674773799719,0.23545674773799719
251.903,0.21724024090800764,0.21724024090800764
251.904,0.18216260425012365,0.18216260425012365
251.905,0.13588231345827406,0.13588231345827406
251.906,0.08493620585562645,0.08493620585562645
251.907,0.03560849492425233,0.03560849492425233
251.908,0.0069327558935053935,-0.0069327558935053935
251.909,0.039115130194834036,-0.039115130194834036
251.91,0.05905372296105882,-0.05905372296105882
251.911,0.06634473261509755,-0.06634473261509755
251.912,0.061702252398586954,-0.061702252398586954
251.913,0.04658363871695148,-0.04658363871695148
251.914,0.02291065144097959,-0.02291065144097959
251.915,0.007070345214058138,0.007070345214058138
251.916,0.040813982557205364,0.040813982557205364
251.917,0.0754636377287301,0.0754636377287301
251.918,0.10789728617393446,0.10789728617393446
251.919,0.1349092444054676,0.1349092444054676
251.92,0.1535547289152237,0.1535547289152237
251.921,0.16161572627721332,0.16161572627721332
251.922,0.15808237931346514,0.15808237931346514
251.923,0.14350654692405462,0.14350654692405462
251.924,0.12009009932142933,0.12009009932142933
251.925,0.0914245710991719,0.0914245710991719
251.926,0.06189036655468749,0.06189036655468749
251.927,0.0358279248192086,0.0358279248192086
251.928,0.016677161171017918,0.016677161171017918
251.929,0.006314106998175584,0.006314106998175584
251.93,0.0047769773683541406,0.0047769773683541406
251.931,0.010471179574783607,0.010471179574783607
251.932,0.02080057286408943,0.02080057286408943
251.933,0.03303430392231177,0.03303430392231177
251.934,0.04513245361990692,0.04513245361990692
251.935,0.056254680314719696,0.056254680314719696
251.936,0.06677244477618238,0.06677244477618238
251.937,0.07777263338363505,0.07777263338363505
251.938,0.09022579650302665,0.09022579650302665
251.939,0.10413094114326227,0.10413094114326227
251.94,0.11798602951169612,0.11798602951169612
251.941,0.12884528565842457,0.12884528565842457
251.942,0.13303043024731842,0.13303043024731842
251.943,0.12732295536447968,0.12732295536447968
251.944,0.11026135676017024,0.11026135676017024
251.945,0.08307877548926057,0.08307877548926057
251.946,0.04988690816822716,0.04988690816822716
251.947,0.016932358933377634,0.016932358933377634
251.948,0.008942081921586631,-0.008942081921586631
251.949,0.022207327616846184,-0.022207327616846184
251.95,0.020333512210896854,-0.020333512210896854
251.951,0.004675335969650307,-0.004675335969650307
251.952,0.019797606742318896,0.019797606742318896
251.953,0.0459187064142037,0.0459187064142037
251.954,0.06649617757207116,0.06649617757207116
251.955,0.07656413859798739,0.07656413859798739
251.956,0.07496964165829545,0.07496964165829545
251.957,0.06473386637931156,0.06473386637931156
251.958,0.0520107413841,0.0520107413841
251.959,0.043934474463933615,0.043934474463933615
251.96,0.04604220803066417,0.04604220803066417
251.961,0.06013895956784587,0.06013895956784587
251.962,0.08336506041844838,0.08336506041844838
251.963,0.10885299740956955,0.10885299740956955
251.964,0.12783554583495849,0.12783554583495849
251.965,0.13256301852690844,0.13256301852690844
251.966,0.11907800648303879,0.11907800648303879
251.967,0.08889588322956321,0.08889588322956321
251.968,0.04896231351131575,0.04896231351131575
251.969,0.009808930429143103,0.009808930429143103
251.97,0.017571990553345018,-0.017571990553345018
251.971,0.025164233690502136,-0.025164233690502136
251.972,0.01056449121773273,-0.01056449121773273
251.973,0.022068802964502643,0.022068802964502643
251.974,0.06311876467293942,0.06311876467293942
251.975,0.10037095889006742,0.10037095889006742
251.976,0.12275946593438691,0.12275946593438691
251.977,0.12382109287052567,0.12382109287052567
251.978,0.10375439688674581,0.10375439688674581
251.979,0.06941299640930887,0.06941299640930887
251.98,0.03221644435886328,0.03221644435886328
251.981,0.004624794014036926,0.004624794014036926
251.982,0.003720628579088725,-0.003720628579088725
251.983,0.011014582208395352,0.011014582208395352
251.984,0.0456628332312885,0.0456628332312885
251.985,0.09100190210597181,0.09100190210597181
251.986,0.13451974100466613,0.13451974100466613
251.987,0.16411404981772226,0.16411404981772226
251.988,0.17157877701564606,0.17157877701564606
251.989,0.15483341408808005,0.15483341408808005
251.99,0.11827811094579888,0.11827811094579888
251.991,0.07125965877736151,0.07125965877736151
251.992,0.02521093164098831,0.02521093164098831
251.993,0.009603118765318941,-0.009603118765318941
251.994,0.02674286441401308,-0.02674286441401308
251.995,0.024920401059579933,-0.024920401059579933
251.996,0.007726437097899108,-0.007726437097899108
251.997,0.01799885200353568,0.01799885200353568
251.998,0.04451708693285594,0.04451708693285594
251.999,0.06547742413011415,0.06547742413011415
252.0,0.07746011008752651,0.07746011008752651
252.001,0.0804149416531672,0.0804149416531672
252.002,0.07702458332118844,0.07702458332118844
252.003,0.0713565596745076,0.0713565596745076
252.004,0.06733867582693076,0.06733867582693076
252.005,0.06756353585708896,0.06756353585708896
252.006,0.0727348789107547,0.0727348789107547
252.007,0.08180079930409412,0.08180079930409412
252.008,0.09258127928080895,0.09258127928080895
252.009,0.10257043030471125,0.10257043030471125
252.01,0.10960676542214065,0.10960676542214065
252.011,0.11223040967313636,0.11223040967313636
252.012,0.10971704048530029,0.10971704048530029
252.013,0.10191770087540775,0.10191770087540775
252.014,0.08908680620477405,0.08908680620477405
252.015,0.0718354900496776,0.0718354900496776
252.016,0.05123574005423448,0.05123574005423448
252.017,0.0289817570544344,0.0289817570544344
252.018,0.007448078802347657,0.007448078802347657
252.019,0.010497020596349382,-0.010497020596349382
252.02,0.02196562245851752,-0.02196562245851752
252.021,0.024718799364009225,-0.024718799364009225
252.022,0.01782478615614591,-0.01782478615614591
252.023,0.002065578446918237,-0.002065578446918237
252.024,0.020087933792275026,0.020087933792275026
252.025,0.04497288886568973,0.04497288886568973
252.026,0.06857909953219243,0.06857909953219243
252.027,0.0874910005043581,0.0874910005043581
252.028,0.09963932258448183,0.09963932258448183
252.029,0.1046418743226909,0.1046418743226909
252.03,0.10365781319374223,0.10365781319374223
252.031,0.09884614277061532,0.09884614277061532
252.032,0.09264272799478346,0.09264272799478346
252.033,0.08710544844141754,0.08710544844141754
252.034,0.08351584682990731,0.08351584682990731
252.035,0.08229931036760063,0.08229931036760063
252.036,0.0831919222284152,0.0831919222284152
252.037,0.08549907846638738,0.08549907846638738
252.038,0.08829267510822203,0.08829267510822203
252.039,0.09047438406828578,0.09047438406828578
252.04,0.09074897633169243,0.09074897633169243
252.041,0.08764195876187952,0.08764195876187952
252.042,0.07970771062449278,0.07970771062449278
252.043,0.06599064592540693,0.06599064592540693
252.044,0.046651893926369814,0.046651893926369814
252.045,0.023524379825324848,0.023524379825324848
252.046,0.0002877027257837117,0.0002877027257837117
252.047,0.017985005716066205,-0.017985005716066205
252.048,0.02596041303458474,-0.02596041303458474
252.049,0.01963797657457189,-0.01963797657457189
252.05,0.0020656099284428464,0.0020656099284428464
252.051,0.0363219177421521,0.0363219177421521
252.052,0.0764742400051317,0.0764742400051317
252.053,0.11338708781297946,0.11338708781297946
252.054,0.13782552913611057,0.13782552913611057
252.055,0.14322211799720086,0.14322211799720086
252.056,0.1279563542310762,0.1279563542310762
252.057,0.09632143239544755,0.09632143239544755
252.058,0.057702517565859646,0.057702517565859646
252.059,0.02404832145842173,0.02404832145842173
252.06,0.006306132329084502,0.006306132329084502
252.061,0.010903929827238201,0.010903929827238201
252.062,0.03744007724648868,0.03744007724648868
252.063,0.07842596511292355,0.07842596511292355
252.064,0.12129917441120419,0.12129917441120419
252.065,0.15217968198887744,0.15217968198887744
252.066,0.16022925251756281,0.16022925251756281
252.067,0.14121360318265008,0.14121360318265008
252.068,0.0990672570768174,0.0990672570768174
252.069,0.04487666899342746,0.04487666899342746
252.07,0.00646386330336135,-0.00646386330336135
252.071,0.040884961032606415,-0.040884961032606415
252.072,0.049566527413076655,-0.049566527413076655
252.073,0.03169167620732627,-0.03169167620732627
252.074,0.005400220104939013,0.005400220104939013
252.075,0.04873247644874845,0.04873247644874845
252.076,0.08405316971397081,0.08405316971397081
252.077,0.10057942793344621,0.10057942793344621
252.078,0.09452178312472359,0.09452178312472359
252.079,0.07019321550800806,0.07019321550800806
252.08,0.03833008890189249,0.03833008890189249
252.081,0.01221118363540974,0.01221118363540974
252.082,0.0029249443538958975,0.0029249443538958975
252.083,0.015435439115236038,0.015435439115236038
252.084,0.0468242927492355,0.0468242927492355
252.085,0.08732849040989366,0.08732849040989366
252.086,0.12381305873402759,0.12381305873402759
252.087,0.14445573233161757,0.14445573233161757
252.088,0.14298269617425774,0.14298269617425774
252.089,0.1209396184269016,0.1209396184269016
252.09,0.08716592762930886,0.08716592762930886
252.091,0.0546273455834434,0.0546273455834434
252.092,0.03570656898834579,0.03570656898834579
252.093,0.037619575428586405,0.037619575428586405
252.094,0.059609030128171314,0.059609030128171314
252.095,0.09296374081616099,0.09296374081616099
252.096,0.12392811513144775,0.12392811513144775
252.097,0.13853993562497502,0.13853993562497502
252.098,0.12772944317244384,0.12772944317244384
252.099,0.09088110866560273,0.09088110866560273
252.1,0.036557098949131506,0.036557098949131506
252.101,0.019955870957127697,-0.019955870957127697
252.102,0.061515800124248954,-0.061515800124248954
252.103,0.07479595418512586,-0.07479595418512586
252.104,0.05483217653704431,-0.05483217653704431
252.105,0.006871861315179029,-0.006871861315179029
252.106,0.05515435370085564,0.05515435370085564
252.107,0.1130764193536109,0.1130764193536109
252.108,0.1503860695854271,0.1503860695854271
252.109,0.15762710351773213,0.15762710351773213
252.11,0.13546013806304735,0.13546013806304735
252.111,0.09435628196131662,0.09435628196131662
252.112,0.05100066838279882,0.05100066838279882
252.113,0.022591019797362666,0.022591019797362666
252.114,0.020926342230850326,0.020926342230850326
252.115,0.04825812988678435,0.04825812988678435
252.116,0.096296437860238,0.096296437860238
252.117,0.14872170802163542,0.14872170802163542
252.118,0.18639892485254528,0.18639892485254528
252.119,0.19360640558018072,0.19360640558018072
252.12,0.16326603155338315,0.16326603155338315
252.121,0.09949485926847612,0.09949485926847612
252.122,0.01667097463601097,0.01667097463601097
252.123,0.06467453441714455,-0.06467453441714455
252.124,0.12383007124004719,-0.12383007124004719
252.125,0.14587348929673272,-0.14587348929673272
252.126,0.12582119059778385,-0.12582119059778385
252.127,0.06975758167626878,-0.06975758167626878
252.128,0.007281794852777912,0.007281794852777912
252.129,0.08589841903486883,0.08589841903486883
252.13,0.14790198453432457,0.14790198453432457
252.131,0.1811619259286632,0.1811619259286632
252.132,0.18236073316441082,0.18236073316441082
252.133,0.15699892432607565,0.15699892432607565
252.134,0.11687937164669449,0.11687937164669449
252.135,0.07604028560054954,0.07604028560054954
252.136,0.04648942434904413,0.04648942434904413
252.137,0.03502557691801522,0.03502557691801522
252.138,0.041976096044013644,0.041976096044013644
252.139,0.062009803975308087,0.062009803975308087
252.14,0.08653344885867398,0.08653344885867398
252.141,0.10675035561612778,0.10675035561612778
252.142,0.11636473216684284,0.11636473216684284
252.143,0.11314849399987037,0.11314849399987037
252.144,0.09903885598411089,0.09903885598411089
252.145,0.07893574040603246,0.07893574040603246
252.146,0.05875293064445386,0.05875293064445386
252.147,0.04343736788198971,0.04343736788198971
252.148,0.035584214498652456,0.035584214498652456
252.149,0.03500119425424608,0.03500119425424608
252.15,0.03922684162660994,0.03922684162660994
252.151,0.04470512342643018,0.04470512342643018
252.152,0.048152857212442335,0.048152857212442335
252.153,0.047659223471511636,0.047659223471511636
252.154,0.04320245285883306,0.04320245285883306
252.155,0.0364904347789623,0.0364904347789623
252.156,0.03024993248956309,0.03024993248956309
252.157,0.02723872975576591,0.02723872975576591
252.158,0.029304229261335246,0.029304229261335246
252.159,0.03676418763097211,0.03676418763097211
252.16,0.048270190285504055,0.048270190285504055
252.161,0.0611729353653776,0.0611729353653776
252.162,0.07227784551979788,0.07227784551979788
252.163,0.07878569916995537,0.07878569916995537
252.164,0.07916875468168261,0.07916875468168261
252.165,0.07374178426621625,0.07374178426621625
252.166,0.0647477210075893,0.0647477210075893
252.167,0.05588305935518356,0.05588305935518356
252.168,0.05132555317611254,0.05132555317611254
252.169,0.05447219820595128,0.05447219820595128
252.17,0.06671361562565536,0.06671361562565536
252.171,0.0866208646830402,0.0866208646830402
252.172,0.10986875759794978,0.10986875759794978
252.173,0.13005559476213513,0.13005559476213513
252.174,0.14032834155664364,0.14032834155664364
252.175,0.13544761013975215,0.13544761013975215
252.176,0.11371574482853153,0.11371574482853153
252.177,0.07812909540568591,0.07812909540568591
252.178,0.036253264843000066,0.036253264843000066
252.179,0.001351399679118237,-0.001351399679118237
252.18,0.02388531528234583,-0.02388531528234583
252.181,0.023553678012072532,-0.023553678012072532
252.182,0.0016536314969470833,0.0016536314969470833
252.183,0.046583775781598113,0.046583775781598113
252.184,0.09955843195967162,0.09955843195967162
252.185,0.14507690842912435,0.14507690842912435
252.186,0.167987234027277,0.167987234027277
252.187,0.15800028932542332,0.15800028932542332
252.188,0.11320045171613002,0.11320045171613002
252.189,0.04139244994172353,0.04139244994172353
252.19,0.041305194081670216,-0.041305194081670216
252.191,0.11440661105150851,-0.11440661105150851
252.192,0.15853597169513112,-0.15853597169513112
252.193,0.16089422054913227,-0.16089422054913227
252.194,0.11909014116943561,-0.11909014116943561
252.195,0.0421286675149567,-0.0421286675149567
252.196,0.05183829103687798,0.05183829103687798
252.197,0.14042553786182554,0.14042553786182554
252.198,0.2031959732374713,0.2031959732374713
252.199,0.22729727128427601,0.22729727128427601
252.2,0.21087658325129333,0.21087658325129333
252.201,0.16325242490622305,0.16325242490622305
252.202,0.10180421567177111,0.10180421567177111
252.203,0.0465424516828985,0.0465424516828985
252.204,0.01403123192981659,0.01403123192981659
252.205,0.012524844810046787,0.012524844810046787
252.206,0.039789779904637834,0.039789779904637834
252.207,0.08423566127606974,0.08423566127606974
252.208,0.12894167253095135,0.12894167253095135
252.209,0.15726711810732907,0.15726711810732907
252.21,0.15825811239874543,0.15825811239874543
252.211,0.13015325153549795,0.13015325153549795
252.212,0.08091396273309659,0.08091396273309659
252.213,0.025656035761977725,0.025656035761977725
252.214,0.018167405297625172,-0.018167405297625172
252.215,0.036291601004016294,-0.036291601004016294
252.216,0.022140323167277876,-0.022140323167277876
252.217,0.02108254920732011,0.02108254920732011
252.218,0.08131950700436041,0.08131950700436041
252.219,0.14126993782339192,0.14126993782339192
252.22,0.18353584338664386,0.18353584338664386
252.221,0.19571636429026507,0.19571636429026507
252.222,0.17392695232066524,0.17392695232066524
252.223,0.12374346770973754,0.12374346770973754
252.224,0.05837893779699277,0.05837893779699277
252.225,0.0052675030855163785,-0.0052675030855163785
252.226,0.05144785711979094,-0.05144785711979094
252.227,0.06984542570833119,-0.06984542570833119
252.228,0.05809290891436003,-0.05809290891436003
252.229,0.021905168145927245,-0.021905168145927245
252.23,0.027065939795177796,0.027065939795177796
252.231,0.07489429648112989,0.07489429648112989
252.232,0.10941212458838523,0.10941212458838523
252.233,0.12343819980482795,0.12343819980482795
252.234,0.11634266094464563,0.11634266094464563
252.235,0.09362835037523465,0.09362835037523465
252.236,0.06479754395404291,0.06479754395404291
252.237,0.040238695843091365,0.040238695843091365
252.238,0.02808834460541143,0.02808834460541143
252.239,0.03195782403900016,0.03195782403900016
252.24,0.050106672624673054,0.050106672624673054
252.241,0.07620149273061871,0.07620149273061871
252.242,0.10135360051724418,0.10135360051724418
252.243,0.11680106028927617,0.11680106028927617
252.244,0.11646676713962956,0.11646676713962956
252.245,0.09870192591701632,0.09870192591701632
252.246,0.06677575434530603,0.06677575434530603
252.247,0.028020411336192597,0.028020411336192597
252.248,0.008108062908770197,-0.008108062908770197
252.249,0.03252230787367705,-0.03252230787367705
252.25,0.038891706650534985,-0.038891706650534985
252.251,0.02530673309352549,-0.02530673309352549
252.252,0.005208747323756535,0.005208747323756535
252.253,0.04547018372529088,0.04547018372529088
252.254,0.08599385062664378,0.08599385062664378
252.255,0.11746730025734431,0.11746730025734431
252.256,0.1331819256661555,0.1331819256661555
252.257,0.13077701873461645,0.13077701873461645
252.258,0.11281274002321662,0.11281274002321662
252.259,0.08599414481324841,0.08599414481324841
252.26,0.05923546207042718,0.05923546207042718
252.261,0.041085515588023425,0.041085515588023425
252.262,0.037235483179658635,0.037235483179658635
252.263,0.04883281032489206,0.04883281032489206
252.264,0.07211632417398706,0.07211632417398706
252.265,0.09951584269519187,0.09951584269519187
252.266,0.12192650814304207,0.12192650814304207
252.267,0.13150183329549492,0.13150183329549492
252.268,0.12412659358396572,0.12412659358396572
252.269,0.10079825377412233,0.10079825377412233
252.27,0.06745586906141199,0.06745586906141199
252.271,0.03326306321201078,0.03326306321201078
252.272,0.007836346498702573,0.007836346498702573
252.273,0.0017416558396372572,-0.0017416558396372572
252.274,0.006810403194528636,0.006810403194528636
252.275,0.030159941593892015,0.030159941593892015
252.276,0.060297727190385064,0.060297727190385064
252.277,0.08697233107995728,0.08697233107995728
252.278,0.10088651077335187,0.10088651077335187
252.279,0.09666089399101763,0.09666089399101763
252.28,0.07462370230797188,0.07462370230797188
252.281,0.04084138562979356,0.04084138562979356
252.282,0.005354875901350198,0.005354875901350198
252.283,0.02084482861215875,-0.02084482861215875
252.284,0.029163671295686977,-0.029163671295686977
252.285,0.016028913989489246,-0.016028913989489246
252.286,0.016027386023086843,0.016027386023086843
252.287,0.05915505955182643,0.05915505955182643
252.288,0.10257891569546129,0.10257891569546129
252.289,0.13582972041598262,0.13582972041598262
252.29,0.15179103363110258,0.15179103363110258
252.291,0.14861751850817773,0.14861751850817773
252.292,0.12995986059863096,0.12995986059863096
252.293,0.10348485808263996,0.10348485808263996
252.294,0.07822326831706872,0.07822326831706872
252.295,0.06163549992781325,0.06163549992781325
252.296,0.05734400014617069,0.05734400014617069
252.297,0.06423001859388822,0.06423001859388822
252.298,0.07712282939921256,0.07712282939921256
252.299,0.08878276475270663,0.08878276475270663
252.3,0.09247099822117422,0.09247099822117422
252.301,0.08423938916099538,0.08423938916099538
252.302,0.06420595873636792,0.06420595873636792
252.303,0.03644976568267211,0.03644976568267211
252.304,0.007630339795289265,0.007630339795289265
252.305,0.015150506743581316,-0.015150506743581316
252.306,0.026507877468950114,-0.026507877468950114
252.307,0.02425600342531864,-0.02425600342531864
252.308,0.009784792782111307,-0.009784792782111307
252.309,0.012701821902244559,0.012701821902244559
252.31,0.037737261683112644,0.037737261683112644
252.311,0.0603483373407494,0.0603483373407494
252.312,0.07741124569347346,0.07741124569347346
252.313,0.08819343674143054,0.08819343674143054
252.314,0.09398835363985425,0.09398835363985425
252.315,0.09708040904948723,0.09708040904948723
252.316,0.0994993185189681,0.0994993185189681
252.317,0.10206316097796031,0.10206316097796031
252.318,0.10406417359264664,0.10406417359264664
252.319,0.103683262566171,0.103683262566171
252.32,0.09893285356908188,0.09893285356908188
252.321,0.08872926609283738,0.08872926609283738
252.322,0.07365490552930365,0.07365490552930365
252.323,0.05609645530863494,0.05609645530863494
252.324,0.039685751897131416,0.039685751897131416
252.325,0.02823287314301326,0.02823287314301326
252.326,0.024528869716980983,0.024528869716980983
252.327,0.029441813653893645,0.029441813653893645
252.328,0.04162153000188584,0.04162153000188584
252.329,0.05790924891938354,0.05790924891938354
252.33,0.07430093852200859,0.07430093852200859
252.331,0.08712711303329024,0.08712711303329024
252.332,0.09405178717682583,0.09405178717682583
252.333,0.0945753537747358,0.0945753537747358
252.334,0.08991484109974768,0.08991484109974768
252.335,0.08235761534542618,0.08235761534542618
252.336,0.07435950105079159,0.07435950105079159
252.337,0.06772508149841738,0.06772508149841738
252.338,0.06314861980762498,0.06314861980762498
252.339,0.0602377764243911,0.0602377764243911
252.34,0.05795252937295059,0.05795252937295059
252.341,0.055241057547161576,0.055241057547161576
252.342,0.05159712895480073,0.05159712895480073
252.343,0.047316142846545395,0.047316142846545395
252.344,0.04336330288379164,0.04336330288379164
252.345,0.04093046163048153,0.04093046163048153
252.346,0.04088303664170723,0.04088303664170723
252.347,0.043337378585394326,0.043337378585394326
252.348,0.04754950476290798,0.04754950476290798
252.349,0.052164608649517996,0.052164608649517996
252.35,0.055727354303624965,0.055727354303624965
252.351,0.05724579090525528,0.05724579090525528
252.352,0.056579238800897436,0.056579238800897436
252.353,0.054491074681467744,0.054491074681467744
252.354,0.052342314430100956,0.052342314430100956
252.355,0.05154709096893528,0.05154709096893528
252.356,0.05300831821589158,0.05300831821589158
252.357,0.05676169792600705,0.05676169792600705
252.358,0.06197394702907699,0.06197394702907699
252.359,0.0672985420726202,0.0672985420726202
252.36,0.07144571640759478,0.07144571640759478
252.361,0.07373181885770053,0.07373181885770053
252.362,0.0743747579305638,0.0743747579305638
252.363,0.07439927885770192,0.07439927885770192
252.364,0.07517253014665459,0.07517253014665459
252.365,0.07774613175997369,0.07774613175997369
252.366,0.08227318601203781,0.08227318601203781
252.367,0.0877572638068469,0.0877572638068469
252.368,0.09227418598518056,0.09227418598518056
252.369,0.09362623188002717,0.09362623188002717
252.37,0.09020948423458375,0.09020948423458375
252.371,0.08176844761202195,0.08176844761202195
252.372,0.06972416286318173,0.06972416286318173
252.373,0.05689655672534322,0.05689655672534322
252.374,0.04665636399614859,0.04665636399614859
252.375,0.04176162456838495,0.04176162456838495
252.376,0.04327695883008831,0.04327695883008831
252.377,0.04998221742388265,0.04998221742388265
252.378,0.058538049488083166,0.058538049488083166
252.379,0.06442941685302883,0.06442941685302883
252.38,0.0634349283553679,0.0634349283553679
252.381,0.053164883199328106,0.053164883199328106
252.382,0.03414996835466977,0.03414996835466977
252.383,0.010075115897486109,0.010075115897486109
252.384,0.012990052240878902,-0.012990052240878902
252.385,0.028191430233764025,-0.028191430233764025
252.386,0.029867888142486865,-0.029867888142486865
252.387,0.015307883771810804,-0.015307883771810804
252.388,0.014268892697440805,0.014268892697440805
252.389,0.053834911452580014,0.053834911452580014
252.39,0.09577768747913185,0.09577768747913185
252.391,0.13187607983244942,0.13187607983244942
252.392,0.1554484068331512,0.1554484068331512
252.393,0.16303706250716798,0.16303706250716798
252.394,0.15514040624897274,0.15514040624897274
252.395,0.1358015378916928,0.1358015378916928
252.396,0.11121844503655964,0.11121844503655964
252.397,0.08783643298650956,0.08783643298650956
252.398,0.07052723986060583,0.07052723986060583
252.399,0.06140633220732372,0.06140633220732372
252.4,0.059612008563281194,0.059612008563281194
252.401,0.0620456663454958,0.0620456663454958
252.402,0.06476083338575145,0.06476083338575145
252.403,0.06449198000150003,0.06449198000150003
252.404,0.05979491698573702,0.05979491698573702
252.405,0.05143025312480831,0.05143025312480831
252.406,0.04190109318298085,0.04190109318298085
252.407,0.03435741724925112,0.03435741724925112
252.408,0.031298165467021466,0.031298165467021466
252.409,0.033563551754736576,0.033563551754736576
252.41,0.039995141559587166,0.039995141559587166
252.411,0.047891655885699436,0.047891655885699436
252.412,0.0540928778909735,0.0540928778909735
252.413,0.05628710675530568,0.05628710675530568
252.414,0.0540439940060069,0.0540439940060069
252.415,0.049159629218866296,0.049159629218866296
252.416,0.045137785680282816,0.045137785680282816
252.417,0.045940219257172954,0.045940219257172954
252.418,0.054413162196359055,0.054413162196359055
252.419,0.07093960161828394,0.07093960161828394
252.42,0.09282350723203114,0.09282350723203114
252.421,0.11469104770277272,0.11469104770277272
252.422,0.12986390887485566,0.12986390887485566
252.423,0.13232871168556004,0.13232871168556004
252.424,0.11870519652485823,0.11870519652485823
252.425,0.08958160965695616,0.08958160965695616
252.426,0.04975589583840345,0.04975589583840345
252.427,0.007246339110150712,0.007246339110150712
252.428,0.028685967041588434,-0.028685967041588434
252.429,0.049948419013095324,-0.049948419013095324
252.43,0.051762902127771016,-0.051762902127771016
252.431,0.03391804799396636,-0.03391804799396636
252.432,0.0007645808432585888,-0.0007645808432585888
252.433,0.04003238620422711,0.04003238620422711
252.434,0.07959994572850637,0.07959994572850637
252.435,0.11019104600787921,0.11019104600787921
252.436,0.12706430899358545,0.12706430899358545
252.437,0.12939063311550636,0.12939063311550636
252.438,0.11998390476794474,0.11998390476794474
252.439,0.10402110938899822,0.10402110938899822
252.44,0.08721816705799479,0.08721816705799479
252.441,0.07406806294072221,0.07406806294072221
252.442,0.06668789268027164,0.06668789268027164
252.443,0.06458813551051512,0.06458813551051512
252.444,0.0653536755437445,0.0653536755437445
252.445,0.06592214120045536,0.06592214120045536
252.446,0.063961583599355,0.063961583599355
252.447,0.05884381318706522,0.05884381318706522
252.448,0.05187783088226827,0.05187783088226827
252.449,0.04574682094022098,0.04574682094022098
252.45,0.043382771812652265,0.043382771812652265
252.451,0.046713633166083124,0.046713633166083124
252.452,0.05576037874654771,0.05576037874654771
252.453,0.06843262017025276,0.06843262017025276
252.454,0.08111829886024169,0.08111829886024169
252.455,0.08987517955240398,0.08987517955240398
252.456,0.09181070660939183,0.09181070660939183
252.457,0.0861601193328394,0.0861601193328394
252.458,0.07466810182040073,0.07466810182040073
252.459,0.06111449542618019,0.06111449542618019
252.46,0.050119012325766876,0.050119012325766876
252.461,0.04561204528582041,0.04561204528582041
252.462,0.04948136713300055,0.04948136713300055
252.463,0.06085471449839752,0.06085471449839752
252.464,0.07627182954593281,0.07627182954593281
252.465,0.09070581412566137,0.09070581412566137
252.466,0.09911166957968987,0.09911166957968987
252.467,0.09800459940859607,0.09800459940859607
252.468,0.08656064239159011,0.08656064239159011
252.469,0.06689004359769024,0.06689004359769024
252.47,0.043405502856155076,0.043405502856155076
252.471,0.021501335022873214,0.021501335022873214
252.472,0.005977543873755042,0.005977543873755042
252.473,0.0002863651799993594,-0.0002863651799993594
252.474,0.003000021504702799,0.003000021504702799
252.475,0.013706221408727126,0.013706221408727126
252.476,0.028184341322546214,0.028184341322546214
252.477,0.04256903263879286,0.04256903263879286
252.478,0.05401963700369716,0.05401963700369716
252.479,0.061491920813042666,0.061491920813042666
252.48,0.065806646157333,0.065806646157333
252.481,0.06903476408128495,0.06903476408128495
252.482,0.07345571450876376,0.07345571450876376
252.483,0.08048544137003044,0.08048544137003044
252.484,0.0899688101900522,0.0899688101900522
252.485,0.10009167103864858,0.10009167103864858
252.486,0.107942568290047,0.107942568290047
252.487,0.110523041344742,0.110523041344742
252.488,0.1058486205592517,0.1058486205592517
252.489,0.09375256267437382,0.09375256267437382
252.49,0.07610880180790547,0.07610880180790547
252.491,0.0563908653896803,0.0563908653896803
252.492,0.03870906762006854,0.03870906762006854
252.493,0.026641714324909804,0.026641714324909804
252.494,0.02223969843486029,0.02223969843486029
252.495,0.025519013943859026,0.025519013943859026
252.496,0.034587777214659,0.034587777214659
252.497,0.046342824366580215,0.046342824366580215
252.498,0.05748811771768736,0.05748811771768736
252.499,0.06553312208984496,0.06553312208984496
252.5,0.06945200829705023,0.06945200829705023
252.501,0.06981171123169783,0.06981171123169783
252.502,0.06836169883639442,0.06836169883639442
252.503,0.06725669537848633,0.06725669537848633
252.504,0.06819648368411735,0.06819648368411735
252.505,0.07177985001692089,0.07177985001692089
252.506,0.07728326869684277,0.07728326869684277
252.507,0.08292262218868407,0.08292262218868407
252.508,0.08649180395932365,0.08649180395932365
252.509,0.08615032970371406,0.08615032970371406
252.51,0.08109091985701311,0.08109091985701311
252.511,0.07186674475050325,0.07186674475050325
252.512,0.060276171252326316,0.060276171252326316
252.513,0.04884872407435026,0.04884872407435026
252.514,0.04010157091846467,0.04010157091846467
252.515,0.035802669933700404,0.035802669933700404
252.516,0.03646730589519542,0.03646730589519542
252.517,0.04123644229915935,0.04123644229915935
252.518,0.04816595330474227,0.04816595330474227
252.519,0.054833364715367594,0.054833364715367594
252.52,0.059079063689143174,0.059079063689143174
252.521,0.0596654444296747,0.0596654444296747
252.522,0.0566657854896222,0.0566657854896222
252.523,0.05147314282573956,0.05147314282573956
252.524,0.046424418570606196,0.046424418570606196
252.525,0.04413773739259241,0.04413773739259241
252.526,0.0467369620776823,0.0467369620776823
252.527,0.05516856924267888,0.05516856924267888
252.528,0.06879708282937158,0.06879708282937158
252.529,0.0854007189279935,0.0854007189279935
252.53,0.10159300501147017,0.10159300501147017
252.531,0.11358961824593772,0.11358961824593772
252.532,0.11814639394132165,0.11814639394132165
252.533,0.11343730769148852,0.11343730769148852
252.534,0.0996375372925482,0.0996375372925482
252.535,0.07903334448196486,0.07903334448196486
252.536,0.05559019507372431,0.05559019507372431
252.537,0.03405075378983646,0.03405075378983646
252.538,0.018770508538194175,0.018770508538194175
252.539,0.012591660142865946,0.012591660142865946
252.54,0.016072866131084274,0.016072866131084274
252.541,0.027318545184212395,0.027318545184212395
252.542,0.0424974586378053,0.0424974586378053
252.543,0.05694336873294481,0.05694336873294481
252.544,0.06654646698976596,0.06654646698976596
252.545,0.06903181086647225,0.06903181086647225
252.546,0.06472328616137624,0.06472328616137624
252.547,0.0565197416471932,0.0565197416471932
252.548,0.04903553642848202,0.04903553642848202
252.549,0.04711782993676428,0.04711782993676428
252.55,0.05416716391041909,0.05416716391041909
252.551,0.07078339414058687,0.07078339414058687
252.552,0.09419538516588766,0.09419538516588766
252.553,0.11871830019964236,0.11871830019964236
252.554,0.1371749405190903,0.1371749405190903
252.555,0.14291002030297495,0.14291002030297495
252.556,0.13181735762538827,0.13181735762538827
252.557,0.10376252060121449,0.10376252060121449
252.558,0.06293859256070355,0.06293859256070355
252.559,0.016999979060686732,0.016999979060686732
252.56,0.024813154067364618,-0.024813154067364618
252.561,0.05403424229462439,-0.05403424229462439
252.562,0.06513107013609842,-0.06513107013609842
252.563,0.05683863428786584,-0.05683863428786584
252.564,0.03228496824388083,-0.03228496824388083
252.565,0.002099512902056677,0.002099512902056677
252.566,0.03852689041811996,0.03852689041811996
252.567,0.07003451981581987,0.07003451981581987
252.568,0.09223487327901547,0.09223487327901547
252.569,0.10412314667838496,0.10412314667838496
252.57,0.10775590932490786,0.10775590932490786
252.571,0.10698921964847341,0.10698921964847341
252.572,0.10576673485874744,0.10576673485874744
252.573,0.1065771217810334,0.1065771217810334
252.574,0.10961464458821002,0.10961464458821002
252.575,0.11290959764790509,0.11290959764790509
252.576,0.1133408282475743,0.1133408282475743
252.577,0.10812502649994826,0.10812502649994826
252.578,0.09620745094298289,0.09620745094298289
252.579,0.07901529475095126,0.07901529475095126
252.58,0.06026476012922144,0.06026476012922144
252.581,0.044855226279503446,0.044855226279503446
252.582,0.037218239740556935,0.037218239740556935
252.583,0.03969735802015251,0.03969735802015251
252.584,0.05154261553967898,0.05154261553967898
252.585,0.06890567247184198,0.06890567247184198
252.586,0.08588521136506921,0.08588521136506921
252.587,0.09631209466611756,0.09631209466611756
252.588,0.09570414603628508,0.09570414603628508
252.589,0.08275100454451301,0.08275100454451301
252.59,0.059835071589252165,0.059835071589252165
252.591,0.03240641122993626,0.03240641122993626
252.592,0.007402402904137517,0.007402402904137517
252.593,0.008788315330777174,-0.008788315330777174
252.594,0.012176017343719203,-0.012176017343719203
252.595,0.0022622331918455973,-0.0022622331918455973
252.596,0.01794319587484905,0.01794319587484905
252.597,0.042946924804601494,0.042946924804601494
252.598,0.06647667852789718,0.06647667852789718
252.599,0.08330491095984827,0.08330491095984827
252.6,0.09062312048734267,0.09062312048734267
252.601,0.08857590250207625,0.08857590250207625
252.602,0.07985879690058306,0.07985879690058306
252.603,0.06859186661237215,0.06859186661237215
252.604,0.05889766970284449,0.05889766970284449
252.605,0.053670132670740056,0.053670132670740056
252.606,0.053910242660565544,0.053910242660565544
252.607,0.058774761961616795,0.058774761961616795
252.608,0.06622348991137539,0.06622348991137539
252.609,0.0739530267716304,0.0739530267716304
252.61,0.08023678603128714,0.08023678603128714
252.611,0.08436813286930556,0.08436813286930556
252.612,0.08658817346268566,0.08658817346268566
252.613,0.08759632514257687,0.08759632514257687
252.614,0.08790630618003692,0.08790630618003692
252.615,0.0873614436485568,0.0873614436485568
252.616,0.08504501678331366,0.08504501678331366
252.617,0.07964738651204928,0.07964738651204928
252.618,0.07015172216334764,0.07015172216334764
252.619,0.056553335032370144,0.056553335032370144
252.62,0.04029245700173578,0.04029245700173578
252.621,0.024172712494513693,0.024172712494513693
252.622,0.011724979457661266,0.011724979457661266
252.623,0.006189814917165748,0.006189814917165748
252.624,0.009451134830799068,0.009451134830799068
252.625,0.021297895037561965,0.021297895037561965
252.626,0.03929889489881866,0.03929889489881866
252.627,0.05937734535009764,0.05937734535009764
252.628,0.07693444671100802,0.07693444671100802
252.629,0.08817793321158995,0.08817793321158995
252.63,0.09123102734257027,0.09123102734257027
252.631,0.08665946926602408,0.08665946926602408
252.632,0.07723985008282797,0.07723985008282797
252.633,0.06703933223392977,0.06703933223392977
252.634,0.06010182176642176,0.06010182176642176
252.635,0.059163187998118705,0.059163187998118705
252.636,0.06480600361716915,0.06480600361716915
252.637,0.07531767368643227,0.07531767368643227
252.638,0.0872848741696195,0.0872848741696195
252.639,0.09671937819828957,0.09671937819828957
252.64,0.10034383840376271,0.10034383840376271
252.641,0.09662376899649372,0.09662376899649372
252.642,0.08622439275259786,0.08622439275259786
252.643,0.07176420273267636,0.07176420273267636
252.644,0.05696518862348077,0.05696518862348077
252.645,0.04548779216428289,0.04548779216428289
252.646,0.03982774995605398,0.03982774995605398
252.647,0.04061751917146372,0.04061751917146372
252.648,0.0465333723206629,0.0465333723206629
252.649,0.054810564688980046,0.054810564688980046
252.65,0.06217905902476084,0.06217905902476084
252.651,0.06591068478671169,0.06591068478671169
252.652,0.06464983327615892,0.06464983327615892
252.653,0.05878381721728898,0.05878381721728898
252.654,0.05026347498890793,0.05026347498890793
252.655,0.04195714535525075,0.04195714535525075
252.656,0.03675736741529745,0.03675736741529745
252.657,0.03672027942736955,0.03672027942736955
252.658,0.042489615489127885,0.042489615489127885
252.659,0.0531555329190474,0.0531555329190474
252.66,0.06655956756409065,0.06655956756409065
252.661,0.07992544081653064,0.07992544081653064
252.662,0.09060989703067746,0.09060989703067746
252.663,0.09674982758206019,0.09674982758206019
252.664,0.09763128339805505,0.09763128339805505
252.665,0.09370244233689373,0.09370244233689373
252.666,0.08626400018838765,0.08626400018838765
252.667,0.07696303125007131,0.07696303125007131
252.668,0.06726458014466985,0.06726458014466985
252.669,0.05806826462219483,0.05806826462219483
252.67,0.04958060902422745,0.04958060902422745
252.671,0.04146690131470554,0.04146690131470554
252.672,0.03321568604378844,0.03321568604378844
252.673,0.024581003579302374,0.024581003579302374
252.674,0.01594142839619117,0.01594142839619117
252.675,0.008438145864590352,0.008438145864590352
252.676,0.003820401282881969,0.003820401282881969
252.677,0.004017379994408321,0.004017379994408321
252.678,0.010545349965984885,0.010545349965984885
252.679,0.023921401037889867,0.023921401037889867
252.68,0.043270367274437005,0.043270367274437005
252.681,0.06627175894418369,0.06627175894418369
252.682,0.08950629385616127,0.08950629385616127
252.683,0.10914886280273817,0.10914886280273817
252.684,0.1218477994433016,0.1218477994433016
252.685,0.12556145828078713,0.12556145828078713
252.686,0.12011607418767523,0.12011607418767523
252.687,0.10731084334585517,0.10731084334585517
252.688,0.09051395732300582,0.09051395732300582
252.689,0.07383565276344628,0.07383565276344628
252.69,0.06108997138778505,0.06108997138778505
252.691,0.054826783111886046,0.054826783111886046
252.692,0.05570529513167366,0.05570529513167366
252.693,0.062388801657518034,0.062388801657518034
252.694,0.07199219303186122,0.07199219303186122
252.695,0.08095215000408018,0.08095215000408018
252.696,0.0860645159244029,0.0860645159244029
252.697,0.08538398022692917,0.08538398022692917
252.698,0.07872486093317899,0.07872486093317899
252.699,0.06762602864519174,0.06762602864519174
252.7,0.05480923656417436,0.05480923656417436
252.701,0.043315480302905884,0.043315480302905884
252.702,0.035598656496496295,0.035598656496496295
252.703,0.032859485988500525,0.032859485988500525
252.704,0.03481516431574838,0.03481516431574838
252.705,0.03995157804303817,0.03995157804303817
252.706,0.046145558395327635,0.046145558395327635
252.707,0.051428081147474325,0.051428081147474325
252.708,0.05462391286153734,0.05462391286153734
252.709,0.05565891916019394,0.05565891916019394
252.71,0.05545139633859009,0.05545139633859009
252.711,0.05545286238150915,0.05545286238150915
252.712,0.05702372552279811,0.05702372552279811
252.713,0.06087852361911894,0.06087852361911894
252.714,0.06679855970764548,0.06679855970764548
252.715,0.07370274369867702,0.07370274369867702
252.716,0.08003151276627207,0.08003151276627207
252.717,0.08428488276732615,0.08428488276732615
252.718,0.08550585014596734,0.08550585014596734
252.719,0.08353168558644253,0.08353168558644253
252.72,0.0789343135135312,0.0789343135135312
252.721,0.07269750540173825,0.07269750540173825
252.722,0.06578304115901323,0.06578304115901323
252.723,0.058778987664894755,0.058778987664894755
252.724,0.05178422780097125,0.05178422780097125
252.725,0.044579297788779115,0.044579297788779115
252.726,0.03700566801365501,0.03700566801365501
252.727,0.029375753860035658,0.029375753860035658
252.728,0.022706680575287574,0.022706680575287574
252.729,0.018628172890095884,0.018628172890095884
252.73,0.018941035546174545,0.018941035546174545
252.731,0.024951235562751917,0.024951235562751917
252.732,0.03681750522132465,0.03681750522132465
252.733,0.053179707068653714,0.053179707068653714
252.734,0.07126218505909665,0.07126218505909665
252.735,0.08749026960546558,0.08749026960546558
252.736,0.09847125873172247,0.09847125873172247
252.737,0.10204102835870676,0.10204102835870676
252.738,0.09802234170261404,0.09802234170261404
252.739,0.08840821108408847,0.08840821108408847
252.74,0.076857818055867,0.076857818055867
252.741,0.06761869364784556,0.06761869364784556
252.742,0.06419078637152942,0.06419078637152942
252.743,0.06815416933091312,0.06815416933091312
252.744,0.07855121293053946,0.07855121293053946
252.745,0.09205069816381117,0.09205069816381117
252.746,0.10387590519004863,0.10387590519004863
252.747,0.10923103934549205,0.10923103934549205
252.748,0.10479298322376573,0.10479298322376573
252.749,0.08980526424475843,0.08980526424475843
252.75,0.06642996611943475,0.06642996611943475
252.751,0.03924312702324895,0.03924312702324895
252.752,0.014025068265723473,0.014025068265723473
252.753,0.003787400853266343,-0.003787400853266343
252.754,0.01052377966723217,-0.01052377966723217
252.755,0.005166180969196965,-0.005166180969196965
252.756,0.010533671434647784,0.010533671434647784
252.757,0.032695716663576846,0.032695716663576846
252.758,0.05647212964306192,0.05647212964306192
252.759,0.07734867988967276,0.07734867988967276
252.76,0.09219712433061367,0.09219712433061367
252.761,0.0998013178305206,0.0998013178305206
252.762,0.10077045562334841,0.10077045562334841
252.763,0.09695335438446451,0.09695335438446451
252.764,0.09061095003332165,0.09061095003332165
252.765,0.08364764991818086,0.08364764991818086
252.766,0.07714066914097795,0.07714066914097795
252.767,0.07127141923509406,0.07127141923509406
252.768,0.06560866651404429,0.06560866651404429
252.769,0.05957570563867942,0.05957570563867942
252.77,0.05289106242751851,0.05289106242751851
252.771,0.04581161530656308,0.04581161530656308
252.772,0.03910518640073213,0.03910518640073213
252.773,0.0337937280858438,0.0337937280858438
252.774,0.03079341286304227,0.03079341286304227
252.775,0.03060457306664044,0.03060457306664044
252.776,0.033168150641450955,0.033168150641450955
252.777,0.03792668295755375,0.03792668295755375
252.778,0.044042401667457654,0.044042401667457654
252.779,0.0506680095367662,0.0506680095367662
252.78,0.05715791631497669,0.05715791631497669
252.781,0.06314797042454567,0.06314797042454567
252.782,0.06849870654254664,0.06849870654254664
252.783,0.07315948489633706,0.07315948489633706
252.784,0.07704108141545585,0.07704108141545585
252.785,0.07997031961220857,0.07997031961220857
252.786,0.0817505822512381,0.0817505822512381
252.787,0.08229112007548212,0.08229112007548212
252.788,0.0817257055470959,0.0817257055470959
252.789,0.08043877437343094,0.08043877437343094
252.79,0.07895795308673081,0.07895795308673081
252.791,0.07773870413504036,0.07773870413504036
252.792,0.0769292410450435,0.0769292410450435
252.793,0.07623110173793113,0.07623110173793113
252.794,0.07494569944414198,0.07494569944414198
252.795,0.07222509542500344,0.07222509542500344
252.796,0.0674533892793725,0.0674533892793725
252.797,0.06061259123299645,0.06061259123299645
252.798,0.05246856533914479,0.05246856533914479
252.799,0.04446383899577766,0.04446383899577766
252.8,0.03831175386157648,0.03831175386157648
252.801,0.03541196944287206,0.03541196944287206
252.802,0.03630006946441244,0.03630006946441244
252.803,0.040361083005048703,0.040361083005048703
252.804,0.0459614788656213,0.0459614788656213
252.805,0.0510057453661199,0.0510057453661199
252.806,0.05375290422666734,0.05375290422666734
252.807,0.05360078290526071,0.05360078290526071
252.808,0.05151735336359864,0.05151735336359864
252.809,0.04989204768663358,0.04989204768663358
252.81,0.05177390825187245,0.05177390825187245
252.811,0.05969506836639926,0.05969506836639926
252.812,0.0744638502847843,0.0744638502847843
252.813,0.09437691287121108,0.09437691287121108
252.814,0.11520711984492893,0.11520711984492893
252.815,0.13109052294594536,0.13109052294594536
252.816,0.1361323314428997,0.1361323314428997
252.817,0.12627979828093738,0.12627979828093738
252.818,0.10086863686667846,0.10086863686667846
252.819,0.06329946077796933,0.06329946077796933
252.82,0.020539711461680543,0.020539711461680543
252.821,0.018493503042121717,-0.018493503042121717
252.822,0.04524756332328039,-0.04524756332328039
252.823,0.053873276666430825,-0.053873276666430825
252.824,0.04287293125045355,-0.04287293125045355
252.825,0.01552939268632958,-0.01552939268632958
252.826,0.021045664129593078,0.021045664129593078
252.827,0.05797594708762155,0.05797594708762155
252.828,0.08717377730348175,0.08717377730348175
252.829,0.10359774567222879,0.10359774567222879
252.83,0.10651929352776457,0.10651929352776457
252.831,0.09941673840217269,0.09941673840217269
252.832,0.08855385489074652,0.08855385489074652
252.833,0.08072062123355384,0.08072062123355384
252.834,0.08087850892719106,0.08087850892719106
252.835,0.09047512548654191,0.09047512548654191
252.836,0.10696663509422333,0.10696663509422333
252.837,0.1246869519447047,0.1246869519447047
252.838,0.13676270657653178,0.13676270657653178
252.839,0.1374370837194807,0.1374370837194807
252.84,0.124042340611064,0.124042340611064
252.841,0.09798682947142812,0.09798682947142812
252.842,0.06445143990777824,0.06445143990777824
252.843,0.03091034787296021,0.03091034787296021
252.844,0.004962435229996398,0.004962435229996398
252.845,0.007836735504171077,-0.007836735504171077
252.846,0.005477288366254163,-0.005477288366254163
252.847,0.01009725598773814,0.01009725598773814
252.848,0.03374438603464691,0.03374438603464691
252.849,0.05874300742683847,0.05874300742683847
252.85,0.07873616882874668,0.07873616882874668
252.851,0.08939419610513699,0.08939419610513699
252.852,0.08933371589759087,0.08933371589759087
252.853,0.08010181377621128,0.08010181377621128
252.854,0.06534390438994708,0.06534390438994708
252.855,0.04951342580423823,0.04951342580423823
252.856,0.03657780827260049,0.03657780827260049
252.857,0.029110119495992626,0.029110119495992626
252.858,0.027968782616691223,0.027968782616691223
252.859,0.03253762636632662,0.03253762636632662
252.86,0.04131223912803472,0.04131223912803472
252.861,0.05253901158651253,0.05253901158651253
252.862,0.06465762515459361,0.06465762515459361
252.863,0.07643449751366638,0.07643449751366638
252.864,0.0868387649913529,0.0868387649913529
252.865,0.09483257752484331,0.09483257752484331
252.866,0.09927502710764613,0.09927502710764613
252.867,0.09906625504056743,0.09906625504056743
252.868,0.09352053090327517,0.09352053090327517
252.869,0.08281743527127561,0.08281743527127561
252.87,0.06830323852055309,0.06830323852055309
252.871,0.05243930165036059,0.05243930165036059
252.872,0.038317770766349124,0.038317770766349124
252.873,0.028841607039509665,0.028841607039509665
252.874,0.02582526830456655,0.02582526830456655
252.875,0.02934549223625771,0.02934549223625771
252.876,0.037619946991596986,0.037619946991596986
252.877,0.047523466588530905,0.047523466588530905
252.878,0.055622297848898716,0.055622297848898716
252.879,0.05939949920284904,0.05939949920284904
252.88,0.05824046695870977,0.05824046695870977
252.881,0.05379454241263382,0.05379454241263382
252.882,0.0495216112905299,0.0495216112905299
252.883,0.04951192974937135,0.04951192974937135
252.884,0.056937811054592835,0.056937811054592835
252.885,0.07265907760160806,0.07265907760160806
252.886,0.09449454859300932,0.09449454859300932
252.887,0.11748122063019295,0.11748122063019295
252.888,0.13512658512943587,0.13512658512943587
252.889,0.14132003060252352,0.14132003060252352
252.89,0.13232207104194305,0.13232207104194305
252.891,0.10818448491817123,0.10818448491817123
252.892,0.07310149553465939,0.07310149553465939
252.893,0.03451214486975007,0.03451214486975007
252.894,0.0011675519939993162,0.0011675519939993162
252.895,0.019283575363129524,-0.019283575363129524
252.896,0.022465250643401435,-0.022465250643401435
252.897,0.008529933631309272,-0.008529933631309272
252.898,0.01789983775893611,0.01789983775893611
252.899,0.04910058709024945,0.04910058709024945
252.9,0.07651743702587588,0.07651743702587588
252.901,0.09324294933370769,0.09324294933370769
252.902,0.09595045704098681,0.09595045704098681
252.903,0.08570134889627279,0.08570134889627279
252.904,0.0674022464199997,0.0674022464199997
252.905,0.048112251023543884,0.048112251023543884
252.906,0.034756539691633836,0.034756539691633836
252.907,0.031977351380923835,0.031977351380923835
252.908,0.04079287459513492,0.04079287459513492
252.909,0.058461072436817973,0.058461072436817973
252.91,0.0795498780433701,0.0795498780433701
252.911,0.09782671913098406,0.09782671913098406
252.912,0.10832446532045736,0.10832446532045736
252.913,0.10889873347474555,0.10889873347474555
252.914,0.10077391775879319,0.10077391775879319
252.915,0.08792015641802875,0.08792015641802875
252.916,0.07549629242543943,0.07549629242543943
252.917,0.0679055968666833,0.0679055968666833
252.918,0.06713969759133209,0.06713969759133209
252.919,0.07198994710854856,0.07198994710854856
252.92,0.0784158418785934,0.0784158418785934
252.921,0.08097144755237373,0.08097144755237373
252.922,0.07482983450562086,0.07482983450562086
252.923,0.05773060598660695,0.05773060598660695
252.924,0.03117862049304798,0.03117862049304798
252.925,0.0004453334831819866,0.0004453334831819866
252.926,0.026700423775076976,-0.026700423775076976
252.927,0.042195489393908825,-0.042195489393908825
252.928,0.040168029990565124,-0.040168029990565124
252.929,0.018937140431269817,-0.018937140431269817
252.93,0.01812168449500806,0.01812168449500806
252.931,0.06316736433671477,0.06316736433671477
252.932,0.10582829447206654,0.10582829447206654
252.933,0.13595891476059374,0.13595891476059374
252.934,0.14643402603705358,0.14643402603705358
252.935,0.13516753629766853,0.13516753629766853
252.936,0.10575622383737482,0.10575622383737482
252.937,0.06654457690419102,0.06654457690419102
252.938,0.02836643014992779,0.02836643014992779
252.939,0.001605509559719609,0.001605509559719609
252.94,0.006585778035243961,-0.006585778035243961
252.941,0.0058789573603297285,0.0058789573603297285
252.942,0.0356365039771791,0.0356365039771791
252.943,0.07501574650656839,0.07501574650656839
252.944,0.11433158052948889,0.11433158052948889
252.945,0.14462847600528517,0.14462847600528517
252.946,0.16005751346751595,0.16005751346751595
252.947,0.15920485918812965,0.15920485918812965
252.948,0.14502750248394092,0.14502750248394092
252.949,0.12348744050781746,0.12348744050781746
252.95,0.10137290731990212,0.10137290731990212
252.951,0.08403202539141308,0.08403202539141308
252.952,0.07374862898713452,0.07374862898713452
252.953,0.06926341630688615,0.06926341630688615
252.954,0.06656016266887343,0.06656016266887343
252.955,0.06061990351848667,0.06061990351848667
252.956,0.04752948216511976,0.04752948216511976
252.957,0.026216178258691603,0.026216178258691603
252.958,0.0007958322286751862,-0.0007958322286751862
252.959,0.027888515590002716,-0.027888515590002716
252.96,0.04797620558689031,-0.04797620558689031
252.961,0.05474173883318134,-0.05474173883318134
252.962,0.04475616270293026,-0.04475616270293026
252.963,0.018777678587137303,-0.018777678587137303
252.964,0.01822185005271426,0.01822185005271426
252.965,0.05835043220162439,0.05835043220162439
252.966,0.09303091733457824,0.09303091733457824
252.967,0.11548829798983884,0.11548829798983884
252.968,0.1227074332157192,0.1227074332157192
252.969,0.11623677675545574,0.11623677675545574
252.97,0.1015735837267624,0.1015735837267624
252.971,0.08631463972479692,0.08631463972479692
252.972,0.07765052267047756,0.07765052267047756
252.973,0.07999400300134973,0.07999400300134973
252.974,0.09349521102677438,0.09349521102677438
252.975,0.1139186461515107,0.1139186461515107
252.976,0.13392790923669762,0.13392790923669762
252.977,0.14537990156601,0.14537990156601
252.978,0.1419125802466994,0.1419125802466994
252.979,0.1210197937724955,0.1210197937724955
252.98,0.08497075566844337,0.08497075566844337
252.981,0.04029628301703658,0.04029628301703658
252.982,0.003988634863543616,-0.003988634863543616
252.983,0.0388688701535268,-0.0388688701535268
252.984,0.05775684099746725,-0.05775684099746725
252.985,0.058138273808386653,-0.058138273808386653
252.986,0.04197379340292884,-0.04197379340292884
252.987,0.014794081714795793,-0.014794081714795793
252.988,0.01616793364912783,0.01616793364912783
252.989,0.04418224870849885,0.04418224870849885
252.99,0.06486590022078143,0.06486590022078143
252.991,0.07711972803564637,0.07711972803564637
252.992,0.08293074385112753,0.08293074385112753
252.993,0.0861895098829275,0.0861895098829275
252.994,0.09098102702828381,0.09098102702828381
252.995,0.09995170110674301,0.09995170110674301
252.996,0.11329441527166995,0.11329441527166995
252.997,0.1286580872346148,0.1286580872346148
252.998,0.1419635387229652,0.1419635387229652
252.999,0.14880606378187866,0.14880606378187866
253.0,0.1459460893816107,0.1459460893816107
253.001,0.13238658871497422,0.13238658871497422
253.002,0.10970143430270962,0.10970143430270962
253.003,0.08154811887097368,0.08154811887097368
253.004,0.05257445939571381,0.05257445939571381
253.005,0.02711748100791933,0.02711748100791933
253.006,0.008133711512066988,0.008133711512066988
253.007,0.003312466113727708,-0.003312466113727708
253.008,0.007894273607071955,-0.007894273607071955
253.009,0.007335535229673562,-0.007335535229673562
253.01,0.003503031788782751,-0.003503031788782751
253.011,0.0023562586532726026,0.0023562586532726026
253.012,0.009951665140323307,0.009951665140323307
253.013,0.01976282317603606,0.01976282317603606
253.014,0.03244846215013131,0.03244846215013131
253.015,0.04812830876938379,0.04812830876938379
253.016,0.06586528043279682,0.06586528043279682
253.017,0.08359481491965415,0.08359481491965415
253.018,0.09857005741547331,0.09857005741547331
253.019,0.10818348851236115,0.10818348851236115
253.02,0.11086653038506222,0.11086653038506222
253.021,0.10672002706324402,0.10672002706324402
253.022,0.09761116493221156,0.09761116493221156
253.023,0.08665888025912638,0.08665888025912638
253.024,0.07725369257416159,0.07725369257416159
253.025,0.0719375669422122,0.0719375669422122
253.026,0.07153736601547833,0.07153736601547833
253.027,0.07487305731076921,0.07487305731076921
253.028,0.07917037802442684,0.07917037802442684
253.029,0.0810617921876613,0.0810617921876613
253.03,0.07784525440803014,0.07784525440803014
253.031,0.06856474455914996,0.06856474455914996
253.032,0.0545207720453984,0.0545207720453984
253.033,0.03900259276111462,0.03900259276111462
253.034,0.026297216232572307,0.026297216232572307
253.035,0.020284407696728124,0.020284407696728124
253.036,0.02308350455538921,0.02308350455538921
253.037,0.034219859192854196,0.034219859192854196
253.038,0.050620525866656996,0.050620525866656996
253.039,0.06747947594050796,0.06747947594050796
253.04,0.07974030007801525,0.07974030007801525
253.041,0.0837272048203268,0.0837272048203268
253.042,0.07838834562537267,0.07838834562537267
253.043,0.06572563241783236,0.06572563241783236
253.044,0.05024001481091811,0.05024001481091811
253.045,0.037539902904996314,0.037539902904996314
253.046,0.03253898918440612,0.03253898918440612
253.047,0.037815719156159444,0.037815719156159444
253.048,0.05266941577989259,0.05266941577989259
253.049,0.073196248564811,0.073196248564811
253.05,0.09338769260394142,0.09338769260394142
253.051,0.10692701178352104,0.10692701178352104
253.052,0.10913117425071706,0.10913117425071706
253.053,0.09843109663890459,0.09843109663890459
253.054,0.0769214636737452,0.0769214636737452
253.055,0.04979985057290115,0.04979985057290115
253.056,0.023862259859004364,0.023862259859004364
253.057,0.005517980362075958,0.005517980362075958
253.058,0.0010633464190155095,-0.0010633464190155095
253.059,0.004896933576466811,0.004896933576466811
253.06,0.020683355866846886,0.020683355866846886
253.061,0.04104739184002226,0.04104739184002226
253.062,0.05991568717931006,0.05991568717931006
253.063,0.0722988397785298,0.0722988397785298
253.064,0.07579970590547136,0.07579970590547136
253.065,0.07125650638651915,0.07125650638651915
253.066,0.06233726936658801,0.06233726936658801
253.067,0.05423690936819181,0.05423690936819181
253.068,0.05190907647055987,0.05190907647055987
253.069,0.058403182677943644,0.058403182677943644
253.07,0.0738311979466002,0.0738311979466002
253.071,0.09527722715476616,0.09527722715476616
253.072,0.11765687690914572,0.11765687690914572
253.073,0.1352333886779844,0.1352333886779844
253.074,0.14329976467534733,0.14329976467534733
253.075,0.13950155583254586,0.13950155583254586
253.076,0.12440987885740173,0.12440987885740173
253.077,0.10120923764691314,0.10120923764691314
253.078,0.07465234192848835,0.07465234192848835
253.079,0.04965854043963569,0.04965854043963569
253.08,0.03002177896808189,0.03002177896808189
253.081,0.01762374453620552,0.01762374453620552
253.082,0.012348445077200232,0.012348445077200232
253.083,0.012639601012928381,0.012639601012928381
253.084,0.016422753217144148,0.016422753217144148
253.085,0.0220061238354885,0.0220061238354885
253.086,0.02861305233708622,0.02861305233708622
253.087,0.036366175993480354,0.036366175993480354
253.088,0.04577491898895958,0.04577491898895958
253.089,0.05698554642460829,0.05698554642460829
253.09,0.06915766503144138,0.06915766503144138
253.091,0.08029063666325786,0.08029063666325786
253.092,0.08764938083100748,0.08764938083100748
253.093,0.08869353026552718,0.08869353026552718
253.094,0.08218830715243719,0.08218830715243719
253.095,0.06905815116730962,0.06905815116730962
253.096,0.05258777248839608,0.05258777248839608
253.097,0.03777602803114144,0.03777602803114144
253.098,0.0299437660974764,0.0299437660974764
253.099,0.032986533593581946,0.032986533593581946
253.1,0.04784084323004811,0.04784084323004811
253.101,0.07172517141624435,0.07172517141624435
253.102,0.09851111051225026,0.09851111051225026
253.103,0.12023189841325244,0.12023189841325244
253.104,0.12935396987529346,0.12935396987529346
253.105,0.12114999648184699,0.12114999648184699
253.106,0.09542280039611395,0.09542280039611395
253.107,0.05698151630828563,0.05698151630828563
253.108,0.014628995239607923,0.014628995239607923
253.109,0.021123116646036166,-0.021123116646036166
253.11,0.04098202027688291,-0.04098202027688291
253.111,0.039581771016203526,-0.039581771016203526
253.112,0.017139847912838957,-0.017139847912838957
253.113,0.020475272385196863,0.020475272385196863
253.114,0.06333015303697764,0.06333015303697764
253.115,0.10022423474520714,0.10022423474520714
253.116,0.12187753848325933,0.12187753848325933
253.117,0.12355534975085791,0.12355534975085791
253.118,0.10634068960946697,0.10634068960946697
253.119,0.07667577751663002,0.07667577751663002
253.12,0.044323678590088234,0.044323678590088234
253.121,0.01938468481594846,0.01938468481594846
253.122,0.009286555979273414,0.009286555979273414
253.123,0.016664406651972996,0.016664406651972996
253.124,0.038757361252258704,0.038757361252258704
253.125,0.06846846291514841,0.06846846291514841
253.126,0.0967154806066084,0.0967154806066084
253.127,0.11530760770013648,0.11530760770013648
253.128,0.11943869808448615,0.11943869808448615
253.129,0.1090327184052482,0.1090327184052482
253.13,0.08855946267922499,0.08855946267922499
253.131,0.06543136720137,0.06543136720137
253.132,0.04753594977905773,0.04753594977905773
253.133,0.040712924884444446,0.040712924884444446
253.134,0.04697459924854397,0.04697459924854397
253.135,0.06400408428804849,0.06400408428804849
253.136,0.0860407500811986,0.0860407500811986
253.137,0.10581776242965324,0.10581776242965324
253.138,0.11689573721831192,0.11689573721831192
253.139,0.11563793148792523,0.11563793148792523
253.14,0.10221909339670332,0.10221909339670332
253.141,0.08039505567478944,0.08039505567478944
253.142,0.05616762324421565,0.05616762324421565
253.143,0.03582474729373808,0.03582474729373808
253.144,0.024010684273672034,0.024010684273672034
253.145,0.022436312699594563,0.022436312699594563
253.146,0.029600996636575116,0.029600996636575116
253.147,0.04155136193426778,0.04155136193426778
253.148,0.05336684185587104,0.05336684185587104
253.149,0.06084532895488981,0.06084532895488981
253.15,0.06182884897558916,0.06182884897558916
253.151,0.05675979821615984,0.05675979821615984
253.152,0.04833369094545037,0.04833369094545037
253.153,0.040417702715865866,0.040417702715865866
253.154,0.0366349717562382,0.0366349717562382
253.155,0.03910150634154763,0.03910150634154763
253.156,0.047725627328128795,0.047725627328128795
253.157,0.06027380642127489,0.06027380642127489
253.158,0.07314621137342203,0.07314621137342203
253.159,0.08257801553432076,0.08257801553432076
253.16,0.08585996343717284,0.08585996343717284
253.161,0.0821866544750296,0.0821866544750296
253.162,0.07287980365275648,0.07287980365275648
253.163,0.06094386801107987,0.06094386801107987
253.164,0.05012144401217444,0.05012144401217444
253.165,0.04375978737599895,0.04375978737599895
253.166,0.043837867037780365,0.043837867037780365
253.167,0.0504322921583209,0.0504322921583209
253.168,0.06175127484416154,0.06175127484416154
253.169,0.07469075442846496,0.07469075442846496
253.17,0.08572085960045817,0.08572085960045817
253.171,0.09183430170533313,0.09183430170533313
253.172,0.0912959456595237,0.0912959456595237
253.173,0.08401272063436882,0.08401272063436882
253.174,0.07146354697858204,0.07146354697858204
253.175,0.05625098875944867,0.05625098875944867
253.176,0.04142611775213578,0.04142611775213578
253.177,0.029776164298599195,0.029776164298599195
253.178,0.0232489574150736,0.0232489574150736
253.179,0.022631688889565682,0.022631688889565682
253.18,0.027525182427155848,0.027525182427155848
253.181,0.036580445108354676,0.036580445108354676
253.182,0.04790870249592283,0.04790870249592283
253.183,0.05954847351335868,0.05954847351335868
253.184,0.06987492655872507,0.06987492655872507
253.185,0.07786333147454827,0.07786333147454827
253.186,0.08316187274890097,0.08316187274890097
253.187,0.08597959699594515,0.08597959699594515
253.188,0.08684229970313972,0.08684229970313972
253.189,0.08630242134635524,0.08630242134635524
253.19,0.08469993892996053,0.08469993892996053
253.191,0.0820551333407551,0.0820551333407551
253.192,0.07813261099514879,0.07813261099514879
253.193,0.07265837108229589,0.07265837108229589
253.194,0.06561415195968356,0.06561415195968356
253.195,0.057494915742722696,0.057494915742722696
253.196,0.049412280556909716,0.049412280556909716
253.197,0.04296563500829831,0.04296563500829831
253.198,0.03987637880534356,0.03987637880534356
253.199,0.04146823826554291,0.04146823826554291
253.2,0.048148446488291086,0.048148446488291086
253.201,0.059072333086044315,0.059072333086044315
253.202,0.07214084180740632,0.07214084180740632
253.203,0.08438963179339387,0.08438963179339387
253.204,0.09270399040834665,0.09270399040834665
253.205,0.0946753356051353,0.0946753356051353
253.206,0.08934493087602258,0.08934493087602258
253.207,0.07758864703172752,0.07758864703172752
253.208,0.06198879573627747,0.06198879573627747
253.209,0.046191824797367165,0.046191824797367165
253.21,0.03391712540613656,0.03391712540613656
253.211,0.0279065646032568,0.0279065646032568
253.212,0.029140958072514378,0.029140958072514378
253.213,0.03657994905830697,0.03657994905830697
253.214,0.047522673057701637,0.047522673057701637
253.215,0.05848719529912905,0.05848719529912905
253.216,0.06633282090628434,0.06633282090628434
253.217,0.06926145688091911,0.06926145688091911
253.218,0.0673658753086781,0.0673658753086781
253.219,0.06253768446463837,0.06253768446463837
253.22,0.05776024872322538,0.05776024872322538
253.221,0.05602082818724652,0.05602082818724652
253.222,0.05920979364312018,0.05920979364312018
253.223,0.0673849475106234,0.0673849475106234
253.224,0.07865945879481995,0.07865945879481995
253.225,0.0897614922331107,0.0897614922331107
253.226,0.09708367589114175,0.09708367589114175
253.227,0.09787072225746951,0.09787072225746951
253.228,0.09114370921719095,0.09114370921719095
253.229,0.07804839382548145,0.07804839382548145
253.23,0.06151254535030071,0.06151254535030071
253.231,0.04533499308067834,0.04533499308067834
253.232,0.033023385284814966,0.033023385284814966
253.233,0.026779780017090138,0.026779780017090138
253.234,0.026973870588201665,0.026973870588201665
253.235,0.03226406495233225,0.03226406495233225
253.236,0.040291335102543346,0.040291335102543346
253.237,0.04866481769180364,0.04866481769180364
253.238,0.05585663200418023,0.05585663200418023
253.239,0.06166392796114484,0.06166392796114484
253.24,0.06706483102165817,0.06706483102165817
253.241,0.07353052803345905,0.07353052803345905
253.242,0.08207145762623314,0.08207145762623314
253.243,0.09241037944564146,0.09241037944564146
253.244,0.10264346764749166,0.10264346764749166
253.245,0.10957989461715023,0.10957989461715023
253.246,0.10969941775123249,0.10969941775123249
253.247,0.10042617549597943,0.10042617549597943
253.248,0.08127434700053326,0.08127434700053326
253.249,0.054433515578980796,0.054433515578980796
253.25,0.02453034323596115,0.02453034323596115
253.251,0.002425740543843924,-0.002425740543843924
253.252,0.02062394723931249,-0.02062394723931249
253.253,0.02607871044930643,-0.02607871044930643
253.254,0.017784233836312446,-0.017784233836312446
253.255,0.001981730600579379,0.001981730600579379
253.256,0.028315353688373124,0.028315353688373124
253.257,0.055107131571857426,0.055107131571857426
253.258,0.07678144085951222,0.07678144085951222
253.259,0.08981197338540503,0.08981197338540503
253.26,0.09354912524395886,0.09354912524395886
253.261,0.0901255965784793,0.0901255965784793
253.262,0.0835086545191237,0.0835086545191237
253.263,0.0780396916160726,0.0780396916160726
253.264,0.07695394222865759,0.07695394222865759
253.265,0.08135822847203711,0.08135822847203711
253.266,0.08997299690797966,0.08997299690797966
253.267,0.09967996317831807,0.09967996317831807
253.268,0.10665103738627146,0.10665103738627146
253.269,0.10765697252641004,0.10765697252641004
253.27,0.10112036814396985,0.10112036814396985
253.271,0.08759057072738963,0.08759057072738963
253.272,0.06953043080408183,0.06953043080408183
253.273,0.05053801463835961,0.05053801463835961
253.274,0.03429913167614873,0.03429913167614873
253.275,0.023624272548271152,0.023624272548271152
253.276,0.019855926060543982,0.019855926060543982
253.277,0.022774245135727123,0.022774245135727123
253.278,0.03094541881136692,0.03094541881136692
253.279,0.04231673631080213,0.04231673631080213
253.28,0.05481230789109626,0.05481230789109626
253.281,0.06673275075057439,0.06673275075057439
253.282,0.07688073070468393,0.07688073070468393
253.283,0.08446687997972702,0.08446687997972702
253.284,0.08894029302236328,0.08894029302236328
253.285,0.08989886172915451,0.08989886172915451
253.286,0.08716670610246968,0.08716670610246968
253.287,0.08101302763783513,0.08101302763783513
253.288,0.072382808388739,0.072382808388739
253.289,0.06296573189237109,0.06296573189237109
253.29,0.054971379789488184,0.054971379789488184
253.291,0.050595118357815716,0.050595118357815716
253.292,0.051305162241107594,0.051305162241107594
253.293,0.0571952711246686,0.0571952711246686
253.294,0.06667549450391053,0.06667549450391053
253.295,0.07669215411361407,0.07669215411361407
253.296,0.08349711800854842,0.08349711800854842
253.297,0.08378261468586512,0.08378261468586512
253.298,0.07583687651554727,0.07583687651554727
253.299,0.060323607622054576,0.060323607622054576
253.3,0.04037486235801602,0.04037486235801602
253.301,0.02089316007233233,0.02089316007233233
253.302,0.007219832755539279,0.007219832755539279
253.303,0.003553624155170576,0.003553624155170576
253.304,0.011614133388703207,0.011614133388703207
253.305,0.029993397411924638,0.029993397411924638
253.306,0.05443516626534439,0.05443516626534439
253.307,0.07898844689650897,0.07898844689650897
253.308,0.09769628894307769,0.09769628894307769
253.309,0.10629971008309957,0.10629971008309957
253.31,0.10342386020660843,0.10342386020660843
253.311,0.09087641415531067,0.09087641415531067
253.312,0.0729742410873726,0.0729742410873726
253.313,0.055128501000136554,0.055128501000136554
253.314,0.04215514733131265,0.04215514733131265
253.315,0.03685808728239337,0.03685808728239337
253.316,0.03933008128167348,0.03933008128167348
253.317,0.04716821137078031,0.04716821137078031
253.318,0.056492248610414464,0.056492248610414464
253.319,0.06339089377500429,0.06339089377500429
253.32,0.06529108066586597,0.06529108066586597
253.321,0.061790463583472954,0.061790463583472954
253.322,0.05469318146825519,0.05469318146825519
253.323,0.047271310693223656,0.047271310693223656
253.324,0.043039577664030215,0.043039577664030215
253.325,0.0444877259188694,0.0444877259188694
253.326,0.05221221741831328,0.05221221741831328
253.327,0.06473251510973732,0.06473251510973732
253.328,0.07902657993176687,0.07902657993176687
253.329,0.09156651023423246,0.09156651023423246
253.33,0.0994682368194777,0.0994682368194777
253.331,0.10134558535157567,0.10134558535157567
253.332,0.09758308159716655,0.09758308159716655
253.333,0.08996497662892078,0.08996497662892078
253.334,0.08083701013393774,0.08083701013393774
253.335,0.0721451995942839,0.0721451995942839
253.336,0.0647324367216251,0.0647324367216251
253.337,0.05816721891550514,0.05816721891550514
253.338,0.051169691963744324,0.051169691963744324
253.339,0.04246553773402262,0.04246553773402262
253.34,0.031724334520937925,0.031724334520937925
253.341,0.020190253048947726,0.020190253048947726
253.342,0.010709089083514867,0.010709089083514867
253.343,0.007064908496527966,0.007064908496527966
253.344,0.012789942965184542,0.012789942965184542
253.345,0.029815672259627668,0.029815672259627668
253.346,0.05741917053782242,0.05741917053782242
253.347,0.09185439903771941,0.09185439903771941
253.348,0.12686131879203222,0.12686131879203222
253.349,0.15497865256094023,0.15497865256094023
253.35,0.1693339938681926,0.1693339938681926
253.351,0.16542763163578766,0.16542763163578766
253.352,0.14241282599648897,0.14241282599648897
253.353,0.10350842506943247,0.10350842506943247
253.354,0.055417467983181146,0.055417467983181146
253.355,0.006895281643708007,0.006895281643708007
253.356,0.033166468380125824,-0.033166468380125824
253.357,0.057658383422700354,-0.057658383422700354
253.358,0.06271230028043151,-0.06271230028043151
253.359,0.048377256005143865,-0.048377256005143865
253.36,0.018401074775545312,-0.018401074775545312
253.361,0.020771331899063883,0.020771331899063883
253.362,0.06149766682763613,0.06149766682763613
253.363,0.09656348946293414,0.09656348946293414
253.364,0.12057105299432958,0.12057105299432958
253.365,0.13082195507477246,0.13082195507477246
253.366,0.12756375295671374,0.12756375295671374
253.367,0.11361900978126749,0.11361900978126749
253.368,0.09353836185991526,0.09353836185991526
253.369,0.07249633720290793,0.07249633720290793
253.37,0.05517334049393874,0.05517334049393874
253.371,0.04484442247019382,0.04484442247019382
253.372,0.04283671287281998,0.04283671287281998
253.373,0.048436435012521706,0.048436435012521706
253.374,0.059236749995285054,0.059236749995285054
253.375,0.07183226259029762,0.07183226259029762
253.376,0.08269777333880857,0.08269777333880857
253.377,0.0890504026594674,0.0890504026594674
253.378,0.08949584538898492,0.08949584538898492
253.379,0.08430563227063903,0.08430563227063903
253.38,0.07525766471423512,0.07525766471423512
253.381,0.06508041834069633,0.06508041834069633
253.382,0.056646211013734016,0.056646211013734016
253.383,0.0521316479172349,0.0521316479172349
253.384,0.05238007383605403,0.05238007383605403
253.385,0.056651861769870804,0.056651861769870804
253.386,0.06284302558465393,0.06284302558465393
253.387,0.06811864615176111,0.06811864615176111
253.388,0.06978375703415973,0.06978375703415973
253.389,0.06613888614189745,0.06613888614189745
253.39,0.05706555993131035,0.05706555993131035
253.391,0.044161874190833394,0.044161874190833394
253.392,0.030378744890486642,0.030378744890486642
253.393,0.019254528168441754,0.019254528168441754
253.394,0.013964256295433852,0.013964256295433852
253.395,0.016453291321820496,0.016453291321820496
253.396,0.02689777452284603,0.02689777452284603
253.397,0.04363554536100156,0.04363554536100156
253.398,0.06357318937255307,0.06357318937255307
253.399,0.08294099809890976,0.08294099809890976
253.4,0.0981783738347517,0.0981783738347517
253.401,0.1067120428179702,0.1067120428179702
253.402,0.10743952874994145,0.10743952874994145
253.403,0.10082948902613698,0.10082948902613698
253.404,0.08866361558818436,0.08866361558818436
253.405,0.07353555115774224,0.07353555115774224
253.406,0.058265510881588156,0.058265510881588156
253.407,0.045378578312169404,0.045378578312169404
253.408,0.03674258182660606,0.03674258182660606
253.409,0.033393199914125926,0.033393199914125926
253.41,0.03551656817182747,0.03551656817182747
253.411,0.042531751498182224,0.042531751498182224
253.412,0.05322081421951563,0.05322081421951563
253.413,0.06588197113605121,0.06588197113605121
253.414,0.07851186272414878,0.07851186272414878
253.415,0.08903742183790686,0.08903742183790686
253.416,0.09560639187564446,0.09560639187564446
253.417,0.09691225651567725,0.09691225651567725
253.418,0.09249007831148459,0.09249007831148459
253.419,0.08289546785809443,0.08289546785809443
253.42,0.06968618848278818,0.06968618848278818
253.421,0.055169033605320106,0.055169033605320106
253.422,0.04194257076565755,0.04194257076565755
253.423,0.032336074614385035,0.032336074614385035
253.424,0.02788989801299646,0.02788989801299646
253.425,0.02902304623701113,0.02902304623701113
253.426,0.03498548244561617,0.03498548244561617
253.427,0.04410933640612291,0.04410933640612291
253.428,0.054282123382821235,0.054282123382821235
253.429,0.06349776878435143,0.06349776878435143
253.43,0.07032153226819338,0.07032153226819338
253.431,0.07413994377031896,0.07413994377031896
253.432,0.07514395408044927,0.07514395408044927
253.433,0.07408467743281921,0.07408467743281921
253.434,0.07191337019345423,0.07191337019345423
253.435,0.06944503613166164,0.06944503613166164
253.436,0.06715975671980412,0.06715975671980412
253.437,0.06518933452680642,0.06518933452680642
253.438,0.06345667985173642,0.06345667985173642
253.439,0.061874115900346194,0.061874115900346194
253.44,0.06048909363823518,0.06048909363823518
253.441,0.059498524808849984,0.059498524808849984
253.442,0.0591219977959796,0.0591219977959796
253.443,0.05939981429247454,0.05939981429247454
253.444,0.06003040287238948,0.06003040287238948
253.445,0.06035936847285228,0.06035936847285228
253.446,0.05957560539401441,0.05957560539401441
253.447,0.05707795862391829,0.05707795862391829
253.448,0.05288501097601217,0.05288501097601217
253.449,0.04791013732269955,0.04791013732269955
253.45,0.04394104256140419,0.04394104256140419
253.451,0.04325028764630967,0.04325028764630967
253.452,0.04789582987068397,0.04789582987068397
253.453,0.05890280654983915,0.05890280654983915
253.454,0.07559906854754539,0.07559906854754539
253.455,0.09537028996830665,0.09537028996830665
253.456,0.11399736295032659,0.11399736295032659
253.457,0.126564862607895,0.126564862607895
253.458,0.12873791649924926,0.12873791649924926
253.459,0.11805993213440313,0.11805993213440313
253.46,0.09487851259202107,0.09487851259202107
253.461,0.06258465699404403,0.06258465699404403
253.462,0.027034374615331203,0.027034374615331203
253.463,0.004740714438971949,-0.004740714438971949
253.464,0.026209403296493128,-0.026209403296493128
253.465,0.03295074022074507,-0.03295074022074507
253.466,0.02374927227242085,-0.02374927227242085
253.467,0.0008666437937401295,-0.0008666437937401295
253.468,0.03058574346474896,0.03058574346474896
253.469,0.06399099093557425,0.06399099093557425
253.47,0.09290353982106758,0.09290353982106758
253.471,0.11258807365219536,0.11258807365219536
253.472,0.12100444048744552,0.12100444048744552
253.473,0.11899809763172775,0.11899809763172775
253.474,0.10969565082190069,0.10969565082190069
253.475,0.09733479746813556,0.09733479746813556
253.476,0.08590835585989609,0.08590835585989609
253.477,0.07803132547978264,0.07803132547978264
253.478,0.0743455773771533,0.0743455773771533
253.479,0.07359448451642381,0.07359448451642381
253.48,0.07329021989539575,0.07329021989539575
253.481,0.07072478593782128,0.07072478593782128
253.482,0.06399121415275633,0.06399121415275633
253.483,0.05270264379151124,0.05270264379151124
253.484,0.038209193944071185,0.038209193944071185
253.485,0.023274379836916825,0.023274379836916825
253.486,0.011331825034668785,0.011331825034668785
253.487,0.0055528737440773135,0.0055528737440773135
253.488,0.007989860254548287,0.007989860254548287
253.489,0.019017293337505015,0.019017293337505015
253.49,0.037195710970283846,0.037195710970283846
253.491,0.0595649068635522,0.0595649068635522
253.492,0.0822694052131796,0.0822694052131796
253.493,0.10135397335051022,0.10135397335051022
253.494,0.11354944215172957,0.11354944215172957
253.495,0.1168930956485017,0.1168930956485017
253.496,0.1110780727619669,0.1110780727619669
253.497,0.09748546824776683,0.09748546824776683
253.498,0.07890826569254861,0.07890826569254861
253.499,0.05902180534032686,0.05902180534032686
253.5,0.04169052268675455,0.04169052268675455
253.501,0.030226150615232594,0.030226150615232594
253.502,0.02672726375755663,0.02672726375755663
253.503,0.03162910559616727,0.03162910559616727
253.504,0.043569344996532866,0.043569344996532866
253.505,0.059625502244073925,0.059625502244073925
253.506,0.07590627248623694,0.07590627248623694
253.507,0.08839473966684297,0.08839473966684297
253.508,0.09386781027633995,0.09386781027633995
253.509,0.09067702896827612,0.09067702896827612
253.51,0.07918942843338983,0.07918942843338983
253.511,0.06175769048547397,0.06175769048547397
253.512,0.04220332092665746,0.04220332092665746
253.513,0.024925486761167903,0.024925486761167903
253.514,0.013854323049443451,0.013854323049443451
253.515,0.011517262604442191,0.011517262604442191
253.516,0.018461908358083257,0.018461908358083257
253.517,0.03318329593083269,0.03318329593083269
253.518,0.05256373960164051,0.05256373960164051
253.519,0.07269130520802847,0.07269130520802847
253.52,0.08982153580162566,0.08982153580162566
253.521,0.10121718326764606,0.10121718326764606
253.522,0.10565043830042953,0.10565043830042953
253.523,0.10346400395357325,0.10346400395357325
253.524,0.09622408638055036,0.09622408638055036
253.525,0.086115569379271,0.086115569379271
253.526,0.07529070952998751,0.07529070952998751
253.527,0.06537107898664418,0.06537107898664418
253.528,0.05722681502242133,0.05722681502242133
253.529,0.051047619377079245,0.051047619377079245
253.53,0.04661681927501782,0.04661681927501782
253.531,0.04363930232819313,0.04363930232819313
253.532,0.041975333494668865,0.041975333494668865
253.533,0.04169073798680767,0.04169073798680767
253.534,0.04292405046410375,0.04292405046410375
253.535,0.045656141036884534,0.045656141036884534
253.536,0.0495135283474617,0.0495135283474617
253.537,0.05372480738712748,0.05372480738712748
253.538,0.05728477023815559,0.05728477023815559
253.539,0.05928840509486255,0.05928840509486255
253.54,0.059314078093920974,0.059314078093920974
253.541,0.05769634613338348,0.05769634613338348
253.542,0.055552610298016836,0.055552610298016836
253.543,0.05450919930457587,0.05450919930457587
253.544,0.056183879702219164,0.056183879702219164
253.545,0.06158254366788607,0.06158254366788607
253.546,0.07061885432392367,0.07061885432392367
253.547,0.08194409180109119,0.08194409180109119
253.548,0.09318291679928636,0.09318291679928636
253.549,0.10153749061003503,0.10153749061003503
253.55,0.10459221738110203,0.10459221738110203
253.551,0.10107042867657157,0.10107042867657157
253.552,0.09129365645407672,0.09129365645407672
253.553,0.07717814789778443,0.07717814789778443
253.554,0.06174718437328219,0.06174718437328219
253.555,0.048295184417055825,0.048295184417055825
253.556,0.03945779775379887,0.03945779775379887
253.557,0.03648012312462745,0.03648012312462745
253.558,0.0389176415857766,0.0389176415857766
253.559,0.04486804259629973,0.04486804259629973
253.56,0.051660317270456835,0.051660317270456835
253.561,0.0567766109348844,0.0567766109348844
253.562,0.05870286744647535,0.05870286744647535
253.563,0.05742398088886613,0.05742398088886613
253.564,0.054393335396439646,0.054393335396439646
253.565,0.0519792735403497,0.0519792735403497
253.566,0.0525663204784228,0.0525663204784228
253.567,0.0576092770357306,0.0576092770357306
253.568,0.0669630496829241,0.0669630496829241
253.569,0.07873029081213012,0.07873029081213012
253.57,0.08970665185658322,0.08970665185658322
253.571,0.09631043757373403,0.09631043757373403
253.572,0.09572104289157957,0.09572104289157957
253.573,0.08687123298220678,0.08687123298220678
253.574,0.07096899350238428,0.07096899350238428
253.575,0.05135801863346323,0.05135801863346323
253.576,0.03272250291584111,0.03272250291584111
253.577,0.019842349451782537,0.019842349451782537
253.578,0.016248052887628095,0.016248052887628095
253.579,0.023166161223684645,0.023166161223684645
253.58,0.03907250394529482,0.03907250394529482
253.581,0.06000186034061494,0.06000186034061494
253.582,0.08054813384958126,0.08054813384958126
253.583,0.09529064578642998,0.09529064578642998
253.584,0.10025728148114466,0.10025728148114466
253.585,0.09401983661161473,0.09401983661161473
253.586,0.0781153455647472,0.0781153455647472
253.587,0.05667136687749408,0.05667136687749408
253.588,0.035331205597057824,0.035331205597057824
253.589,0.0197661083854328,0.0197661083854328
253.59,0.014173172120997224,0.014173172120997224
253.591,0.020160385180493234,0.020160385180493234
253.592,0.036314577688521865,0.036314577688521865
253.593,0.058564238516084055,0.058564238516084055
253.594,0.0812377903969217,0.0812377903969217
253.595,0.09853588008426017,0.09853588008426017
253.596,0.10603122728754344,0.10603122728754344
253.597,0.10180763061986231,0.10180763061986231
253.598,0.08694900456341847,0.08694900456341847
253.599,0.06526144648443055,0.06526144648443055
253.6,0.04230972675898936,0.04230972675898936
253.601,0.024022267716650614,0.024022267716650614
253.602,0.015221968060175062,0.015221968060175062
253.603,0.018449857511111833,0.018449857511111833
253.604,0.0333652097164574,0.0333652097164574
253.605,0.056853911404216584,0.056853911404216584
253.606,0.08379765730088695,0.08379765730088695
253.607,0.10829628015264192,0.10829628015264192
253.608,0.12503372258407475,0.12503372258407475
253.609,0.13045757433991279,0.13045757433991279
253.61,0.12350371851235464,0.12350371851235464
253.611,0.10572152139285285,0.10572152139285285
253.612,0.08080658781283834,0.08080658781283834
253.613,0.05368793280901296,0.05368793280901296
253.614,0.029410637656456684,0.029410637656456684
253.615,0.012083776103098742,0.012083776103098742
253.616,0.004124827092203853,0.004124827092203853
253.617,0.005941303895939498,0.005941303895939498
253.618,0.016075040355150394,0.016075040355150394
253.619,0.03172525358087297,0.03172525358087297
253.62,0.04948924056545523,0.04948924056545523
253.621,0.06612949980738958,0.06612949980738958
253.622,0.07919469803709323,0.07919469803709323
253.623,0.08737837503493306,0.08737837503493306
253.624,0.09057483792019871,0.09057483792019871
253.625,0.08966564030609048,0.08966564030609048
253.626,0.08612532765475334,0.08612532765475334
253.627,0.08156206631977869,0.08156206631977869
253.628,0.07730607363065456,0.07730607363065456
253.629,0.07413214425288928,0.07413214425288928
253.63,0.0721617966572734,0.0721617966572734
253.631,0.07094622611984236,0.07094622611984236
253.632,0.06969225220143782,0.06969225220143782
253.633,0.06756582452279414,0.06756582452279414
253.634,0.06399457707345402,0.06399457707345402
253.635,0.05889335851569477,0.05889335851569477
253.636,0.05275393907526893,0.05275393907526893
253.637,0.046569961743446076,0.046569961743446076
253.638,0.04160643827945121,0.04160643827945121
253.639,0.039063053052854624,0.039063053052854624
253.64,0.03971345354241396,0.03971345354241396
253.641,0.043619115231223526,0.043619115231223526
253.642,0.050008744642110914,0.050008744642110914
253.643,0.05738001799867787,0.05738001799867787
253.644,0.06382461067062173,0.06382461067062173
253.645,0.06751258722240916,0.06751258722240916
253.646,0.06721636991402957,0.06721636991402957
253.647,0.06272635333779464,0.06272635333779464
253.648,0.05502290880495453,0.05502290880495453
253.649,0.046125187146240476,0.046125187146240476
253.65,0.03862440053891336,0.03862440053891336
253.651,0.03500489077771918,0.03500489077771918
253.652,0.03693117429640114,0.03693117429640114
253.653,0.04470723747676586,0.04470723747676586
253.654,0.0570816618434582,0.0570816618434582
253.655,0.07148283973303493,0.07148283973303493
253.656,0.08464549086399353,0.08464549086399353
253.657,0.09346889492328869,0.09346889492328869
