Czas,AbsSum,Sum
266.102,0.009991857846026186,-0.009991857846026186
266.103,0.1516484101505029,0.1516484101505029
266.104,0.2711615401888332,0.2711615401888332
266.105,0.3150211826189606,0.3150211826189606
266.106,0.27310906656808176,0.27310906656808176
266.107,0.16056202105332495,0.16056202105332495
266.108,0.0118938967570279,0.0118938967570279
266.109,0.13045135800955399,-0.13045135800955399
266.11,0.22928015116235334,-0.22928015116235334
266.111,0.26333448388651914,-0.26333448388651914
266.112,0.23223626633254912,-0.23223626633254912
266.113,0.15444335919866437,-0.15444335919866437
266.114,0.059299045258582206,-0.059299045258582206
266.115,0.023858510839976255,0.023858510839976255
266.116,0.07572634975610759,0.07572634975610759
266.117,0.0928643369500668,0.0928643369500668
266.118,0.08753409047707161,0.08753409047707161
266.119,0.08186109721849077,0.08186109721849077
266.12,0.09855256933988321,0.09855256933988321
266.121,0.15150827251573173,0.15150827251573173
266.122,0.23960524683913365,0.23960524683913365
266.123,0.34577630863661524,0.34577630863661524
266.124,0.44166296601848654,0.44166296601848654
266.125,0.4962468563078961,0.4962468563078961
266.126,0.48558129336906797,0.48558129336906797
266.127,0.40046364972687987,0.40046364972687987
266.128,0.24966352094951394,0.24966352094951394
266.129,0.057845394011141194,0.057845394011141194
266.13,0.14094772399635458,-0.14094772399635458
266.131,0.3120398520128266,-0.3120398520128266
266.132,0.4283543203771554,-0.4283543203771554
266.133,0.4757935881719213,-0.4757935881719213
266.134,0.4545616411065577,-0.4545616411065577
266.135,0.3766441508035384,-0.3766441508035384
266.136,0.26085282204282767,-0.26085282204282767
266.137,0.12740627693136863,-0.12740627693136863
266.138,0.006181119599355744,0.006181119599355744
266.139,0.12694827183313562,0.12694827183313562
266.14,0.22618289346741038,0.22618289346741038
266.141,0.2979420302341307,0.2979420302341307
266.142,0.3377171189947499,0.3377171189947499
266.143,0.3422700343648635,0.3422700343648635
266.144,0.310898018783033,0.310898018783033
266.145,0.2474948413054825,0.2474948413054825
266.146,0.16216572413779673,0.16216572413779673
266.147,0.07111215525823589,0.07111215525823589
266.148,0.005917065480419592,-0.005917065480419592
266.149,0.05031872623112954,-0.05031872623112954
266.15,0.05016913841754356,-0.05016913841754356
266.15099999999995,0.00469028442592756,-0.00469028442592756
266.152,0.07416936713199052,0.07416936713199052
266.153,0.1640374117212524,0.1640374117212524
266.154,0.23800738381961573,0.23800738381961573
266.155,0.2725061150353969,0.2725061150353969
266.156,0.25468694079900445,0.25468694079900445
266.157,0.1868710251483956,0.1868710251483956
266.158,0.08640817884453278,0.08640817884453278
266.159,0.019206276198099448,-0.019206276198099448
266.16,0.10053529515254145,-0.10053529515254145
266.161,0.13514954763436082,-0.13514954763436082
266.162,0.11444835353248539,-0.11444835353248539
266.16299999999995,0.04615450507225993,-0.04615450507225993
266.164,0.04828454634392987,0.04828454634392987
266.165,0.14046601164018324,0.14046601164018324
266.166,0.2036865871632383,0.2036865871632383
266.167,0.22063834383142322,0.22063834383142322
266.168,0.18773044547566609,0.18773044547566609
266.169,0.11487003455314704,0.11487003455314704
266.17,0.021141058598250773,0.021141058598250773
266.171,0.07180327657420915,-0.07180327657420915
266.172,0.14616235691137314,-0.14616235691137314
266.173,0.19203315024700707,-0.19203315024700707
266.174,0.20796768714009695,-0.20796768714009695
266.17499999999995,0.19837441443986148,-0.19837441443986148
266.176,0.16932793515491495,-0.16932793515491495
266.177,0.12489268826566835,-0.12489268826566835
266.178,0.06570709016593346,-0.06570709016593346
266.179,0.009533278208770923,0.009533278208770923
266.18,0.1004557079548849,0.1004557079548849
266.181,0.20112350994234296,0.20112350994234296
266.182,0.2980807287382128,0.2980807287382128
266.183,0.3718894986588188,0.3718894986588188
266.184,0.4023182768454072,0.4023182768454072
266.185,0.3756985518134439,0.3756985518134439
266.186,0.2917523342600872,0.2917523342600872
266.18699999999995,0.1669464785185426,0.1669464785185426
266.188,0.03235413687068589,0.03235413687068589
266.189,0.07414556989735333,-0.07414556989735333
266.19,0.1193485869128944,-0.1193485869128944
266.191,0.08625513525414619,-0.08625513525414619
266.192,0.018461477152031724,0.018461477152031724
266.193,0.16416414438259253,0.16416414438259253
266.194,0.3040300889519829,0.3040300889519829
266.195,0.38903012112998026,0.38903012112998026
266.196,0.3839033891433936,0.3839033891433936
266.197,0.27987330605365,0.27987330605365
266.198,0.09955702197791916,0.09955702197791916
266.199,0.10814535628026256,-0.10814535628026256
266.2,0.28214537829515773,-0.28214537829515773
266.201,0.36811455358340806,-0.36811455358340806
266.202,0.3362942977844602,-0.3362942977844602
266.203,0.19224637760951302,-0.19224637760951302
266.204,0.02330791015717093,0.02330791015717093
266.205,0.24596212534062611,0.24596212534062611
266.206,0.4070996689394206,0.4070996689394206
266.207,0.4553186421538713,0.4553186421538713
266.208,0.3729451324288604,0.3729451324288604
266.209,0.18221240286537022,0.18221240286537022
266.21,0.06105774021480581,-0.06105774021480581
266.211,0.2844083673957535,-0.2844083673957535
266.212,0.42100589493281615,-0.42100589493281615
266.213,0.43012513120642726,-0.43012513120642726
266.214,0.309345301633593,-0.309345301633593
266.215,0.09463927115327064,-0.09463927115327064
266.216,0.1515211939102219,0.1515211939102219
266.217,0.3600467181650049,0.3600467181650049
266.218,0.4765762632865278,0.4765762632865278
266.219,0.4774170810756748,0.4774170810756748
266.22,0.3751254670760775,0.3751254670760775
266.221,0.21228825945209118,0.21228825945209118
266.222,0.04597599020745102,0.04597599020745102
266.223,0.07166667000308202,-0.07166667000308202
266.224,0.11013239718022716,-0.11013239718022716
266.225,0.06913225526307498,-0.06913225526307498
266.226,0.023468769475610607,0.023468769475610607
266.227,0.12320204251715516,0.12320204251715516
266.228,0.18570435303205146,0.18570435303205146
266.229,0.18266035674077097,0.18266035674077097
266.23,0.11152281348338766,0.11152281348338766
266.231,0.004127576935318067,-0.004127576935318067
266.232,0.12340356451794532,-0.12340356451794532
266.233,0.20278446858551558,-0.20278446858551558
266.234,0.21140453171163953,-0.21140453171163953
266.235,0.1416731028729089,-0.1416731028729089
266.236,0.011713572475134826,-0.011713572475134826
266.237,0.14097300869725937,0.14097300869725937
266.238,0.2721900665085717,0.2721900665085717
266.239,0.3455615900745035,0.3455615900745035
266.24,0.3439142452193591,0.3439142452193591
266.241,0.2738249320651127,0.2738249320651127
266.242,0.16211991957061822,0.16211991957061822
266.243,0.045909017744756975,0.045909017744756975
266.244,0.04013540430449525,-0.04013540430449525
266.245,0.07479781118468953,-0.07479781118468953
266.246,0.05601051766916476,-0.05601051766916476
266.247,0.00036638041134540167,0.00036638041134540167
266.248,0.06777350118431813,0.06777350118431813
266.249,0.11925317525069468,0.11925317525069468
266.25,0.13699876376392162,0.13699876376392162
266.251,0.11783999878997276,0.11783999878997276
266.252,0.07300960736869366,0.07300960736869366
266.253,0.022688676796631668,0.022688676796631668
266.254,0.012321985942882696,-0.012321985942882696
266.255,0.018560073982761605,-0.018560073982761605
266.256,0.005423968621501407,0.005423968621501407
266.257,0.04921385978980419,0.04921385978980419
266.258,0.0951652991032923,0.0951652991032923
266.259,0.1255541418941002,0.1255541418941002
266.26,0.1294180444795241,0.1294180444795241
266.261,0.10652362645449953,0.10652362645449953
266.262,0.06708483936646714,0.06708483936646714
266.263,0.027512635734284308,0.027512635734284308
266.264,0.00395627470257276,0.00395627470257276
266.265,0.006157840410639492,0.006157840410639492
266.266,0.033927884469848735,0.033927884469848735
266.267,0.07747900704830046,0.07747900704830046
266.268,0.12135906017902953,0.12135906017902953
266.269,0.15038260291228456,0.15038260291228456
266.27,0.15526649947855953,0.15526649947855953
266.271,0.1358694908941207,0.1358694908941207
266.272,0.10091097895891044,0.10091097895891044
266.273,0.06440561286924806,0.06440561286924806
266.274,0.04027061912904606,0.04027061912904606
266.275,0.037187223994953555,0.037187223994953555
266.27599999999995,0.05561283447669019,0.05561283447669019
266.277,0.08794835998923234,0.08794835998923234
266.278,0.12163230598091035,0.12163230598091035
266.279,0.14384398507832952,0.14384398507832952
266.28,0.14596387823565848,0.14596387823565848
266.281,0.12614279723490385,0.12614279723490385
266.282,0.0891635912260551,0.0891635912260551
266.283,0.043888711434165506,0.043888711434165506
266.284,0.00047498878944784995,-0.00047498878944784995
266.285,0.03766454870816216,-0.03766454870816216
266.286,0.06585788598477527,-0.06585788598477527
266.287,0.08687005180920981,-0.08687005180920981
266.28799999999995,0.10356972125162933,-0.10356972125162933
266.289,0.11683193622767962,-0.11683193622767962
266.29,0.1235693584067209,-0.1235693584067209
266.291,0.1169402949388767,-0.1169402949388767
266.292,0.08889080220564782,-0.08889080220564782
266.293,0.03413151680997617,-0.03413151680997617
266.294,0.04608369116788458,0.04608369116788458
266.295,0.14209992388331494,0.14209992388331494
266.296,0.23702237161163642,0.23702237161163642
266.297,0.31087036367573706,0.31087036367573706
266.298,0.3464991764393539,0.3464991764393539
266.299,0.33526273445229493,0.33526273445229493
266.29999999999995,0.280323219303106,0.280323219303106
266.301,0.19624600373167045,0.19624600373167045
266.302,0.10480833115703025,0.10480833115703025
266.303,0.028331656985108422,0.028331656985108422
266.304,0.017198473401646597,-0.017198473401646597
266.305,0.026810299157382644,-0.026810299157382644
266.306,0.007344012878735207,-0.007344012878735207
266.307,0.02592840715224165,0.02592840715224165
266.308,0.05563452825085524,0.05563452825085524
266.309,0.0692477062748873,0.0692477062748873
266.31,0.06404315528878213,0.06404315528878213
266.311,0.04815181306955285,0.04815181306955285
266.31199999999995,0.03722206250092697,0.03722206250092697
266.313,0.04784141973999789,0.04784141973999789
266.314,0.09012950499003414,0.09012950499003414
266.315,0.16231430664598312,0.16231430664598312
266.316,0.24947552666534123,0.24947552666534123
266.317,0.32718536287315736,0.32718536287315736
266.318,0.36900880361705424,0.36900880361705424
266.319,0.3553784221667349,0.3553784221667349
266.32,0.2807648232056841,0.2807648232056841
266.321,0.15655644365346277,0.15655644365346277
266.322,0.008486824596719567,0.008486824596719567
266.323,0.130687581035685,-0.130687581035685
266.324,0.23090553976949135,-0.23090553976949135
266.325,0.27371079353489436,-0.27371079353489436
266.326,0.25740354148767164,-0.25740354148767164
266.327,0.19675895967502566,-0.19675895967502566
266.328,0.11748891499547276,-0.11748891499547276
266.329,0.047401847630178406,-0.047401847630178406
266.33,0.007302762577944821,-0.007302762577944821
266.331,0.004697987143532312,-0.004697987143532312
266.332,0.03233304756750821,-0.03233304756750821
266.333,0.07187430373097292,-0.07187430373097292
266.334,0.10125807377915397,-0.10125807377915397
266.335,0.10300193290266857,-0.10300193290266857
266.336,0.07052126592924213,-0.07052126592924213
266.337,0.01028677660760069,-0.01028677660760069
266.338,0.06080797371620439,0.06080797371620439
266.339,0.12178485807442008,0.12178485807442008
266.34,0.1552553506793306,0.1552553506793306
266.341,0.15364868602703252,0.15364868602703252
266.342,0.1217980127090228,0.1217980127090228
266.343,0.07503882579335763,0.07503882579335763
266.344,0.033589645955043324,0.033589645955043324
266.345,0.015285815269018288,0.015285815269018288
266.346,0.029270777034829054,0.029270777034829054
266.347,0.07284793257878741,0.07284793257878741
266.348,0.13252941625682024,0.13252941625682024
266.349,0.18882144289360991,0.18882144289360991
266.35,0.22299757190539982,0.22299757190539982
266.351,0.2234773435418329,0.2234773435418329
266.352,0.1896465375491958,0.1896465375491958
266.353,0.13191591278783155,0.13191591278783155
266.354,0.06814936750579559,0.06814936750579559
266.355,0.017816191548382543,0.017816191548382543
266.356,0.004086184542097082,-0.004086184542097082
266.357,0.008655390643184546,0.008655390643184546
266.358,0.05218406531526454,0.05218406531526454
266.359,0.11446436634063684,0.11446436634063684
266.36,0.17942835281298342,0.17942835281298342
266.361,0.23179625091581202,0.23179625091581202
266.362,0.2609481843179464,0.2609481843179464
266.363,0.26275706734308457,0.26275706734308457
266.364,0.23915537015533572,0.23915537015533572
266.365,0.19604960781667535,0.19604960781667535
266.366,0.140700798329358,0.140700798329358
266.367,0.0796947987474077,0.0796947987474077
266.368,0.018177684296834862,0.018177684296834862
266.369,0.03965042707036204,-0.03965042707036204
266.37,0.08940283001039295,-0.08940283001039295
266.371,0.125641468945765,-0.125641468945765
266.372,0.14203525238435022,-0.14203525238435022
266.373,0.13278271130908792,-0.13278271130908792
266.374,0.09489029174847818,-0.09489029174847818
266.375,0.030395006020285664,-0.030395006020285664
266.376,0.05251160780480757,0.05251160780480757
266.377,0.1401900142078245,0.1401900142078245
266.378,0.21617608332997773,0.21617608332997773
266.379,0.2650756162475978,0.2650756162475978
266.38,0.27655355031341333,0.27655355031341333
266.381,0.24812697126183747,0.24812697126183747
266.382,0.1858289046963717,0.1858289046963717
266.383,0.10251405234861566,0.10251405234861566
266.384,0.014368382920856293,0.014368382920856293
266.385,0.06323149861279609,-0.06323149861279609
266.386,0.11919945029847934,-0.11919945029847934
266.387,0.14855965152838302,-0.14855965152838302
266.388,0.1522547136978334,-0.1522547136978334
266.389,0.13532855664886423,-0.13532855664886423
266.39,0.10440912884054132,-0.10440912884054132
266.391,0.06555655412555017,-0.06555655412555017
266.392,0.023247393936128735,-0.023247393936128735
266.393,0.019326642824787577,0.019326642824787577
266.394,0.05910059858224326,0.05910059858224326
266.395,0.09197758502167108,0.09197758502167108
266.396,0.1125280381121152,0.1125280381121152
266.397,0.11499558117238906,0.11499558117238906
266.398,0.09540739224985106,0.09540739224985106
266.399,0.053972607349414004,0.053972607349414004
266.4,0.0033509312199971886,-0.0033509312199971886
266.40099999999995,0.06507495231616234,-0.06507495231616234
266.402,0.11653020057588992,-0.11653020057588992
266.403,0.14385880035664622,-0.14385880035664622
266.404,0.13842232714002212,-0.13842232714002212
266.405,0.10006304752447037,-0.10006304752447037
266.406,0.03789451490035689,-0.03789451490035689
266.407,0.031932203630652856,0.031932203630652856
266.408,0.09099066725332472,0.09099066725332472
266.409,0.12441985930543331,0.12441985930543331
266.41,0.1258991699878682,0.1258991699878682
266.411,0.09998943192039067,0.09998943192039067
266.412,0.06089370583658149,0.06089370583658149
266.41299999999995,0.0278941587800432,0.0278941587800432
266.414,0.01888902466737097,0.01888902466737097
266.415,0.04416649589040045,0.04416649589040045
266.416,0.10254016668517218,0.10254016668517218
266.417,0.18121562841912398,0.18121562841912398
266.418,0.25950825286271484,0.25950825286271484
266.419,0.3152188775385949,0.3152188775385949
266.42,0.33155867496134017,0.33155867496134017
266.421,0.30232371821040127,0.30232371821040127
266.422,0.23362604220111538,0.23362604220111538
266.423,0.14168035781896493,0.14168035781896493
266.424,0.04750290237986565,0.04750290237986565
266.42499999999995,0.029579984442037133,-0.029579984442037133
266.426,0.07735937442253515,-0.07735937442253515
266.427,0.0933032377348485,-0.0933032377348485
266.428,0.08353178494567359,-0.08353178494567359
266.429,0.05881941524591616,-0.05881941524591616
266.43,0.029314802843207755,-0.029314802843207755
266.431,0.0001106480572006241,-0.0001106480572006241
266.432,0.030566662686101642,0.030566662686101642
266.433,0.06980686325277996,0.06980686325277996
266.434,0.1256834134903535,0.1256834134903535
266.435,0.20183761271148293,0.20183761271148293
266.436,0.2931802703156783,0.2931802703156783
266.43699999999995,0.38459867108677126,0.38459867108677126
266.438,0.45352547097120266,0.45352547097120266
266.439,0.47583762772901506,0.47583762772901506
266.44,0.4333024062894424,0.4333024062894424
266.441,0.3201263693760692,0.3201263693760692
266.442,0.14633977779775242,0.14633977779775242
266.443,0.06328349024954627,-0.06328349024954627
266.444,0.2746367608870576,-0.2746367608870576
266.445,0.45247831942768346,-0.45247831942768346
266.446,0.5689673046245368,-0.5689673046245368
266.447,0.6099941326204585,-0.6099941326204585
266.448,0.5775009934740876,-0.5775009934740876
266.449,0.48729879626594497,-0.48729879626594497
266.45,0.3633167517619441,-0.3633167517619441
266.451,0.23028724775262188,-0.23028724775262188
266.452,0.10722777061645283,-0.10722777061645283
266.453,0.0036432188933401832,-0.0036432188933401832
266.454,0.08067672194433673,0.08067672194433673
266.455,0.1526595077773485,0.1526595077773485
266.456,0.22118600713976755,0.22118600713976755
266.457,0.29246098014401367,0.29246098014401367
266.458,0.36717904123555956,0.36717904123555956
266.459,0.44033397454748413,0.44033397454748413
266.46,0.5034590742525089,0.5034590742525089
266.461,0.5481802648616942,0.5481802648616942
266.462,0.5695378993970057,0.5695378993970057
266.463,0.5677219381669028,0.5677219381669028
266.464,0.5475697420888477,0.5475697420888477
266.465,0.516107959479992,0.516107959479992
266.466,0.479215453916503,0.479215453916503
266.467,0.4388396401106842,0.4388396401106842
266.468,0.3919835566225891,0.3919835566225891
266.469,0.3319831724446267,0.3319831724446267
266.47,0.25168314628754884,0.25168314628754884
266.471,0.14734262539736998,0.14734262539736998
266.472,0.021757123937676592,0.021757123937676592
266.473,0.1146966707000282,-0.1146966707000282
266.474,0.24567391147773776,-0.24567391147773776
266.475,0.3527652842175628,-0.3527652842175628
266.476,0.4204837794353672,-0.4204837794353672
266.477,0.44069861082837347,-0.44069861082837347
266.478,0.41502088159851014,-0.41502088159851014
266.479,0.3543086945372155,-0.3543086945372155
266.48,0.27541410868588845,-0.27541410868588845
266.481,0.1962090119230755,-0.1962090119230755
266.482,0.13048744695866366,-0.13048744695866366
266.483,0.08436122001971424,-0.08436122001971424
266.484,0.05524646770911956,-0.05524646770911956
266.485,0.033668242593540954,-0.033668242593540954
266.486,0.007189784391466558,-0.007189784391466558
266.487,0.034887886702192894,0.034887886702192894
266.488,0.09760159940798974,0.09760159940798974
266.489,0.17839994529652592,0.17839994529652592
266.49,0.2677330226110106,0.2677330226110106
266.491,0.3518395509667511,0.3518395509667511
266.492,0.4167290820931493,0.4167290820931493
266.493,0.45204095010565926,0.45204095010565926
266.494,0.45359288657416164,0.45359288657416164
266.495,0.4239364224730251,0.4239364224730251
266.496,0.37092042152997196,0.37092042152997196
266.497,0.30489061509129756,0.30489061509129756
266.498,0.23552277618127992,0.23552277618127992
266.499,0.1693035317501308,0.1693035317501308
266.5,0.10836496973500909,0.10836496973500909
266.501,0.05088048598158901,0.05088048598158901
266.502,0.007278212162843523,-0.007278212162843523
266.503,0.07027528364527247,-0.07027528364527247
266.504,0.14019277318249834,-0.14019277318249834
266.505,0.2156750132826759,-0.2156750132826759
266.506,0.2916441740446881,-0.2916441740446881
266.507,0.360050471992039,-0.360050471992039
266.508,0.4113519837745031,-0.4113519837745031
266.509,0.43629560806055,-0.43629560806055
266.51,0.427596847318107,-0.427596847318107
266.511,0.38124213267407603,-0.38124213267407603
266.512,0.29728920293494443,-0.29728920293494443
266.513,0.18015444504344758,-0.18015444504344758
266.514,0.038422272037473726,-0.038422272037473726
266.515,0.1157965325422865,0.1157965325422865
266.516,0.2679514616599752,0.2679514616599752
266.517,0.4025663821462808,0.4025663821462808
266.518,0.5050960470376975,0.5050960470376975
266.519,0.5639280885980342,0.5639280885980342
266.52,0.5722205058891587,0.5722205058891587
266.521,0.5292064784468407,0.5292064784468407
266.522,0.4406380974223263,0.4406380974223263
266.523,0.3181872430725319,0.3181872430725319
266.524,0.17784283209487195,0.17784283209487195
266.525,0.03757498305227358,0.03757498305227358
266.52599999999995,0.08529389524861342,-0.08529389524861342
266.527,0.17651662300509474,-0.17651662300509474
266.528,0.22672741254012851,-0.22672741254012851
266.529,0.2323802305712498,-0.2323802305712498
266.53,0.19578387575375467,-0.19578387575375467
266.531,0.12437779407056315,-0.12437779407056315
266.532,0.029490809503879056,-0.029490809503879056
266.533,0.0751714151193068,0.0751714151193068
266.534,0.17512951908759522,0.17512951908759522
266.535,0.2567267302194123,0.2567267302194123
266.536,0.3086703154254222,0.3086703154254222
266.537,0.3234568227085999,0.3234568227085999
266.53799999999995,0.2985506101966793,0.2985506101966793
266.539,0.23710129352475273,0.23710129352475273
266.54,0.14794450355208344,0.14794450355208344
266.541,0.04467982293044681,0.04467982293044681
266.542,0.05622442681855855,-0.05622442681855855
266.543,0.13811574860373743,-0.13811574860373743
266.544,0.18720081902349084,-0.18720081902349084
266.545,0.19533974994268843,-0.19533974994268843
266.546,0.1619451523860651,-0.1619451523860651
266.547,0.09447210596684841,-0.09447210596684841
266.548,0.007267848999814586,-0.007267848999814586
266.549,0.08108372686962917,0.08108372686962917
266.54999999999995,0.1514317740157327,0.1514317740157327
266.551,0.18799829266155665,0.18799829266155665
266.552,0.18175799207302878,0.18175799207302878
266.553,0.1325288897611976,0.1325288897611976
266.554,0.04930474899994364,0.04930474899994364
266.555,0.051281506673639954,-0.051281506673639954
266.556,0.1480965716527981,-0.1480965716527981
266.557,0.2196579886422706,-0.2196579886422706
266.558,0.24849710255653867,-0.24849710255653867
266.559,0.22486791599878697,-0.22486791599878697
266.56,0.14902792273141285,-0.14902792273141285
266.561,0.031556540238532826,-0.031556540238532826
266.56199999999995,0.10846487384005954,0.10846487384005954
266.563,0.24715992217938565,0.24715992217938565
266.564,0.3607742943876586,0.3607742943876586
266.565,0.4307924591777903,0.4307924591777903
266.566,0.4480928548599088,0.4480928548599088
266.567,0.415085499398574,0.415085499398574
266.568,0.34515906372597205,0.34515906372597205
266.569,0.2593764298373784,0.2593764298373784
266.57,0.18107180063745143,0.18107180063745143
266.571,0.1296343715623749,0.1296343715623749
266.572,0.11511755490083542,0.11511755490083542
266.573,0.1352421081416013,0.1352421081416013
266.574,0.17582609058900434,0.17582609058900434
266.575,0.21477287323037264,0.21477287323037264
266.576,0.2287084200672107,0.2287084200672107
266.577,0.20048351318904056,0.20048351318904056
266.578,0.12533488643884572,0.12533488643884572
266.579,0.013711316185428535,0.013711316185428535
266.58,0.11038468244554378,-0.11038468244554378
266.581,0.21541421882747447,-0.21541421882747447
266.582,0.2712072013140079,-0.2712072013140079
266.583,0.2582811328839908,-0.2582811328839908
266.584,0.17478000868238908,-0.17478000868238908
266.585,0.03875524123862506,-0.03875524123862506
266.586,0.1152406612969894,0.1152406612969894
266.587,0.24463400704353222,0.24463400704353222
266.588,0.31021652316369774,0.31021652316369774
266.589,0.2872908068760911,0.2872908068760911
266.59,0.17334612956108142,0.17334612956108142
266.591,0.010081912997823239,-0.010081912997823239
266.592,0.22210343615801265,-0.22210343615801265
266.593,0.41257977790903977,-0.41257977790903977
266.594,0.534926746199919,-0.534926746199919
266.595,0.5580973026539278,-0.5580973026539278
266.596,0.4744454673920182,-0.4744454673920182
266.597,0.30135296906147824,-0.30135296906147824
266.598,0.07628420450714546,-0.07628420450714546
266.599,0.15321335988757112,0.15321335988757112
266.6,0.3416773059626419,0.3416773059626419
266.601,0.4566874526927003,0.4566874526927003
266.602,0.48573171105849333,0.48573171105849333
266.603,0.43740385987012687,0.43740385987012687
266.604,0.33704043150861374,0.33704043150861374
266.605,0.2184482708554314,0.2184482708554314
266.606,0.11432984927040679,0.11432984927040679
266.607,0.048137739312179795,0.048137739312179795
266.608,0.029411142329522466,0.029411142329522466
266.609,0.05343867617010667,0.05343867617010667
266.61,0.10476640875342214,0.10476640875342214
266.611,0.16304087762165764,0.16304087762165764
266.612,0.20922337389118395,0.20922337389118395
266.613,0.23040318181653285,0.23040318181653285
266.614,0.22213010745871253,0.22213010745871253
266.615,0.1880932207260264,0.1880932207260264
266.616,0.13777354590363622,0.13777354590363622
266.617,0.08315287351449441,0.08315287351449441
266.618,0.03558049649649764,0.03558049649649764
266.619,0.003560145272410109,0.003560145272410109
266.62,0.008287758396577471,-0.008287758396577471
266.621,0.0007136281426103341,0.0007136281426103341
266.622,0.027782148680724594,0.027782148680724594
266.623,0.06730581967351479,0.06730581967351479
266.624,0.11144309866016022,0.11144309866016022
266.625,0.150790331394842,0.150790331394842
266.626,0.17536675926288225,0.17536675926288225
266.627,0.17611302566327658,0.17611302566327658
266.628,0.14684803166893268,0.14684803166893268
266.629,0.08629370020751082,0.08629370020751082
266.63,0.00047795553671847735,-0.00047795553671847735
266.631,0.1018513134471124,-0.1018513134471124
266.632,0.20114817873887314,-0.20114817873887314
266.633,0.2797207892052007,-0.2797207892052007
266.634,0.32103996993276396,-0.32103996993276396
266.635,0.3147399010855516,-0.3147399010855516
266.636,0.25946283869035947,-0.25946283869035947
266.637,0.16360371314778543,-0.16360371314778543
266.638,0.043624879777900416,-0.043624879777900416
266.639,0.07968083244933366,0.07968083244933366
266.64,0.1859865974596644,0.1859865974596644
266.641,0.259980060783062,0.259980060783062
266.642,0.2944449041604291,0.2944449041604291
266.643,0.29111769262053144,0.29111769262053144
266.644,0.2592392089297524,0.2592392089297524
266.645,0.21238739241839255,0.21238739241839255
266.646,0.16462403235733625,0.16462403235733625
266.647,0.1270807031317529,0.1270807031317529
266.648,0.10584812007142186,0.10584812007142186
266.649,0.10153428127282216,0.10153428127282216
266.65,0.11030898430134095,0.11030898430134095
266.65099999999995,0.1258435624311638,0.1258435624311638
266.652,0.14140491542931022,0.14140491542931022
266.653,0.15148598435809624,0.15148598435809624
266.654,0.15266290804602223,0.15266290804602223
266.655,0.14371560004036898,0.14371560004036898
266.656,0.12529089041850816,0.12529089041850816
266.657,0.09944431381131524,0.09944431381131524
266.658,0.06927650137667807,0.06927650137667807
266.659,0.038670858649760165,0.038670858649760165
266.66,0.011964492010374972,0.011964492010374972
266.661,0.006654328880366656,-0.006654328880366656
266.662,0.014099774746327398,-0.014099774746327398
266.66299999999995,0.009528463745736793,-0.009528463745736793
266.664,0.0047350581864709085,0.0047350581864709085
266.665,0.02298675725908672,0.02298675725908672
266.666,0.0370216317859382,0.0370216317859382
266.667,0.03814117544589646,0.03814117544589646
266.668,0.01988353730037029,0.01988353730037029
266.669,0.019312630949967158,-0.019312630949967158
266.67,0.07445076034757703,-0.07445076034757703
266.671,0.13408667850452005,-0.13408667850452005
266.672,0.18247931125340178,-0.18247931125340178
266.673,0.2033984981596324,-0.2033984981596324
266.674,0.18460444922056074,-0.18460444922056074
266.67499999999995,0.12168684825462472,-0.12168684825462472
266.676,0.02004031933684003,-0.02004031933684003
266.677,0.10574327965381469,0.10574327965381469
266.678,0.2350147298441121,0.2350147298441121
266.679,0.34590122368348153,0.34590122368348153
266.68,0.4204579772522794,0.4204579772522794
266.681,0.4486607686358337,0.4486607686358337
266.682,0.4301382254688211,0.4301382254688211
266.683,0.37326968612453015,0.37326968612453015
266.684,0.29210473429028294,0.29210473429028294
266.685,0.20221079606648562,0.20221079606648562
266.686,0.11680802295940573,0.11680802295940573
266.68699999999995,0.044332122851530986,0.044332122851530986
266.688,0.01202897755880028,-0.01202897755880028
266.689,0.053021786366948986,-0.053021786366948986
266.69,0.08104996743395343,-0.08104996743395343
266.691,0.09801301217420522,-0.09801301217420522
266.692,0.10417448981966604,-0.10417448981966604
266.693,0.09845515818517148,-0.09845515818517148
266.694,0.0798905722860862,-0.0798905722860862
266.695,0.04946485558178526,-0.04946485558178526
266.696,0.011344681379103827,-0.011344681379103827
266.697,0.027232041062201784,0.027232041062201784
266.698,0.05759818730679944,0.05759818730679944
266.699,0.07234754625559559,0.07234754625559559
266.7,0.068084639614028,0.068084639614028
266.701,0.04711555740776374,0.04711555740776374
266.702,0.01727787302538597,0.01727787302538597
266.703,0.010231142851415909,-0.010231142851415909
266.704,0.024405354784379107,-0.024405354784379107
266.705,0.01816370240966514,-0.01816370240966514
266.706,0.00908027777115672,0.00908027777115672
266.707,0.05101121928617691,0.05101121928617691
266.708,0.09642223134195316,0.09642223134195316
266.709,0.13302394965711795,0.13302394965711795
266.71,0.1517492349812397,0.1517492349812397
266.711,0.1500177535983529,0.1500177535983529
266.712,0.1327462899041274,0.1327462899041274
266.713,0.11066688338114905,0.11066688338114905
266.714,0.09647513565617416,0.09647513565617416
266.715,0.10012947166213237,0.10012947166213237
266.716,0.12496360117332417,0.12496360117332417
266.717,0.16602425369092977,0.16602425369092977
266.718,0.2112830400714052,0.2112830400714052
266.719,0.24536196890061523,0.24536196890061523
266.72,0.2545173756843033,0.2545173756843033
266.721,0.23117069243214616,0.23117069243214616
266.722,0.17642495280589943,0.17642495280589943
266.723,0.09971292559658429,0.09971292559658429
266.724,0.015733814665027213,0.015733814665027213
266.725,0.060213441694811354,-0.060213441694811354
266.726,0.11684432525028354,-0.11684432525028354
266.727,0.14984660497261704,-0.14984660497261704
266.728,0.16220863400554963,-0.16220863400554963
266.729,0.1619203709731365,-0.1619203709731365
266.73,0.15801097255959473,-0.15801097255959473
266.731,0.15648110901331047,-0.15648110901331047
266.732,0.15769804010911226,-0.15769804010911226
266.733,0.15624609488133767,-0.15624609488133767
266.734,0.14328048856288123,-0.14328048856288123
266.735,0.1104714481184057,-0.1104714481184057
266.736,0.054007815006087645,-0.054007815006087645
266.737,0.022913099687083438,0.022913099687083438
266.738,0.11013128089468949,0.11013128089468949
266.739,0.19318534538247656,0.19318534538247656
266.74,0.25768685024512794,0.25768685024512794
266.741,0.2938488616224477,0.2938488616224477
266.742,0.29952788474288017,0.29952788474288017
266.743,0.28066507215014336,0.28066507215014336
266.744,0.24895681353786903,0.24895681353786903
266.745,0.21759808581205098,0.21759808581205098
266.746,0.19664817726253414,0.19664817726253414
266.747,0.18970357718561992,0.18970357718561992
266.748,0.19307410087864696,0.19307410087864696
266.749,0.19772505063758472,0.19772505063758472
266.75,0.19321654847606773,0.19321654847606773
266.751,0.17212602544910593,0.17212602544910593
266.752,0.13326143793118295,0.13326143793118295
266.753,0.0824311358284886,0.0824311358284886
266.754,0.030463355720716123,0.030463355720716123
266.755,0.010781385182179415,-0.010781385182179415
266.756,0.03288338193099849,-0.03288338193099849
266.757,0.034091839648017874,-0.034091839648017874
266.758,0.020025220815124034,-0.020025220815124034
266.759,0.0015067350125922419,-0.0015067350125922419
266.76,0.009707157025565794,0.009707157025565794
266.761,0.005714028256131876,0.005714028256131876
266.762,0.01407358462320607,-0.01407358462320607
266.763,0.042195250066820456,-0.042195250066820456
266.764,0.06555463554621599,-0.06555463554621599
266.765,0.0702181691994096,-0.0702181691994096
266.766,0.04690957960435771,-0.04690957960435771
266.767,0.00482662416521995,0.00482662416521995
266.768,0.07541735488592716,0.07541735488592716
266.769,0.14761897289750703,0.14761897289750703
266.77,0.20177849773480916,0.20177849773480916
266.771,0.22226090229513407,0.22226090229513407
266.772,0.20282412265045502,0.20282412265045502
266.773,0.14902386037955817,0.14902386037955817
266.774,0.07672255542969997,0.07672255542969997
266.775,0.007120648015814579,0.007120648015814579
266.77599999999995,0.040048872600036534,-0.040048872600036534
266.777,0.05285608192674118,-0.05285608192674118
266.778,0.030868970633793125,-0.030868970633793125
266.779,0.015064684633704362,0.015064684633704362
266.78,0.06686812332260739,0.06686812332260739
266.781,0.10570517133336188,0.10570517133336188
266.782,0.11860948135313021,0.11860948135313021
266.783,0.10295729325115022,0.10295729325115022
266.784,0.06722177259514361,0.06722177259514361
266.785,0.027749883693319877,0.027749883693319877
266.786,0.002698208419922299,0.002698208419922299
266.787,0.0052630858679560966,0.0052630858679560966
266.78799999999995,0.0385931428633568,0.0385931428633568
266.789,0.09419094861530186,0.09419094861530186
266.79,0.1543994805047728,0.1543994805047728
266.791,0.1981519229707771,0.1981519229707771
266.792,0.20803344473678864,0.20803344473678864
266.793,0.17625130725742655,0.17625130725742655
266.794,0.10748675399591279,0.10748675399591279
266.795,0.01767131127753907,0.01767131127753907
266.796,0.07088402060212917,-0.07088402060212917
266.797,0.13635572844164234,-0.13635572844164234
266.798,0.16397737433834192,-0.16397737433834192
266.799,0.15016530533098593,-0.15016530533098593
266.79999999999995,0.10292448872178361,-0.10292448872178361
266.801,0.03853891941260923,-0.03853891941260923
266.802,0.024205850370097037,0.024205850370097037
266.803,0.07023802292632464,0.07023802292632464
266.804,0.09275445089706702,0.09275445089706702
266.805,0.094663838833273,0.094663838833273
266.806,0.08658426029115973,0.08658426029115973
266.807,0.08224989328844745,0.08224989328844745
266.808,0.09303251802393198,0.09303251802393198
266.809,0.1235167366737644,0.1235167366737644
266.81,0.16962786908531702,0.16962786908531702
266.811,0.2198759535450714,0.2198759535450714
266.81199999999995,0.25918979171996925,0.25918979171996925
266.813,0.2739520080224349,0.2739520080224349
266.814,0.2564956657267119,0.2564956657267119
266.815,0.2075815417750857,0.2075815417750857
266.816,0.13612453295244542,0.13612453295244542
266.817,0.05639595301510725,0.05639595301510725
266.818,0.01624414017017395,-0.01624414017017395
266.819,0.06961059047752194,-0.06961059047752194
266.82,0.09758662227062953,-0.09758662227062953
266.821,0.10084660069532081,-0.10084660069532081
266.822,0.08540547733523074,-0.08540547733523074
266.823,0.05972963786291141,-0.05972963786291141
266.824,0.03156690418967767,-0.03156690418967767
266.825,0.005635311900604845,-0.005635311900604845
266.826,0.017111499883755155,0.017111499883755155
266.827,0.038570870438711324,0.038570870438711324
266.828,0.061480960716620014,0.061480960716620014
266.829,0.08723946750273637,0.08723946750273637
266.83,0.11448121654700172,0.11448121654700172
266.831,0.13899877554926254,0.13899877554926254
266.832,0.15504010638789945,0.15504010638789945
266.833,0.1574756800310111,0.1574756800310111
266.834,0.14399347108704963,0.14399347108704963
266.835,0.11646794277995709,0.11646794277995709
266.836,0.08095089335283889,0.08095089335283889
266.837,0.04622752455628154,0.04622752455628154
266.838,0.021386336082654278,0.021386336082654278
266.839,0.013187957746174872,0.013187957746174872
266.84,0.02407592192059238,0.02407592192059238
266.841,0.05144514522766075,0.05144514522766075
266.842,0.08836410968619535,0.08836410968619535
266.843,0.12548686177003443,0.12548686177003443
266.844,0.15354570629062958,0.15354570629062958
266.845,0.16568794001902676,0.16568794001902676
266.846,0.1590304951510677,0.1590304951510677
266.847,0.13509364626780473,0.13509364626780473
266.848,0.09912607525673711,0.09912607525673711
266.849,0.058629430566814245,0.058629430566814245
266.85,0.021548108242427144,0.021548108242427144
266.851,0.005413352035378405,-0.005413352035378405
266.852,0.01801092991535891,-0.01801092991535891
266.853,0.015066769964556692,-0.015066769964556692
266.854,0.0015318734232516729,0.0015318734232516729
266.855,0.02733563761869484,0.02733563761869484
266.856,0.05620563438860504,0.05620563438860504
266.857,0.08143397527981855,0.08143397527981855
266.858,0.09699698341691532,0.09699698341691532
266.859,0.09879919686129202,0.09879919686129202
266.86,0.08570961572621516,0.08570961572621516
266.861,0.06014038073433192,0.06014038073433192
266.862,0.027923091585566828,0.027923091585566828
266.863,0.002661453347111209,-0.002661453347111209
266.864,0.022645560650960683,-0.022645560650960683
266.865,0.02462240242585023,-0.02462240242585023
266.866,0.004949929593608182,-0.004949929593608182
266.867,0.03471972137549573,0.03471972137549573
266.868,0.08713130987730522,0.08713130987730522
266.869,0.14060668109264007,0.14060668109264007
266.87,0.1815754358483661,0.1815754358483661
266.871,0.19789834974068166,0.19789834974068166
266.872,0.18213153343252686,0.18213153343252686
266.873,0.1338183271267408,0.1338183271267408
266.874,0.06010803416337218,0.06010803416337218
266.875,0.025561689758490047,-0.025561689758490047
266.876,0.10644266343561759,-0.10644266343561759
266.877,0.1663598081751282,-0.1663598081751282
266.878,0.1934776682748245,-0.1934776682748245
266.879,0.18295392113841702,-0.18295392113841702
266.88,0.13780025168179844,-0.13780025168179844
266.881,0.06777989210541557,-0.06777989210541557
266.882,0.013282844064500754,0.013282844064500754
266.883,0.09098649561922478,0.09098649561922478
266.884,0.1536628793759096,0.1536628793759096
266.885,0.19466080509048944,0.19466080509048944
266.886,0.2130997496228042,0.2130997496228042
266.887,0.2130568933019319,0.2130568933019319
266.888,0.2015878463879195,0.2015878463879195
266.889,0.18626237551719838,0.18626237551719838
266.89,0.17295376985116073,0.17295376985116073
266.891,0.1644608336685771,0.1644608336685771
266.892,0.160236372220792,0.160236372220792
266.893,0.15715226065215182,0.15715226065215182
266.894,0.15095316716459695,0.15095316716459695
266.895,0.1379085180824986,0.1379085180824986
266.896,0.11618396136710052,0.11618396136710052
266.897,0.0865896504681043,0.0865896504681043
266.898,0.052563343170245025,0.052563343170245025
266.899,0.019446741364693265,0.019446741364693265
266.9,0.006734764204643251,-0.006734764204643251
266.90099999999995,0.020697166419173962,-0.020697166419173962
266.902,0.019221004123478935,-0.019221004123478935
266.903,0.002100493081526267,-0.002100493081526267
266.904,0.02748676804627137,0.02748676804627137
266.905,0.06330541032362214,0.06330541032362214
266.906,0.097088364822284,0.097088364822284
266.907,0.12013805076491235,0.12013805076491235
266.908,0.1252388875796766,0.1252388875796766
266.909,0.1084986632124394,0.1084986632124394
266.91,0.07067756614270304,0.07067756614270304
266.911,0.017604008770545354,0.017604008770545354
266.912,0.04056497517319946,-0.04056497517319946
266.91299999999995,0.09122034410863933,-0.09122034410863933
266.914,0.12199033909254087,-0.12199033909254087
266.915,0.12365285136764426,-0.12365285136764426
266.916,0.0925465236777987,-0.0925465236777987
266.917,0.03181409029038007,-0.03181409029038007
266.918,0.04893040592625675,0.04893040592625675
266.919,0.13551754593242693,0.13551754593242693
266.92,0.21229421439124074,0.21229421439124074
266.921,0.26558722746472196,0.26558722746472196
266.922,0.2866663678494199,0.2866663678494199
266.923,0.27344281341546184,0.27344281341546184
266.924,0.23049396983560388,0.23049396983560388
266.92499999999995,0.1674823127720515,0.1674823127720515
266.926,0.09648704666522168,0.09648704666522168
266.927,0.02905208724592856,0.02905208724592856
266.928,0.0262157427453229,-0.0262157427453229
266.929,0.06489261121757195,-0.06489261121757195
266.93,0.08662747276005911,-0.08662747276005911
266.931,0.09391916458930283,-0.09391916458930283
266.932,0.09035672107635628,-0.09035672107635628
266.933,0.0790127124363228,-0.0790127124363228
266.934,0.061545724359638454,-0.061545724359638454
266.935,0.03824559562332763,-0.03824559562332763
266.936,0.008868062305041335,-0.008868062305041335
266.93699999999995,0.02620156493187209,0.02620156493187209
266.938,0.06503116565521672,0.06503116565521672
266.939,0.10393066484305957,0.10393066484305957
266.94,0.13810762554174771,0.13810762554174771
266.941,0.16298454804614138,0.16298454804614138
266.942,0.1756823864105359,0.1756823864105359
266.943,0.17607396172133738,0.17607396172133738
266.944,0.16694359549532067,0.16694359549532067
266.945,0.1531113517592737,0.1531113517592737
266.946,0.13977479761662126,0.13977479761662126
266.947,0.13064045735729746,0.13064045735729746
266.948,0.12653688517442685,0.12653688517442685
266.949,0.12506727188479227,0.12506727188479227
266.95,0.12150933618649584,0.12150933618649584
266.951,0.11072220007984557,0.11072220007984557
266.952,0.0894323105935626,0.0894323105935626
266.953,0.058085705120372255,0.058085705120372255
266.954,0.021547346058756967,0.021547346058756967
266.955,0.011720339721725592,-0.011720339721725592
266.956,0.031869113022665596,-0.031869113022665596
266.957,0.030655625454651725,-0.030655625454651725
266.958,0.004300610486045908,-0.004300610486045908
266.959,0.044706687178901916,0.044706687178901916
266.96,0.10749635909990696,0.10749635909990696
266.961,0.170538103107726,0.170538103107726
266.962,0.2187816285349462,0.2187816285349462
266.963,0.23937190926213026,0.23937190926213026
266.964,0.2249156236040144,0.2249156236040144
266.965,0.17540398116296263,0.17540398116296263
266.966,0.09828806372083099,0.09828806372083099
266.967,0.006730043919022322,0.006730043919022322
266.968,0.08344631703899197,-0.08344631703899197
266.969,0.1572575320941879,-0.1572575320941879
266.97,0.2036027058715134,-0.2036027058715134
266.971,0.21713333830664772,-0.21713333830664772
266.972,0.19861991782690513,-0.19861991782690513
266.973,0.15392134514425015,-0.15392134514425015
266.974,0.09202015551885923,-0.09202015551885923
266.975,0.022766618837979813,-0.022766618837979813
266.976,0.04505446156652493,0.04505446156652493
266.977,0.10492316681405267,0.10492316681405267
266.978,0.15292942571810975,0.15292942571810975
266.979,0.1874181786242386,0.1874181786242386
266.98,0.20826502080213571,0.20826502080213571
266.981,0.21614746366905568,0.21614746366905568
266.982,0.21208176967584058,0.21208176967584058
266.983,0.1973227044385626,0.1973227044385626
266.984,0.17354527071942583,0.17354527071942583
266.985,0.14310795032591073,0.14310795032591073
266.986,0.10917231766937241,0.10917231766937241
266.987,0.07552304290540657,0.07552304290540657
266.988,0.04606166054077243,0.04606166054077243
266.989,0.024085864008975166,0.024085864008975166
266.99,0.011563777933158104,0.011563777933158104
266.991,0.008637614484367617,0.008637614484367617
266.992,0.013537449171131088,0.013537449171131088
266.993,0.022972915102293934,0.022972915102293934
266.994,0.03293443964969622,0.03293443964969622
266.995,0.0397165567380624,0.0397165567380624
266.996,0.04090665620634781,0.04090665620634781
266.997,0.03608070837596511,0.03608070837596511
266.998,0.027012370736130942,0.027012370736130942
266.999,0.01731676024396034,0.01731676024396034
267.0,0.011587518250484319,0.011587518250484319
267.001,0.014213675788701918,0.014213675788701918
267.002,0.028151358321680586,0.028151358321680586
267.003,0.05395241125600547,0.05395241125600547
267.004,0.08930780260274496,0.08930780260274496
267.005,0.12925378704850798,0.12925378704850798
267.006,0.16703491221378153,0.16703491221378153
267.007,0.1954547764361927,0.1954547764361927
267.008,0.2084140989771921,0.2084140989771921
267.009,0.20227344255471258,0.20227344255471258
267.01,0.17670718508225192,0.17670718508225192
267.011,0.13483470716027068,0.13483470716027068
267.012,0.08259639674579233,0.08259639674579233
267.013,0.02753710508887197,0.02753710508887197
267.014,0.022688477181489364,-0.022688477181489364
267.015,0.06171207742429374,-0.06171207742429374
267.016,0.08542157783620674,-0.08542157783620674
267.017,0.0923199630984225,-0.0923199630984225
267.018,0.08328168678667147,-0.08328168678667147
267.019,0.06089103046091582,-0.06089103046091582
267.02,0.028647107952038953,-0.028647107952038953
267.021,0.009689511684789709,0.009689511684789709
267.022,0.05044608132237105,0.05044608132237105
267.023,0.09008906417926732,0.09008906417926732
267.024,0.12513858421749768,0.12513858421749768
267.025,0.15218049225708508,0.15218049225708508
267.02599999999995,0.16816620099912094,0.16816620099912094
267.027,0.17103892010345212,0.17103892010345212
267.028,0.16052459868887303,0.16052459868887303
267.029,0.1387629293024959,0.1387629293024959
267.03,0.11040932323668962,0.11040932323668962
267.031,0.08195458230981689,0.08195458230981689
267.032,0.06026518660020175,0.06026518660020175
267.033,0.05066220324397808,0.05066220324397808
267.034,0.055112395515199086,0.055112395515199086
267.035,0.07118818643887859,0.07118818643887859
267.036,0.09230146101424919,0.09230146101424919
267.037,0.10934929046434227,0.10934929046434227
267.03799999999995,0.11343197809105887,0.11343197809105887
267.039,0.09887583968401192,0.09887583968401192
267.04,0.06557796208333566,0.06557796208333566
267.041,0.019793291118979317,0.019793291118979317
267.042,0.027091762013883303,-0.027091762013883303
267.043,0.06162307852612292,-0.06162307852612292
267.044,0.07236276595599633,-0.07236276595599633
267.045,0.05374827301607099,-0.05374827301607099
267.046,0.008435967962314606,-0.008435967962314606
267.047,0.052774491898579745,0.052774491898579745
267.048,0.11361415063840208,0.11361415063840208
267.049,0.1569538334077365,0.1569538334077365
267.04999999999995,0.17000145356480845,0.17000145356480845
267.051,0.14845786611118816,0.14845786611118816
267.052,0.0982407604320017,0.0982407604320017
267.053,0.03409846088185886,0.03409846088185886
267.054,0.024590910146208067,-0.024590910146208067
267.055,0.059616156220809624,-0.059616156220809624
267.056,0.059543519719152616,-0.059543519719152616
267.057,0.02335768280688788,-0.02335768280688788
267.058,0.03906777004858886,0.03906777004858886
267.059,0.10987959302234973,0.10987959302234973
267.06,0.1686586038608815,0.1686586038608815
267.061,0.19864307027660932,0.19864307027660932
267.06199999999995,0.19178962388655085,0.19178962388655085
267.063,0.15106602359084165,0.15106602359084165
267.064,0.0892672210603993,0.0892672210603993
267.065,0.024780360108459742,0.024780360108459742
267.066,0.024281937639727413,-0.024281937639727413
267.067,0.04564145028425237,-0.04564145028425237
267.068,0.036300155543587564,-0.036300155543587564
267.069,0.002802369597282861,-0.002802369597282861
267.07,0.04166375425090574,0.04166375425090574
267.071,0.08222883541461612,0.08222883541461612
267.072,0.10758671291196231,0.10758671291196231
267.073,0.1136762804206839,0.1136762804206839
267.074,0.10453787941430703,0.10453787941430703
267.075,0.09010303613177872,0.09010303613177872
267.076,0.08177964033699259,0.08177964033699259
267.077,0.08749098796835852,0.08749098796835852
267.078,0.1080332702387985,0.1080332702387985
267.079,0.13615464911263198,0.13615464911263198
267.08,0.15878738851136354,0.15878738851136354
267.081,0.16172179514063112,0.16172179514063112
267.082,0.1351005909247438,0.1351005909247438
267.083,0.07776163259826996,0.07776163259826996
267.084,0.001200156138141062,-0.001200156138141062
267.085,0.08435209778635366,-0.08435209778635366
267.086,0.15082569341943608,-0.15082569341943608
267.087,0.18264799547585142,-0.18264799547585142
267.088,0.1704099833724606,-0.1704099833724606
267.089,0.11635220903711019,-0.11635220903711019
267.09,0.03378465971688305,-0.03378465971688305
267.091,0.05702030400898117,0.05702030400898117
267.092,0.1351312257344457,0.1351312257344457
267.093,0.18537400284099959,0.18537400284099959
267.094,0.2027278282681979,0.2027278282681979
267.095,0.19324141647071436,0.19324141647071436
267.096,0.17118489910372858,0.17118489910372858
267.097,0.15343000093642734,0.15343000093642734
267.098,0.15299646998808925,0.15299646998808925
267.099,0.17399329768893756,0.17399329768893756
267.1,0.20971817131554404,0.20971817131554404
267.101,0.24461365125926693,0.24461365125926693
267.102,0.25947306978283957,0.25947306978283957
267.103,0.23818350719852543,0.23818350719852543
267.104,0.17375934033726126,0.17375934033726126
267.105,0.07163570911475992,0.07163570911475992
267.106,0.05091809147644888,-0.05091809147644888
267.107,0.1691402422237842,-0.1691402422237842
267.108,0.2575312063053512,-0.2575312063053512
267.109,0.2969127758276111,-0.2969127758276111
267.11,0.27961105196528135,-0.27961105196528135
267.111,0.21121817398182396,-0.21121817398182396
267.112,0.10850557728881949,-0.10850557728881949
267.113,0.005716018808538781,0.005716018808538781
267.114,0.10907091408964131,0.10907091408964131
267.115,0.18537540269000696,0.18537540269000696
267.116,0.22797151066184074,0.22797151066184074
267.117,0.23981451965800193,0.23981451965800193
267.118,0.23059655578843352,0.23059655578843352
267.119,0.2121389400596363,0.2121389400596363
267.12,0.19377123072157754,0.19377123072157754
267.121,0.17929370450242432,0.17929370450242432
267.122,0.16646190965581154,0.16646190965581154
267.123,0.148985775022906,0.148985775022906
267.124,0.12013865826050374,0.12013865826050374
267.125,0.076530836320307,0.076530836320307
267.126,0.020590736499782825,0.020590736499782825
267.127,0.039199172042860275,-0.039199172042860275
267.128,0.0904379993204697,-0.0904379993204697
267.129,0.12058618905145813,-0.12058618905145813
267.13,0.12107849434903029,-0.12107849434903029
267.131,0.09034089475610385,-0.09034089475610385
267.132,0.03465912298464102,-0.03465912298464102
267.133,0.03342122046752061,0.03342122046752061
267.134,0.09865241907155209,0.09865241907155209
267.135,0.14744419878995196,0.14744419878995196
267.136,0.17162140275743387,0.17162140275743387
267.137,0.17039921521945223,0.17039921521945223
267.138,0.15000235201397616,0.15000235201397616
267.139,0.1211334258901573,0.1211334258901573
267.14,0.09518428669570578,0.09518428669570578
267.141,0.08045947792360941,0.08045947792360941
267.142,0.07963123869738875,0.07963123869738875
267.143,0.08920247479888643,0.08920247479888643
267.144,0.1010766024357761,0.1010766024357761
267.145,0.1056493593942942,0.1056493593942942
267.146,0.09536772698052998,0.09536772698052998
267.147,0.06758615355088016,0.06758615355088016
267.148,0.025811001821059554,0.025811001821059554
267.149,0.02103935307162008,-0.02103935307162008
267.15,0.06110086325874475,-0.06110086325874475
267.15099999999995,0.08297532763970983,-0.08297532763970983
267.152,0.07904542902669942,-0.07904542902669942
267.153,0.04771883790241316,-0.04771883790241316
267.154,0.006018444863729933,0.006018444863729933
267.155,0.07184217658733938,0.07184217658733938
267.156,0.13671095977877545,0.13671095977877545
267.157,0.18809372271906155,0.18809372271906155
267.158,0.21691254555240125,0.21691254555240125
267.159,0.21945142645852633,0.21945142645852633
267.16,0.19781755419215208,0.19781755419215208
267.161,0.15895888684543258,0.15895888684543258
267.162,0.11261645994784253,0.11261645994784253
267.16299999999995,0.06882426055202195,0.06882426055202195
267.164,0.03561700460079509,0.03561700460079509
267.165,0.01747739810838045,0.01747739810838045
267.166,0.01480643904716561,0.01480643904716561
267.167,0.024413750303798665,0.024413750303798665
267.168,0.040778578035455926,0.040778578035455926
267.169,0.0576818946776283,0.0576818946776283
267.17,0.06977828340033954,0.06977828340033954
267.171,0.07375179123713016,0.07375179123713016
267.172,0.06884717895213832,0.06884717895213832
267.173,0.05674054212970203,0.05674054212970203
267.174,0.04086718350962748,0.04086718350962748
267.17499999999995,0.0254282330911495,0.0254282330911495
267.176,0.014336229979796,0.014336229979796
267.177,0.010335988567138132,0.010335988567138132
267.178,0.014466051638718058,0.014466051638718058
267.179,0.02593092711124667,0.02593092711124667
267.18,0.04235964075352272,0.04235964075352272
267.181,0.060352487174928804,0.060352487174928804
267.182,0.0761778234403292,0.0761778234403292
267.183,0.08647694574589537,0.08647694574589537
267.184,0.08886059696447823,0.08886059696447823
267.185,0.0823219104977504,0.0823219104977504
267.186,0.06743220592401733,0.06743220592401733
267.18699999999995,0.046316174307336366,0.046316174307336366
267.188,0.022417533050477667,0.022417533050477667
267.189,7.011777632559557e-05,7.011777632559557e-05
267.19,0.016105971853084378,-0.016105971853084378
267.191,0.02194602941126078,-0.02194602941126078
267.192,0.014546858027310483,-0.014546858027310483
267.193,0.006985085962623261,0.006985085962623261
267.194,0.041009803629797226,0.041009803629797226
267.195,0.08323364665178623,0.08323364665178623
267.196,0.12713250010811739,0.12713250010811739
267.197,0.1649559657025661,0.1649559657025661
267.198,0.1892006413732703,0.1892006413732703
267.199,0.19428046829946077,0.19428046829946077
267.2,0.17800362627968247,0.17800362627968247
267.201,0.14243917226500447,0.14243917226500447
267.202,0.09385220177764464,0.09385220177764464
267.203,0.04159730968276576,0.04159730968276576
267.204,0.003860605303800946,-0.003860605303800946
267.205,0.03335983460338543,-0.03335983460338543
267.206,0.04127889471453672,-0.04127889471453672
267.207,0.026977833179039457,-0.026977833179039457
267.208,0.004998596029503588,0.004998596029503588
267.209,0.0460727268037191,0.0460727268037191
267.21,0.0858721078901723,0.0858721078901723
267.211,0.11495612018404522,0.11495612018404522
267.212,0.12726749123643777,0.12726749123643777
267.213,0.12160458894435111,0.12160458894435111
267.214,0.10168770679136019,0.10168770679136019
267.215,0.07480936426643492,0.07480936426643492
267.216,0.04948768233256051,0.04948768233256051
267.217,0.03284694239325758,0.03284694239325758
267.218,0.028530253579689413,0.028530253579689413
267.219,0.03577623710157929,0.03577623710157929
267.22,0.04991784775912089,0.04991784775912089
267.221,0.06410693202949669,0.06410693202949669
267.222,0.07168096859513917,0.07168096859513917
267.223,0.06839539161416974,0.06839539161416974
267.224,0.05380826259285021,0.05380826259285021
267.225,0.03140004763626947,0.03140004763626947
267.226,0.007437721554118593,0.007437721554118593
267.227,0.010996273451898464,-0.010996273451898464
267.228,0.018132438245532678,-0.018132438245532678
267.229,0.011103108656726923,-0.011103108656726923
267.23,0.009485768945651563,0.009485768945651563
267.231,0.040102936222770724,0.040102936222770724
267.232,0.0756695268386176,0.0756695268386176
267.233,0.11120360713143884,0.11120360713143884
267.234,0.14311340437173725,0.14311340437173725
267.235,0.16969646075121703,0.16969646075121703
267.236,0.19073812952519176,0.19073812952519176
267.237,0.20647078140747488,0.20647078140747488
267.238,0.21641452354869584,0.21641452354869584
267.239,0.21867150862269313,0.21867150862269313
267.24,0.21006732559608166,0.21006732559608166
267.241,0.18718958398633467,0.18718958398633467
267.242,0.14799428860676644,0.14799428860676644
267.243,0.09338017496034423,0.09338017496034423
267.244,0.02807776749223523,0.02807776749223523
267.245,0.03960676273307362,-0.03960676273307362
267.246,0.09927410093781208,-0.09927410093781208
267.247,0.14078929594890288,-0.14078929594890288
267.248,0.1568319551865287,-0.1568319551865287
267.249,0.14485003874171276,-0.14485003874171276
267.25,0.10779026025604199,-0.10779026025604199
267.251,0.05335824287569657,-0.05335824287569657
267.252,0.007969609038452452,0.007969609038452452
267.253,0.06556531303313595,0.06556531303313595
267.254,0.11109772561629994,0.11109772561629994
267.255,0.14009669631785404,0.14009669631785404
267.256,0.15224610620461432,0.15224610620461432
267.257,0.15046434707330625,0.15046434707330625
267.258,0.13923428833915064,0.13923428833915064
267.259,0.12286295195475105,0.12286295195475105
267.26,0.10431017877001403,0.10431017877001403
267.261,0.08494814970288944,0.08494814970288944
267.262,0.06521008011718776,0.06521008011718776
267.263,0.04571362674982882,0.04571362674982882
267.264,0.028247263849152437,0.028247263849152437
267.265,0.01606409826104116,0.01606409826104116
267.266,0.013218431723560409,0.013218431723560409
267.267,0.02309588602592516,0.02309588602592516
267.268,0.04666707175979923,0.04666707175979923
267.269,0.08118543871787764,0.08118543871787764
267.27,0.11996660465432218,0.11996660465432218
267.271,0.15354454958638053,0.15354454958638053
267.272,0.17201345329557838,0.17201345329557838
267.273,0.16790590535533712,0.16790590535533712
267.274,0.1386993948395281,0.1386993948395281
267.275,0.08808879041221607,0.08808879041221607
267.27599999999995,0.025512623402928813,0.025512623402928813
267.277,0.03603375808128684,-0.03603375808128684
267.278,0.0833065550011921,-0.0833065550011921
267.279,0.10627163951045704,-0.10627163951045704
267.28,0.10067284451414149,-0.10067284451414149
267.281,0.06894353544546361,-0.06894353544546361
267.282,0.019219122049343507,-0.019219122049343507
267.283,0.0371910270304181,0.0371910270304181
267.284,0.0890384732096825,0.0890384732096825
267.285,0.1280516175919617,0.1280516175919617
267.286,0.15065765795314268,0.15065765795314268
267.287,0.15807047961256404,0.15807047961256404
267.28799999999995,0.15486811876361894,0.15486811876361894
267.289,0.1466799132761647,0.1466799132761647
267.29,0.13786458383763245,0.13786458383763245
267.291,0.13000448015982746,0.13000448015982746
267.292,0.12169936945673254,0.12169936945673254
267.293,0.10964613009556934,0.10964613009556934
267.294,0.09052002704019846,0.09052002704019846
267.295,0.06289553644939683,0.06289553644939683
267.296,0.02845287758258963,0.02845287758258963
267.297,0.008001509084592517,-0.008001509084592517
267.298,0.039726165115985146,-0.039726165115985146
267.299,0.060028549073186666,-0.060028549073186666
267.29999999999995,0.06434002373327141,-0.06434002373327141
267.301,0.051656671400890364,-0.051656671400890364
267.302,0.024857339206285967,-0.024857339206285967
267.303,0.010185863385697713,0.010185863385697713
267.304,0.04636886233244408,0.04636886233244408
267.305,0.07736731004011688,0.07736731004011688
267.306,0.09922395615776636,0.09922395615776636
267.307,0.11102547391095641,0.11102547391095641
267.308,0.11453370341190516,0.11453370341190516
267.309,0.11301456652560593,0.11301456652560593
267.31,0.10977327550611005,0.10977327550611005
267.311,0.10696459483930654,0.10696459483930654
267.31199999999995,0.10509009942475012,0.10509009942475012
267.313,0.10329116748958334,0.10329116748958334
267.314,0.10022034807701119,0.10022034807701119
267.315,0.09505251421229977,0.09505251421229977
267.316,0.08816375947057598,0.08816375947057598
267.317,0.08116747015395243,0.08116747015395243
267.318,0.0762836347705198,0.0762836347705198
267.319,0.0753111001820046,0.0753111001820046
267.32,0.07865359226323076,0.07865359226323076
267.321,0.08484494893660521,0.08484494893660521
267.322,0.09082779102132776,0.09082779102132776
267.323,0.09293770016836911,0.09293770016836911
267.324,0.08825177199634049,0.08825177199634049
267.325,0.07579403307381538,0.07579403307381538
267.326,0.0571200517747652,0.0571200517747652
267.327,0.036022224514856926,0.036022224514856926
267.328,0.0174241666138073,0.0174241666138073
267.329,0.005842106391290569,0.005842106391290569
267.33,0.0039624267154974024,0.0039624267154974024
267.331,0.01184849285417977,0.01184849285417977
267.332,0.0270570992452972,0.0270570992452972
267.333,0.04560247253678251,0.04560247253678251
267.334,0.06338514801422135,0.06338514801422135
267.335,0.07752934467466255,0.07752934467466255
267.336,0.08711572438504422,0.08711572438504422
267.337,0.09304303394661617,0.09304303394661617
267.338,0.09710827085174212,0.09710827085174212
267.339,0.10072132012329638,0.10072132012329638
267.34,0.10383488223032589,0.10383488223032589
267.341,0.10460190459131957,0.10460190459131957
267.342,0.09998836918585452,0.09998836918585452
267.343,0.08717304576404628,0.08717304576404628
267.344,0.06521058076478936,0.06521058076478936
267.345,0.03626453273563501,0.03626453273563501
267.346,0.005812355504255073,0.005812355504255073
267.347,0.018434040844264143,-0.018434040844264143
267.348,0.02867562998520168,-0.02867562998520168
267.349,0.019592713747810464,-0.019592713747810464
267.35,0.009543541996777982,0.009543541996777982
267.351,0.05400852561001379,0.05400852561001379
267.352,0.10442951834253544,0.10442951834253544
267.353,0.14912716171720986,0.14912716171720986
267.354,0.1773243073580424,0.1773243073580424
267.355,0.1822232858302375,0.1822232858302375
267.356,0.16295534397098543,0.16295534397098543
267.357,0.12475298262452394,0.12475298262452394
267.358,0.07727589681998914,0.07727589681998914
267.359,0.031636792208006304,0.031636792208006304
267.36,0.0028903218086498983,-0.0028903218086498983
267.361,0.02139538513346917,-0.02139538513346917
267.362,0.024280281514997393,-0.024280281514997393
267.363,0.016373691571772375,-0.016373691571772375
267.364,0.004599447745011864,-0.004599447745011864
267.365,0.004912288736589776,0.004912288736589776
267.366,0.009198569717807192,0.009198569717807192
267.367,0.009452710091557348,0.009452710091557348
267.368,0.010277924899406266,0.010277924899406266
267.369,0.017502479515129732,0.017502479515129732
267.37,0.035396531833413736,0.035396531833413736
267.371,0.06437051418978146,0.06437051418978146
267.372,0.10007937567085046,0.10007937567085046
267.373,0.13435650553747025,0.13435650553747025
267.374,0.15773157810254745,0.15773157810254745
267.375,0.16268788136844536,0.16268788136844536
267.376,0.14650558599283747,0.14650558599283747
267.377,0.11263637915742519,0.11263637915742519
267.378,0.07003628341461643,0.07003628341461643
267.379,0.03058451490725056,0.03058451490725056
267.38,0.005392985203052092,0.005392985203052092
267.381,0.0012239725869294116,0.0012239725869294116
267.382,0.01823227627091839,0.01823227627091839
267.383,0.049825825732627615,0.049825825732627615
267.384,0.08473548510601114,0.08473548510601114
267.385,0.11064024109976534,0.11064024109976534
267.386,0.11816395065436835,0.11816395065436835
267.387,0.10392743379797431,0.10392743379797431
267.388,0.07165144328145145,0.07165144328145145
267.389,0.030955725502547438,0.030955725502547438
267.39,0.005734846776225266,-0.005734846776225266
267.391,0.027144624861840105,-0.027144624861840105
267.392,0.026661288602152777,-0.026661288602152777
267.393,0.004279800287239954,-0.004279800287239954
267.394,0.03360889999946126,0.03360889999946126
267.395,0.07644244588576177,0.07644244588576177
267.396,0.11292353623677887,0.11292353623677887
267.397,0.1344970564921366,0.1344970564921366
267.398,0.13773291577114244,0.13773291577114244
267.399,0.12489721959319433,0.12489721959319433
267.4,0.10263764324008129,0.10263764324008129
267.40099999999995,0.0793493918567243,0.0793493918567243
267.402,0.06220567808877919,0.06220567808877919
267.403,0.05489545670952012,0.05489545670952012
267.404,0.0568047957478528,0.0568047957478528
267.405,0.06382803860757047,0.06382803860757047
267.406,0.07040355402223542,0.07040355402223542
267.407,0.07194691820927268,0.07194691820927268
267.408,0.06674582472535362,0.06674582472535362
267.409,0.05661445697194223,0.05661445697194223
267.41,0.046086804305653484,0.046086804305653484
267.411,0.040478982158280274,0.040478982158280274
267.412,0.043570554106262094,0.043570554106262094
267.41299999999995,0.055795790287060276,0.055795790287060276
267.414,0.07365171866085829,0.07365171866085829
267.415,0.09059089478007332,0.09059089478007332
267.416,0.09913195508941364,0.09913195508941364
267.417,0.09348004757162642,0.09348004757162642
267.418,0.07175572608819536,0.07175572608819536
267.419,0.03704954668947047,0.03704954668947047
267.42,0.003093959314399597,-0.003093959314399597
267.421,0.038640255151749625,-0.038640255151749625
267.422,0.05987951341023401,-0.05987951341023401
267.423,0.060222072441852736,-0.060222072441852736
267.424,0.03811836493924925,-0.03811836493924925
267.42499999999995,0.002465987764188826,0.002465987764188826
267.426,0.053131781775315634,0.053131781775315634
267.427,0.10332219811336496,0.10332219811336496
267.428,0.14309093488824587,0.14309093488824587
267.429,0.16555375376612247,0.16555375376612247
267.43,0.16835926894708697,0.16835926894708697
267.431,0.15384726530595794,0.15384726530595794
267.432,0.12796577978749868,0.12796577978749868
267.433,0.09836270241932876,0.09836270241932876
267.434,0.07225586243740656,0.07225586243740656
267.435,0.05467870108443185,0.05467870108443185
267.436,0.04752263998625916,0.04752263998625916
267.43699999999995,0.04952636461306459,0.04952636461306459
267.438,0.05708872331025927,0.05708872331025927
267.439,0.0655841197347804,0.0655841197347804
267.44,0.07077911377023094,0.07077911377023094
267.441,0.06998558923837361,0.06998558923837361
267.442,0.06270485848651441,0.06270485848651441
267.443,0.050669288407507285,0.050669288407507285
267.444,0.037329221900458176,0.037329221900458176
267.445,0.026936586850893285,0.026936586850893285
267.446,0.023435935295708532,0.023435935295708532
267.447,0.029394953550405667,0.029394953550405667
267.448,0.045198169576009084,0.045198169576009084
267.449,0.06869232182923102,0.06869232182923102
267.45,0.09540560776827389,0.09540560776827389
267.451,0.1193615058617572,0.1193615058617572
267.452,0.13437645197879333,0.13437645197879333
267.453,0.13559171118303515,0.13559171118303515
267.454,0.12088188250490806,0.12088188250490806
267.455,0.09174968653483595,0.09174968653483595
267.456,0.05339100769924432,0.05339100769924432
267.457,0.01379798208422267,0.01379798208422267
267.458,0.017975202508768162,-0.017975202508768162
267.459,0.033999526206374586,-0.033999526206374586
267.46,0.0295493255918301,-0.0295493255918301
267.461,0.004483377508158637,-0.004483377508158637
267.462,0.03650589891305778,0.03650589891305778
267.463,0.08490778509652719,0.08490778509652719
267.464,0.1304394666465709,0.1304394666465709
267.465,0.16357317427217,0.16357317427217
267.466,0.17783473032989394,0.17783473032989394
267.467,0.17122167007592837,0.17122167007592837
267.468,0.14635449500784947,0.14635449500784947
267.469,0.10936688658597071,0.10936688658597071
267.47,0.06793245514743962,0.06793245514743962
267.471,0.029085421036877834,0.029085421036877834
267.472,0.0024687712093109937,-0.0024687712093109937
267.473,0.025053722527573097,-0.025053722527573097
267.474,0.03959812490219883,-0.03959812490219883
267.475,0.04835542676619764,-0.04835542676619764
267.476,0.05333283503354058,-0.05333283503354058
267.477,0.05508029001768555,-0.05508029001768555
267.478,0.05233025252640411,-0.05233025252640411
267.479,0.04263234043734199,-0.04263234043734199
267.48,0.023721166262969606,-0.023721166262969606
267.481,0.004955828817274632,0.004955828817274632
267.482,0.041219331008655935,0.041219331008655935
267.483,0.08015191306002478,0.08015191306002478
267.484,0.11523570672820416,0.11523570672820416
267.485,0.14031694185355192,0.14031694185355192
267.486,0.15172405064409733,0.15172405064409733
267.487,0.14974236489047033,0.14974236489047033
267.488,0.13881823739864196,0.13881823739864196
267.489,0.1262837394200167,0.1262837394200167
267.49,0.11992082793261472,0.11992082793261472
267.491,0.12513436613639595,0.12513436613639595
267.492,0.14270808888044262,0.14270808888044262
267.493,0.16798790938680752,0.16798790938680752
267.494,0.1918995285496199,0.1918995285496199
267.495,0.20359949002947797,0.20359949002947797
267.496,0.19398445765615757,0.19398445765615757
267.497,0.15894357873279263,0.15894357873279263
267.498,0.10126095344840413,0.10126095344840413
267.499,0.030466766739200235,0.030466766739200235
267.5,0.03942263033780058,-0.03942263033780058
267.501,0.09365151559216345,-0.09365151559216345
267.502,0.12083590274899159,-0.12083590274899159
267.503,0.11617343750641951,-0.11617343750641951
267.504,0.0827524888429646,-0.0827524888429646
267.505,0.03055298618078195,-0.03055298618078195
267.506,0.02654227231596007,0.02654227231596007
267.507,0.07478452527560564,0.07478452527560564
267.508,0.10438714350668543,0.10438714350668543
267.509,0.11197987694961675,0.11197987694961675
267.51,0.10098892323439701,0.10098892323439701
267.511,0.07992195272053104,0.07992195272053104
267.512,0.05920473026799877,0.05920473026799877
267.513,0.04765292003436694,0.04765292003436694
267.514,0.04973163683639514,0.04973163683639514
267.515,0.06444456493575501,0.06444456493575501
267.516,0.08611908824347103,0.08611908824347103
267.517,0.10671404510564675,0.10671404510564675
267.518,0.11878810792947259,0.11878810792947259
267.519,0.11808740551643782,0.11808740551643782
267.52,0.10488952465627954,0.10488952465627954
267.521,0.08370365313054928,0.08370365313054928
267.522,0.06150599495954889,0.06150599495954889
267.523,0.04518463884761004,0.04518463884761004
267.524,0.03911351380131789,0.03911351380131789
267.525,0.04369646294174667,0.04369646294174667
267.52599999999995,0.05535838716268593,0.05535838716268593
267.527,0.06794534479554226,0.06794534479554226
267.528,0.07501056694573949,0.07501056694573949
267.529,0.07217289357447387,0.07217289357447387
267.53,0.058730339759943906,0.058730339759943906
267.531,0.037985765581512565,0.037985765581512565
267.532,0.01619139426402305,0.01619139426402305
267.533,0.0004862420170235193,0.0004862420170235193
267.534,0.003472206019326296,-0.003472206019326296
267.535,0.006602470943162908,0.006602470943162908
267.536,0.028820788952734322,0.028820788952734322
267.537,0.05763295966741211,0.05763295966741211
267.53799999999995,0.08546953440255023,0.08546953440255023
267.539,0.10496347778302706,0.10496347778302706
267.54,0.11105336730483195,0.11105336730483195
267.541,0.10234151658756274,0.10234151658756274
267.542,0.08134697967603777,0.08134697967603777
267.543,0.05365293380107805,0.05365293380107805
267.544,0.026279142689496382,0.026279142689496382
267.545,0.005810285845558205,0.005810285845558205
267.546,0.0031715131650221773,-0.0031715131650221773
267.547,0.001045964340445238,0.001045964340445238
267.548,0.01727799798323515,0.01727799798323515
267.549,0.042130759842352816,0.042130759842352816
267.54999999999995,0.07108936635068908,0.07108936635068908
267.551,0.0996298115524108,0.0996298115524108
267.552,0.12404657625016702,0.12404657625016702
267.553,0.14184388830640549,0.14184388830640549
267.554,0.15171632638297328,0.15171632638297328
267.555,0.15327841475063275,0.15327841475063275
267.556,0.14675175124787776,0.14675175124787776
267.557,0.1327766661703893,0.1327766661703893
267.558,0.11241189441424937,0.11241189441424937
267.559,0.08726862197973428,0.08726862197973428
267.56,0.05964312437431607,0.05964312437431607
267.561,0.0324960190378385,0.0324960190378385
267.56199999999995,0.009179459847109772,0.009179459847109772
267.563,0.007086524994683319,-0.007086524994683319
267.564,0.013880042624895395,-0.013880042624895395
267.565,0.010202670620379828,-0.010202670620379828
267.566,0.003133456893684494,0.003133456893684494
267.567,0.023503296624822756,0.023503296624822756
267.568,0.04689725928257893,0.04689725928257893
267.569,0.06870768609296718,0.06870768609296718
267.57,0.08469965451575967,0.08469965451575967
267.571,0.09193716228516702,0.09193716228516702
267.572,0.08944066626789549,0.08944066626789549
267.573,0.07841402653818208,0.07841402653818208
267.574,0.06198067049304257,0.06198067049304257
267.575,0.04448417790929171,0.04448417790929171
267.576,0.03050986305307246,0.03050986305307246
267.577,0.023848368391056862,0.023848368391056862
267.578,0.026635929985148188,0.026635929985148188
267.579,0.038866195565616435,0.038866195565616435
267.58,0.05838399823201312,0.05838399823201312
267.581,0.08136076611725551,0.08136076611725551
267.582,0.10313919476326894,0.10313919476326894
267.583,0.11924798041256546,0.11924798041256546
267.584,0.12634805234772029,0.12634805234772029
267.585,0.12289172672164916,0.12289172672164916
267.586,0.10935255898154472,0.10935255898154472
267.587,0.0879975264228392,0.0879975264228392
267.588,0.06229341496296836,0.06229341496296836
267.589,0.03613078544929227,0.03613078544929227
267.59,0.013083365695425009,0.013083365695425009
267.591,0.004113213722873876,-0.004113213722873876
267.592,0.013770727691430174,-0.013770727691430174
267.593,0.015170273557512215,-0.015170273557512215
267.594,0.008322062636147765,-0.008322062636147765
267.595,0.006265832796761517,0.006265832796761517
267.596,0.02766733398694976,0.02766733398694976
267.597,0.05441891218733064,0.05441891218733064
267.598,0.08427740041378429,0.08427740041378429
267.599,0.11403406846318065,0.11403406846318065
267.6,0.13959576434597487,0.13959576434597487
267.601,0.1564797503218538,0.1564797503218538
267.602,0.16071996429198743,0.16071996429198743
267.603,0.149996883142689,0.149996883142689
267.604,0.12465150277957493,0.12465150277957493
267.605,0.08819418835455117,0.08819418835455117
267.606,0.047009584086748823,0.047009584086748823
267.607,0.00917901207823335,0.00917901207823335
267.608,0.017369733557418332,-0.017369733557418332
267.609,0.026914485335317928,-0.026914485335317928
267.61,0.017587247877907775,-0.017587247877907775
267.611,0.007930405045753375,0.007930405045753375
267.612,0.04296526572926074,0.04296526572926074
267.613,0.07858720410961273,0.07858720410961273
267.614,0.10605837580643529,0.10605837580643529
267.615,0.11927257198960972,0.11927257198960972
267.616,0.1164224299564256,0.1164224299564256
267.617,0.10034811393084975,0.10034811393084975
267.618,0.07743345183913775,0.07743345183913775
267.619,0.055394045667819025,0.055394045667819025
267.62,0.04068454496845009,0.04068454496845009
267.621,0.03640094277527539,0.03640094277527539
267.622,0.04140479107615391,0.04140479107615391
267.623,0.050987608673578544,0.050987608673578544
267.624,0.05885732340115912,0.05885732340115912
267.625,0.05974828667025944,0.05974828667025944
267.626,0.05170543587126475,0.05170543587126475
267.627,0.03717171350661941,0.03717171350661941
267.628,0.02240353349400559,0.02240353349400559
267.629,0.015325878873212684,0.015325878873212684
267.63,0.022516203764823883,0.022516203764823883
267.631,0.04636793235682579,0.04636793235682579
267.632,0.08349009093116644,0.08349009093116644
267.633,0.1250292220091631,0.1250292220091631
267.634,0.15896515821829404,0.15896515821829404
267.635,0.17374374652281,0.17374374652281
267.636,0.1621056946101569,0.1621056946101569
267.637,0.1238352368771376,0.1238352368771376
267.638,0.06644794322271164,0.06644794322271164
267.639,0.003478911648541194,0.003478911648541194
267.64,0.04918674151719593,-0.04918674151719593
267.641,0.07784147358872717,-0.07784147358872717
267.642,0.07493310229033934,-0.07493310229033934
267.643,0.041237925352694216,-0.041237925352694216
267.644,0.014455271407347592,0.014455271407347592
267.645,0.07803420528635918,0.07803420528635918
267.646,0.1342462595213223,0.1342462595213223
267.647,0.17102911117344988,0.17102911117344988
267.648,0.18262608648513834,0.18262608648513834
267.649,0.17056140359903105,0.17056140359903105
267.65,0.14228826823111262,0.14228826823111262
267.65099999999995,0.10810390420690763,0.10810390420690763
267.652,0.07748059788094275,0.07748059788094275
267.653,0.05610290537230478,0.05610290537230478
267.654,0.044587837386453444,0.044587837386453444
267.655,0.03921745444449343,0.03921745444449343
267.656,0.034269373959999294,0.034269373959999294
267.657,0.024959400635360618,0.024959400635360618
267.658,0.009816000211988474,0.009816000211988474
267.659,0.008445542743603318,-0.008445542743603318
267.66,0.023886678407687767,-0.023886678407687767
267.661,0.029765535662044207,-0.029765535662044207
267.662,0.021457556901702368,-0.021457556901702368
267.66299999999995,0.0012930515963422984,0.0012930515963422984
267.664,0.03373092190196725,0.03373092190196725
267.665,0.06740166959617899,0.06740166959617899
267.666,0.09302131381287126,0.09302131381287126
267.667,0.1038891182705195,0.1038891182705195
267.668,0.09857282327590267,0.09857282327590267
267.669,0.08180331057145351,0.08180331057145351
267.67,0.06312661590791135,0.06312661590791135
267.671,0.05366379553923761,0.05366379553923761
267.672,0.06203752555461728,0.06203752555461728
267.673,0.0908795772634412,0.0908795772634412
267.674,0.1351972508527297,0.1351972508527297
267.67499999999995,0.18328352953848648,0.18328352953848648
267.676,0.2200021554112488,0.2200021554112488
267.677,0.2314575040566862,0.2314575040566862
267.678,0.20955594177084813,0.20955594177084813
267.679,0.1549590682361104,0.1549590682361104
267.68,0.07742819817481017,0.07742819817481017
267.681,0.006602179284882381,-0.006602179284882381
267.682,0.07848895005120216,-0.07848895005120216
267.683,0.12249897412814992,-0.12249897412814992
267.684,0.13000694079102393,-0.13000694079102393
267.685,0.1015237921629163,-0.1015237921629163
267.686,0.04603056634572633,-0.04603056634572633
267.68699999999995,0.022038148996850193,0.022038148996850193
267.688,0.08709616088494809,0.08709616088494809
267.689,0.13659034192586872,0.13659034192586872
267.69,0.16380639613028958,0.16380639613028958
267.691,0.16858188609528968,0.16858188609528968
267.692,0.15595871226119118,0.15595871226119118
267.693,0.1334844425141386,0.1334844425141386
267.694,0.10825086737161582,0.10825086737161582
267.695,0.08472654312261607,0.08472654312261607
267.696,0.06403735461194282,0.06403735461194282
267.697,0.04474556868888646,0.04474556868888646
267.698,0.02460707808818774,0.02460707808818774
267.699,0.002457506085956629,0.002457506085956629
267.7,0.02060091206126402,-0.02060091206126402
267.701,0.04119618876816222,-0.04119618876816222
267.702,0.05483448611176678,-0.05483448611176678
267.703,0.057684545852704106,-0.057684545852704106
267.704,0.048225896435838744,-0.048225896435838744
267.705,0.02804947851577322,-0.02804947851577322
267.706,0.0014496031224908723,-0.0014496031224908723
267.707,0.026057939694945187,0.026057939694945187
267.708,0.04971395950333579,0.04971395950333579
267.709,0.0671992460599482,0.0671992460599482
267.71,0.07933484779673416,0.07933484779673416
267.711,0.08949146268453223,0.08949146268453223
267.712,0.10191214250121883,0.10191214250121883
267.713,0.11959628751349327,0.11959628751349327
267.714,0.14259286687246764,0.14259286687246764
267.715,0.1674232336139987,0.1674232336139987
267.716,0.18794020762036978,0.18794020762036978
267.717,0.19738249844362787,0.19738249844362787
267.718,0.1909085069789498,0.1909085069789498
267.719,0.16767409505052533,0.16767409505052533
267.72,0.13164496845825457,0.13164496845825457
267.721,0.09076746210872866,0.09076746210872866
267.722,0.05470760954296061,0.05470760954296061
267.723,0.03189368205179122,0.03189368205179122
267.724,0.026867442915093687,0.026867442915093687
267.725,0.038861387184019325,0.038861387184019325
267.726,0.0621009361139806,0.0621009361139806
267.727,0.08773084612733939,0.08773084612733939
267.728,0.10669992428496267,0.10669992428496267
267.729,0.11261137377150932,0.11261137377150932
267.73,0.10357466661923165,0.10357466661923165
267.731,0.08246594681228192,0.08246594681228192
267.732,0.05558004380881809,0.05558004380881809
267.733,0.03022688041288335,0.03022688041288335
267.734,0.012181298210843794,0.012181298210843794
267.735,0.003911451717839576,0.003911451717839576
267.736,0.004186899804332178,0.004186899804332178
267.737,0.009129040747470452,0.009129040747470452
267.738,0.014217560143348962,0.014217560143348962
267.739,0.01641303021043905,0.01641303021043905
267.74,0.015528897847613354,0.015528897847613354
267.741,0.014293592003007394,0.014293592003007394
267.742,0.017067164587823758,0.017067164587823758
267.743,0.02771701825382422,0.02771701825382422
267.744,0.047507445595265096,0.047507445595265096
267.745,0.07388217934011809,0.07388217934011809
267.746,0.10070402820079516,0.10070402820079516
267.747,0.11997471120328229,0.11997471120328229
267.748,0.12449096381905989,0.12449096381905989
267.749,0.11051184289288973,0.11051184289288973
267.75,0.07946248599897321,0.07946248599897321
267.751,0.03800624325039714,0.03800624325039714
267.752,0.0036257314270468077,-0.0036257314270468077
267.753,0.034549062538580255,-0.034549062538580255
267.754,0.046443942484877376,-0.046443942484877376
267.755,0.036018749511021464,-0.036018749511021464
267.756,0.0059141622073221045,-0.0059141622073221045
267.757,0.036227070183181276,0.036227070183181276
267.758,0.08017974420336627,0.08017974420336627
267.759,0.11621041191922798,0.11621041191922798
267.76,0.1377815499502193,0.1377815499502193
267.761,0.14303132509431782,0.14303132509431782
267.762,0.13463515189676278,0.13463515189676278
267.763,0.11823380462348276,0.11823380462348276
267.764,0.10009905563657462,0.10009905563657462
267.765,0.08493039524113777,0.08493039524113777
267.766,0.07456471227027417,0.07456471227027417
267.767,0.06798842088561141,0.06798842088561141
267.768,0.06252359246065597,0.06252359246065597
267.769,0.05561346075979756,0.05561346075979756
267.77,0.04642356187999863,0.04642356187999863
267.771,0.036575345704830786,0.036575345704830786
267.772,0.029693905571282597,0.029693905571282597
267.773,0.02993613136317652,0.02993613136317652
267.774,0.04008253285791952,0.04008253285791952
267.775,0.05996558258413609,0.05996558258413609
267.77599999999995,0.08589774846335096,0.08589774846335096
267.777,0.1113953324616821,0.1113953324616821
267.778,0.1290087596470777,0.1290087596470777
267.779,0.13264907120225478,0.13264907120225478
267.78,0.11960209871246597,0.11960209871246597
267.781,0.0915201853550689,0.0915201853550689
267.782,0.05403939447459094,0.05403939447459094
267.783,0.015154637542081906,0.015154637542081906
267.784,0.01708290862643147,-0.01708290862643147
267.785,0.0367598529710339,-0.0367598529710339
267.786,0.04146569007300971,-0.04146569007300971
267.787,0.03243189346656106,-0.03243189346656106
267.78799999999995,0.013503664053665099,-0.013503664053665099
267.789,0.010580969268036977,0.010580969268036977
267.79,0.03590736703368136,0.03590736703368136
267.791,0.06044720198480791,0.06044720198480791
267.792,0.08411349632524923,0.08411349632524923
267.793,0.10787384168361402,0.10787384168361402
267.794,0.13237016233591903,0.13237016233591903
267.795,0.15668936093902364,0.15668936093902364
267.796,0.17786431698174887,0.17786431698174887
267.797,0.19138586204307728,0.19138586204307728
267.798,0.19259097089153032,0.19259097089153032
267.799,0.17842312015742245,0.17842312015742245
267.79999999999995,0.14888288549162731,0.14888288549162731
267.801,0.10757250143204788,0.10757250143204788
267.802,0.061058312407637594,0.061058312407637594
267.803,0.01721032689076374,0.01721032689076374
267.804,0.01693633818435225,-0.01693633818435225
267.805,0.03706496269058457,-0.03706496269058457
267.806,0.04255524128111632,-0.04255524128111632
267.807,0.03623088447570344,-0.03623088447570344
267.808,0.022999694473559318,-0.022999694473559318
267.809,0.007911561990523786,-0.007911561990523786
267.81,0.005634424000906746,0.005634424000906746
267.811,0.016871691814775103,0.016871691814775103
267.81199999999995,0.027493279207039922,0.027493279207039922
267.813,0.04042904476237652,0.04042904476237652
267.814,0.05808581054874229,0.05808581054874229
267.815,0.08077552781858621,0.08077552781858621
267.816,0.10599040199531995,0.10599040199531995
267.817,0.1288615915453506,0.1288615915453506
267.818,0.1436793871140547,0.1436793871140547
267.819,0.1459307614456853,0.1459307614456853
267.82,0.1340865402176732,0.1340865402176732
267.821,0.1104343975730242,0.1104343975730242
267.822,0.08058765802053092,0.08058765802053092
267.823,0.05178390352494455,0.05178390352494455
267.824,0.030543534156106666,0.030543534156106666
267.825,0.02051569881324089,0.02051569881324089
267.826,0.021297201188168025,0.021297201188168025
267.827,0.028677869752434804,0.028677869752434804
267.828,0.03625945142470455,0.03625945142470455
267.829,0.03789622718047947,0.03789622718047947
267.83,0.03009607094118394,0.03009607094118394
267.831,0.013515856047479291,0.013515856047479291
267.832,0.007008928027488093,-0.007008928027488093
267.833,0.02394985551751805,-0.02394985551751805
267.834,0.029601325084313013,-0.029601325084313013
267.835,0.0187725643259522,-0.0187725643259522
267.836,0.009269086858308961,0.009269086858308961
267.837,0.05027675127030351,0.05027675127030351
267.838,0.09611210160992734,0.09611210160992734
267.839,0.1370830429682559,0.1370830429682559
267.84,0.16475342729861464,0.16475342729861464
267.841,0.17430335773047867,0.17430335773047867
267.842,0.16569361872052824,0.16569361872052824
267.843,0.1433134136609615,0.1433134136609615
267.844,0.1143117416185937,0.1143117416185937
267.845,0.08624431875618788,0.08624431875618788
267.846,0.06486167890957639,0.06486167890957639
267.847,0.0527606548290922,0.0527606548290922
267.848,0.049269456981617,0.049269456981617
267.849,0.051472162899056206,0.051472162899056206
267.85,0.05587368177083962,0.05587368177083962
267.851,0.06000582023502621,0.06000582023502621
267.852,0.06334433496293634,0.06334433496293634
267.853,0.0672102516795221,0.0672102516795221
267.854,0.0737454579418031,0.0737454579418031
267.855,0.084423146229609,0.084423146229609
267.856,0.09873956728200284,0.09873956728200284
267.857,0.11366780446147007,0.11366780446147007
267.858,0.12416473754721835,0.12416473754721835
267.859,0.12461952071103588,0.12461952071103588
267.86,0.11076663765357497,0.11076663765357497
267.861,0.08139396162955448,0.08139396162955448
267.862,0.03922618656976118,0.03922618656976118
267.863,0.009363013339776294,-0.009363013339776294
267.864,0.05576079230704456,-0.05576079230704456
267.865,0.09122126126730679,-0.09122126126730679
267.866,0.10901788119011302,-0.10901788119011302
267.867,0.10599414648480365,-0.10599414648480365
267.868,0.08308471080921942,-0.08308471080921942
267.869,0.04473163735975294,-0.04473163735975294
267.87,0.0025237477536528274,0.0025237477536528274
267.871,0.05175807396398846,0.05175807396398846
267.872,0.09713745838890997,0.09713745838890997
267.873,0.13474442226196337,0.13474442226196337
267.874,0.16264119190665238,0.16264119190665238
267.875,0.18034197801250396,0.18034197801250396
267.876,0.18806024019475598,0.18806024019475598
267.877,0.18612603946049378,0.18612603946049378
267.878,0.1748339560898693,0.1748339560898693
267.879,0.15474790875144784,0.15474790875144784
267.88,0.12725611055765462,0.12725611055765462
267.881,0.09503395690300342,0.09503395690300342
267.882,0.062089921861195885,0.062089921861195885
267.883,0.03323241729999493,0.03323241729999493
267.884,0.013038554946326109,0.013038554946326109
267.885,0.004631305782607953,0.004631305782607953
267.886,0.008688348902875509,0.008688348902875509
267.887,0.023064218672596004,0.023064218672596004
267.888,0.043218105320554034,0.043218105320554034
267.889,0.06337008183607007,0.06337008183607007
267.89,0.0780565516550904,0.0780565516550904
267.891,0.08361303791309505,0.08361303791309505
267.892,0.07913046517980726,0.07913046517980726
267.893,0.06660247044010559,0.06660247044010559
267.894,0.05024370913900489,0.05024370913900489
267.895,0.03521940125781331,0.03521940125781331
267.896,0.02619526998882349,0.02619526998882349
267.897,0.026141588133176574,0.026141588133176574
267.898,0.035706239902797865,0.035706239902797865
267.899,0.053261436904299186,0.053261436904299186
267.9,0.07550800431288351,0.07550800431288351
267.90099999999995,0.09836840995445262,0.09836840995445262
267.902,0.11786171802100043,0.11786171802100043
267.903,0.1307300253960202,0.1307300253960202
267.904,0.13473261224027744,0.13473261224027744
267.905,0.12867354127920838,0.12867354127920838
267.906,0.11231836271016271,0.11231836271016271
267.907,0.08635362973273564,0.08635362973273564
267.908,0.052458700169361716,0.052458700169361716
267.909,0.013438448092649047,0.013438448092649047
267.91,0.026730862102250175,-0.026730862102250175
267.911,0.06311229809120722,-0.06311229809120722
267.912,0.09037601375573179,-0.09037601375573179
267.91299999999995,0.1036875416044517,-0.1036875416044517
267.914,0.09973075632185024,-0.09973075632185024
267.915,0.07758184112971445,-0.07758184112971445
267.916,0.03915056774597647,-0.03915056774597647
267.917,0.010988486545370657,0.010988486545370657
267.918,0.06637341560108756,0.06637341560108756
267.919,0.11985253258894057,0.11985253258894057
267.92,0.1648866845298398,0.1648866845298398
267.921,0.1966217304324387,0.1966217304324387
267.922,0.212490330281345,0.212490330281345
267.923,0.21227092841899853,0.21227092841899853
267.924,0.19770880360148935,0.19770880360148935
267.92499999999995,0.17192075205994728,0.17192075205994728
267.926,0.13881894654775184,0.13881894654775184
267.927,0.10270208695624361,0.10270208695624361
267.928,0.06801798153021577,0.06801798153021577
267.929,0.0391711491882043,0.0391711491882043
267.93,0.020197392038336703,0.020197392038336703
267.931,0.014186577527996125,0.014186577527996125
267.932,0.02248744660221358,0.02248744660221358
267.933,0.043910750025100365,0.043910750025100365
267.934,0.07427394281497501,0.07427394281497501
267.935,0.10662934270056468,0.10662934270056468
267.936,0.1323607222142733,0.1323607222142733
267.93699999999995,0.14305557083225073,0.14305557083225073
267.938,0.13275186424521745,0.13275186424521745
267.939,0.0999348876332653,0.0999348876332653
267.94,0.04862032486577528,0.04862032486577528
267.941,0.011953542922452098,-0.011953542922452098
267.942,0.0691256164762426,-0.0691256164762426
267.943,0.10974834200258898,-0.10974834200258898
267.944,0.12351649507134888,-0.12351649507134888
267.945,0.10576026718137133,-0.10576026718137133
267.946,0.05887212479132187,-0.05887212479132187
267.947,0.008098233431902857,0.008098233431902857
267.948,0.08161952079818735,0.08161952079818735
267.949,0.1470386079841497,0.1470386079841497
267.95,0.1921831797624114,0.1921831797624114
267.951,0.21019825470987152,0.21019825470987152
267.952,0.2008499135643087,0.2008499135643087
267.953,0.17000364627611808,0.17000364627611808
267.954,0.1275358615898332,0.1275358615898332
267.955,0.0843870419551338,0.0843870419551338
267.956,0.04967238122135775,0.04967238122135775
267.957,0.028673487659186092,0.028673487659186092
267.958,0.02218797616790069,0.02218797616790069
267.959,0.027241692021801267,0.027241692021801267
267.96,0.03873698329362352,0.03873698329362352
267.961,0.0513636495834322,0.0513636495834322
267.962,0.061108515464655566,0.061108515464655566
267.963,0.06594156276072738,0.06594156276072738
267.964,0.06562484166491633,0.06562484166491633
267.965,0.06093773777879341,0.06093773777879341
267.966,0.05280663346007075,0.05280663346007075
267.967,0.041801127802633786,0.041801127802633786
267.968,0.02823400795999098,0.02823400795999098
267.969,0.012778214928930165,0.012778214928930165
267.97,0.0027697603514184044,-0.0027697603514184044
267.971,0.015070995970404177,-0.015070995970404177
267.972,0.019559231398029953,-0.019559231398029953
267.973,0.011586893693386835,-0.011586893693386835
267.974,0.01187404939868375,0.01187404939868375
267.975,0.05055687989264568,0.05055687989264568
267.976,0.09993549851437811,0.09993549851437811
267.977,0.1514986213652212,0.1514986213652212
267.978,0.1944090061735808,0.1944090061735808
267.979,0.2182107792117316,0.2182107792117316
267.98,0.21583443715600437,0.21583443715600437
267.981,0.18596144973498552,0.18596144973498552
267.982,0.13393236959812915,0.13393236959812915
267.983,0.07079168529968682,0.07079168529968682
267.984,0.010634554004726793,0.010634554004726793
267.985,0.033031844004733135,-0.033031844004733135
267.986,0.05086163066930571,-0.05086163066930571
267.987,0.040118490871010715,-0.040118490871010715
267.988,0.005269485511754657,-0.005269485511754657
267.989,0.04343885646107637,0.04343885646107637
267.99,0.09296722120585788,0.09296722120585788
267.991,0.1311092411357515,0.1311092411357515
267.992,0.1496642570687423,0.1496642570687423
267.993,0.1462469333646259,0.1462469333646259
267.994,0.12428794062190063,0.12428794062190063
267.995,0.09136666608945299,0.09136666608945299
267.996,0.05652923294022849,0.05652923294022849
267.997,0.027517308221235437,0.027517308221235437
267.998,0.00878622107717053,0.00878622107717053
267.999,0.0008568202777545775,0.0008568202777545775
268.0,0.0010526925361362682,0.0010526925361362682
268.001,0.005199939916978424,0.005199939916978424
268.002,0.009573195090391673,0.009573195090391673
268.003,0.012350699069288984,0.012350699069288984
268.004,0.014084604045198068,0.014084604045198068
268.005,0.017098405596248423,0.017098405596248423
268.006,0.024136295762302584,0.024136295762302584
268.007,0.036858176894494665,0.036858176894494665
268.008,0.05480649208728905,0.05480649208728905
268.009,0.07526437673346775,0.07526437673346775
268.01,0.09406448250441568,0.09406448250441568
268.011,0.10703390994939932,0.10703390994939932
268.012,0.11151411643795028,0.11151411643795028
268.013,0.10736587009775933,0.10736587009775933
268.014,0.0970657207629142,0.0970657207629142
268.015,0.08484528857410778,0.08484528857410778
268.016,0.0751867892042759,0.0751867892042759
268.017,0.07123148345080321,0.07123148345080321
268.018,0.07369155477874934,0.07369155477874934
268.019,0.08066834887368546,0.08066834887368546
268.02,0.0884414871716146,0.0884414871716146
268.021,0.09293046796221582,0.09293046796221582
268.022,0.0912782260513012,0.0912782260513012
268.023,0.08295885311729845,0.08295885311729845
268.024,0.0699876485824571,0.0699876485824571
268.025,0.0561467402503375,0.0561467402503375
268.02599999999995,0.045510528981587806,0.045510528981587806
268.027,0.04082501098060276,0.04082501098060276
268.028,0.04236256651497006,0.04236256651497006
268.029,0.047711170092845645,0.047711170092845645
268.03,0.052619991716504,0.052619991716504
268.031,0.052631925215173236,0.052631925215173236
268.032,0.044928944982217,0.044928944982217
268.033,0.02971044662086131,0.02971044662086131
268.034,0.010560573034269272,0.010560573034269272
268.035,0.006404411726807835,-0.006404411726807835
268.036,0.014396505948532257,-0.014396505948532257
268.037,0.008249464672941631,-0.008249464672941631
268.03799999999995,0.013606792134629231,0.013606792134629231
268.039,0.048171594010169905,0.048171594010169905
268.04,0.08827897626684633,0.08827897626684633
268.041,0.1243308580003768,0.1243308580003768
268.042,0.146882042362235,0.146882042362235
268.043,0.14932393175782455,0.14932393175782455
268.044,0.12987137837250318,0.12987137837250318
268.045,0.09226056181581588,0.09226056181581588
268.046,0.04494748843803675,0.04494748843803675
268.047,0.0009656615834369164,-0.0009656615834369164
268.048,0.034491095751985834,-0.034491095751985834
268.049,0.04744410566700552,-0.04744410566700552
268.04999999999995,0.036354505057685005,-0.036354505057685005
268.051,0.0031459196023362335,-0.0031459196023362335
268.052,0.04551211340559069,0.04551211340559069
268.053,0.09991888507185487,0.09991888507185487
268.054,0.14961472888526584,0.14961472888526584
268.055,0.18561794336733595,0.18561794336733595
268.056,0.20211838874691757,0.20211838874691757
268.057,0.19732429993407719,0.19732429993407719
268.058,0.17340617121310142,0.17340617121310142
268.059,0.13569456398154456,0.13569456398154456
268.06,0.09141543518521211,0.09141543518521211
268.061,0.04827315010806177,0.04827315010806177
268.06199999999995,0.013139322701904765,0.013139322701904765
268.063,0.00898293175860565,-0.00898293175860565
268.064,0.015632791601433493,-0.015632791601433493
268.065,0.0071697364398377594,-0.0071697364398377594
268.066,0.013355900587428193,0.013355900587428193
268.067,0.04074004371641826,0.04074004371641826
268.068,0.06854294758875179,0.06854294758875179
268.069,0.09030297749506389,0.09030297749506389
268.07,0.10087580926678452,0.10087580926678452
268.071,0.09764502457522717,0.09764502457522717
268.072,0.08130811284482498,0.08130811284482498
268.073,0.055977547917186454,0.055977547917186454
268.074,0.028463364118235468,0.028463364118235468
268.075,0.006801992981649407,0.006801992981649407
268.076,0.0016849131060852063,-0.0016849131060852063
268.077,0.007653546948275691,0.007653546948275691
268.078,0.03534332391140094,0.03534332391140094
268.079,0.07726657953252647,0.07726657953252647
268.08,0.1252937509719103,0.1252937509719103
268.081,0.16898264869270418,0.16898264869270418
268.082,0.1979637730295365,0.1979637730295365
268.083,0.2044251694463326,0.2044251694463326
268.084,0.1850605139892214,0.1850605139892214
268.085,0.14197078407924613,0.14197078407924613
268.086,0.08228015204013306,0.08228015204013306
268.087,0.016564431113373246,0.016564431113373246
268.088,0.043501047474158394,-0.043501047474158394
268.089,0.08767506971044703,-0.08767506971044703
268.09,0.10924221911611665,-0.10924221911611665
268.091,0.10618324114698441,-0.10618324114698441
268.092,0.08120886181526388,-0.08120886181526388
268.093,0.04074499713494273,-0.04074499713494273
268.094,0.0067878195199415625,0.0067878195199415625
268.095,0.05291817202655591,0.05291817202655591
268.096,0.09081088826227668,0.09081088826227668
268.097,0.11634641409354929,0.11634641409354929
268.098,0.12844372853100872,0.12844372853100872
268.099,0.12868702487850525,0.12868702487850525
268.1,0.12047195542961786,0.12047195542961786
268.101,0.10795511678170033,0.10795511678170033
268.102,0.09506936049558701,0.09506936049558701
268.103,0.08478460846636704,0.08478460846636704
268.104,0.07869071421101426,0.07869071421101426
268.105,0.07689408335660941,0.07689408335660941
268.106,0.0781746696061707,0.0781746696061707
268.107,0.08034330105792553,0.08034330105792553
268.108,0.08075152313912937,0.08075152313912937
268.109,0.07691155450633547,0.07691155450633547
268.11,0.06716490941320297,0.06716490941320297
268.111,0.05129538856165028,0.05129538856165028
268.112,0.030935960910492666,0.030935960910492666
268.113,0.009601732822242637,0.009601732822242637
268.114,0.007778255681183177,-0.007778255681183177
268.115,0.015849042541169256,-0.015849042541169256
268.116,0.010197768759451109,-0.010197768759451109
268.117,0.011200671827412467,0.011200671827412467
268.118,0.04686940607673895,0.04686940607673895
268.119,0.09145303682465977,0.09145303682465977
268.12,0.136347879743679,0.136347879743679
268.121,0.17135486116671128,0.17135486116671128
268.122,0.1870640185864776,0.1870640185864776
268.123,0.1774102294848725,0.1774102294848725
268.124,0.14170106515085323,0.14170106515085323
268.125,0.08547271840501924,0.08547271840501924
268.126,0.0197873029111979,0.0197873029111979
268.127,0.04101088180458845,-0.04101088180458845
268.128,0.08261932366534697,-0.08261932366534697
268.129,0.0943697296388768,-0.0943697296388768
268.13,0.07213280726636873,-0.07213280726636873
268.131,0.019701753560813273,-0.019701753560813273
268.132,0.05180710006946554,0.05180710006946554
268.133,0.12647073639208917,0.12647073639208917
268.134,0.1873918402596939,0.1873918402596939
268.135,0.2208597006347004,0.2208597006347004
268.136,0.2197344980690774,0.2197344980690774
268.137,0.18514406916823334,0.18514406916823334
268.138,0.12603958811043747,0.12603958811043747
268.139,0.0567482076933421,0.0567482076933421
268.14,0.006785043857560069,-0.006785043857560069
268.141,0.05101965523850671,-0.05101965523850671
268.142,0.06800978189914231,-0.06800978189914231
268.143,0.05693241514178726,-0.05693241514178726
268.144,0.02362465370706912,-0.02362465370706912
268.145,0.021617090008517748,0.021617090008517748
268.146,0.06723634181415483,0.06723634181415483
268.147,0.1036269151837057,0.1036269151837057
268.148,0.12542595804676537,0.12542595804676537
268.149,0.13229815943382062,0.13229815943382062
268.15,0.12811966469399771,0.12811966469399771
268.15099999999995,0.11897090739690608,0.11897090739690608
268.152,0.11069097349668477,0.11069097349668477
268.153,0.10682976202264216,0.10682976202264216
268.154,0.10764269374747237,0.10764269374747237
268.155,0.11038062115662473,0.11038062115662473
268.156,0.11067279620133186,0.11067279620133186
268.157,0.10443738119040602,0.10443738119040602
268.158,0.08960078082108569,0.08960078082108569
268.159,0.06700846380049441,0.06700846380049441
268.16,0.040222729812448454,0.040222729812448454
268.161,0.014312670833934726,0.014312670833934726
268.162,0.00589686730249217,-0.00589686730249217
268.16299999999995,0.017462986422618232,-0.017462986422618232
268.164,0.02024454786750718,-0.02024454786750718
268.165,0.016766280137375578,-0.016766280137375578
268.166,0.011076888172396271,-0.011076888172396271
268.167,0.007021139239740237,-0.007021139239740237
268.168,0.0065672664107442325,-0.0065672664107442325
268.169,0.008824072227294533,-0.008824072227294533
268.17,0.01014728470273163,-0.01014728470273163
268.171,0.005352280458652547,-0.005352280458652547
268.172,0.010347368710195148,0.010347368710195148
268.173,0.03933016839988568,0.03933016839988568
268.174,0.08019376228579023,0.08019376228579023
268.17499999999995,0.12753732849576327,0.12753732849576327
268.176,0.173046761366902,0.173046761366902
268.177,0.2076007545087155,0.2076007545087155
268.178,0.2237721568392368,0.2237721568392368
268.179,0.21795620828744622,0.21795620828744622
268.18,0.1914635061117882,0.1914635061117882
268.181,0.1502356673216878,0.1502356673216878
268.182,0.10326981760614595,0.10326981760614595
268.183,0.0602339738645854,0.0602339738645854
268.184,0.028991684053310207,0.028991684053310207
268.185,0.013758576431003755,0.013758576431003755
268.186,0.014391227085930991,0.014391227085930991
268.18699999999995,0.02693939066555373,0.02693939066555373
268.188,0.04520083602298697,0.04520083602298697
268.189,0.06273071676076203,0.06273071676076203
268.19,0.07466144373864592,0.07466144373864592
268.191,0.07880397397951078,0.07880397397951078
268.192,0.07577620239062521,0.07577620239062521
268.193,0.06823777577792645,0.06823777577792645
268.194,0.05958908092017934,0.05958908092017934
268.195,0.052627642888335435,0.052627642888335435
268.196,0.04861453927417525,0.04861453927417525
268.197,0.04701590106475284,0.04701590106475284
268.198,0.045927329687161844,0.045927329687161844
268.199,0.04295693612019291,0.04295693612019291
268.2,0.03621345424939548,0.03621345424939548
268.201,0.025053816134194884,0.025053816134194884
268.202,0.010371646127216083,0.010371646127216083
268.203,0.005605295894887008,-0.005605295894887008
268.204,0.01987032011277412,-0.01987032011277412
268.205,0.029314961389136918,-0.029314961389136918
268.206,0.03130840715825256,-0.03130840715825256
268.207,0.0240552192347665,-0.0240552192347665
268.208,0.006735632969727123,-0.006735632969727123
268.209,0.020468570849990098,0.020468570849990098
268.21,0.056335803708363885,0.056335803708363885
268.211,0.09848751268044609,0.09848751268044609
268.212,0.14323915744048543,0.14323915744048543
268.213,0.18557489784521253,0.18557489784521253
268.214,0.21944444720704293,0.21944444720704293
268.215,0.23852144450423807,0.23852144450423807
268.216,0.23740772564058887,0.23740772564058887
268.217,0.2130670815918725,0.2130670815918725
268.218,0.16610305225561928,0.16610305225561928
268.219,0.10143428986509995,0.10143428986509995
268.22,0.028012385200780532,0.028012385200780532
268.221,0.042537442210517806,-0.042537442210517806
268.222,0.09815573352524509,-0.09815573352524509
268.223,0.128973008342411,-0.128973008342411
268.224,0.12964710384439537,-0.12964710384439537
268.225,0.10075775424080968,-0.10075775424080968
268.226,0.048821568460158615,-0.048821568460158615
268.227,0.01514317104397378,0.01514317104397378
268.228,0.07816627776315177,0.07816627776315177
268.229,0.12833308211674943,0.12833308211674943
268.23,0.15745767508068687,0.15745767508068687
268.231,0.16272596882386692,0.16272596882386692
268.232,0.14691102265138034,0.14691102265138034
268.233,0.11717231564516828,0.11717231564516828
268.234,0.08284487704637922,0.08284487704637922
268.235,0.052884537024346034,0.052884537024346034
268.236,0.03368812438755153,0.03368812438755153
268.237,0.027845831134921895,0.027845831134921895
268.238,0.034068150783844064,0.034068150783844064
268.239,0.048167798923688165,0.048167798923688165
268.24,0.06468264633475784,0.06468264633475784
268.241,0.0785849233935969,0.0785849233935969
268.242,0.08656569467148767,0.08656569467148767
268.243,0.08758109329077124,0.08758109329077124
268.244,0.0826199654793145,0.0826199654793145
268.245,0.07390531294039104,0.07390531294039104
268.246,0.06389355936071506,0.06389355936071506
268.247,0.05444682241732868,0.05444682241732868
268.248,0.046435837534165136,0.046435837534165136
268.249,0.039839477856263406,0.039839477856263406
268.25,0.034215627212920374,0.034215627212920374
268.251,0.029294554901604597,0.029294554901604597
268.252,0.0254265715448021,0.0254265715448021
268.253,0.02369676452703051,0.02369676452703051
268.254,0.025661863726504475,0.025661863726504475
268.255,0.032810704421243786,0.032810704421243786
268.256,0.04594761273609094,0.04594761273609094
268.257,0.06471753541281755,0.06471753541281755
268.258,0.08743433484322916,0.08743433484322916
268.259,0.11126805289960662,0.11126805289960662
268.26,0.13273523367707774,0.13273523367707774
268.261,0.1483568371457189,0.1483568371457189
268.262,0.1553214701967771,0.1553214701967771
268.263,0.15201538524271063,0.15201538524271063
268.264,0.13833458203714954,0.13833458203714954
268.265,0.11575149942267449,0.11575149942267449
268.266,0.08714871688316261,0.08714871688316261
268.267,0.056449163098837296,0.056449163098837296
268.268,0.02807611821545053,0.02807611821545053
268.269,0.006284056708077523,0.006284056708077523
268.27,0.005573513834392418,-0.005573513834392418
268.271,0.005730983272290047,-0.005730983272290047
268.272,0.00549777369504767,0.00549777369504767
268.273,0.025586946417619272,0.025586946417619272
268.274,0.050148998818754675,0.050148998818754675
268.275,0.07378808073060306,0.07378808073060306
268.27599999999995,0.0913292944981714,0.0913292944981714
268.277,0.09914728040492027,0.09914728040492027
268.278,0.09622384916330806,0.09622384916330806
268.279,0.08457521245193855,0.08457521245193855
268.28,0.06882462807435363,0.06882462807435363
268.281,0.05493311800340139,0.05493311800340139
268.282,0.04837480190321086,0.04837480190321086
268.283,0.05226540422501813,0.05226540422501813
268.284,0.06603829770065417,0.06603829770065417
268.285,0.08516336578654604,0.08516336578654604
268.286,0.10212893690655767,0.10212893690655767
268.287,0.10852638191450703,0.10852638191450703
268.28799999999995,0.09770479333331306,0.09770479333331306
268.289,0.06722274943922191,0.06722274943922191
268.29,0.020306936126338826,0.020306936126338826
268.291,0.034240589925023435,-0.034240589925023435
268.292,0.08381671587964878,-0.08381671587964878
268.293,0.11510020115476349,-0.11510020115476349
268.294,0.11764517021259435,-0.11764517021259435
268.295,0.08697802571977453,-0.08697802571977453
268.296,0.026274704009047856,-0.026274704009047856
268.297,0.05393876810656817,0.05393876810656817
268.298,0.13807112588207282,0.13807112588207282
268.299,0.20917401949071612,0.20917401949071612
268.29999999999995,0.25308952959649367,0.25308952959649367
268.301,0.26191010079006305,0.26191010079006305
268.302,0.2358068129726285,0.2358068129726285
268.303,0.18273933156215305,0.18273933156215305
268.304,0.11615830709988173,0.11615830709988173
268.305,0.051371819230966675,0.051371819230966675
268.306,0.0016071389587126728,0.0016071389587126728
268.307,0.025144855024965107,-0.025144855024965107
268.308,0.027673010789302843,-0.027673010789302843
268.309,0.011135521382352409,-0.011135521382352409
268.31,0.0150767382352186,0.0150767382352186
268.311,0.0404949633231555,0.0404949633231555
268.31199999999995,0.056781371819268456,0.056781371819268456
268.313,0.06006298246101904,0.06006298246101904
268.314,0.051762488189775135,0.051762488189775135
268.315,0.03776681503987178,0.03776681503987178
268.316,0.02626468254033787,0.02626468254033787
268.317,0.02495440308074226,0.02495440308074226
268.318,0.03847212115216325,0.03847212115216325
268.319,0.06678826517986369,0.06678826517986369
268.32,0.10500983313982015,0.10500983313982015
268.321,0.14460842302696286,0.14460842302696286
268.322,0.17569260563243438,0.17569260563243438
268.323,0.18966908713277886,0.18966908713277886
268.324,0.18155757960841146,0.18155757960841146
268.325,0.15134831312353692,0.15134831312353692
268.326,0.10407162418138727,0.10407162418138727
268.327,0.04860074412982396,0.04860074412982396
268.328,0.004465419784399627,-0.004465419784399627
268.329,0.04527547109955221,-0.04527547109955221
268.33,0.06692952982061873,-0.06692952982061873
268.331,0.06688825429957068,-0.06688825429957068
268.332,0.047284984720777024,-0.047284984720777024
268.333,0.01412412390009432,-0.01412412390009432
268.334,0.024378320494021555,0.024378320494021555
268.335,0.059860649563047374,0.059860649563047374
268.336,0.08576106144021756,0.08576106144021756
268.337,0.09867300198260409,0.09867300198260409
268.338,0.0988102375903126,0.0988102375903126
268.339,0.08951940064214226,0.08951940064214226
268.34,0.07602338111500306,0.07602338111500306
268.341,0.06377115235251596,0.06377115235251596
268.342,0.056860301486709286,0.056860301486709286
268.343,0.05696450318408841,0.05696450318408841
268.344,0.0630477873091444,0.0630477873091444
268.345,0.07191989935421783,0.07191989935421783
268.346,0.07944367616052661,0.07944367616052661
268.347,0.08201428705796454,0.08201428705796454
268.348,0.077847732144257,0.077847732144257
268.349,0.06766972424654183,0.06766972424654183
268.35,0.05457484845968552,0.05457484845968552
268.351,0.043080506409497454,0.043080506409497454
268.352,0.03765577379707308,0.03765577379707308
268.353,0.04118278228402028,0.04118278228402028
268.354,0.053848512013168426,0.053848512013168426
268.355,0.07284883731453262,0.07284883731453262
268.356,0.09304369548210745,0.09304369548210745
268.357,0.10840375305210781,0.10840375305210781
268.358,0.11382781782966367,0.11382781782966367
268.359,0.10677204622011272,0.10677204622011272
268.36,0.0881667988596182,0.0881667988596182
268.361,0.062301275048774585,0.062301275048774585
268.362,0.03567119301884891,0.03567119301884891
268.363,0.015113646179930385,0.015113646179930385
268.364,0.00579026336641153,0.00579026336641153
268.365,0.009645090299366776,0.009645090299366776
268.366,0.024830261031584477,0.024830261031584477
268.367,0.04629731191686837,0.04629731191686837
268.368,0.06738553862254237,0.06738553862254237
268.369,0.0819176519566649,0.0819176519566649
268.37,0.08614220551998475,0.08614220551998475
268.371,0.07990068326406141,0.07990068326406141
268.372,0.06663690156886748,0.06663690156886748
268.373,0.052233936250319246,0.052233936250319246
268.374,0.043042452079728344,0.043042452079728344
268.375,0.04373154171097471,0.04373154171097471
268.376,0.055660442207931204,0.055660442207931204
268.377,0.07631172093337546,0.07631172093337546
268.378,0.09999124451225971,0.09999124451225971
268.379,0.11959317614968401,0.11959317614968401
268.38,0.12887971771597972,0.12887971771597972
268.381,0.12454836930229352,0.12454836930229352
268.382,0.1074132251849853,0.1074132251849853
268.383,0.0822969610880524,0.0822969610880524
268.384,0.05663308926852606,0.05663308926852606
268.385,0.03818723964425752,0.03818723964425752
268.386,0.03259237914274493,0.03259237914274493
268.387,0.04146497228579782,0.04146497228579782
268.388,0.06170308140791936,0.06170308140791936
268.389,0.08621368670656082,0.08621368670656082
268.39,0.10588378303349733,0.10588378303349733
268.391,0.11223087982139868,0.11223087982139868
268.392,0.09995891315393068,0.09995891315393068
268.393,0.06866809375415617,0.06866809375415617
268.394,0.023213434731956806,0.023213434731956806
268.395,0.02739930878889585,-0.02739930878889585
268.396,0.07226891112961975,-0.07226891112961975
268.397,0.10136785295651973,-0.10136785295651973
268.398,0.10805268871399598,-0.10805268871399598
268.399,0.0906330365941932,-0.0906330365941932
268.4,0.052599921926608006,-0.052599921926608006
268.40099999999995,0.0015026047159444333,-0.0015026047159444333
268.402,0.05315924215799073,0.05315924215799073
268.403,0.10240248052239576,0.10240248052239576
268.404,0.1398910839266725,0.1398910839266725
268.405,0.16316565542392403,0.16316565542392403
268.406,0.1736923475587573,0.1736923475587573
268.407,0.17580226460835924,0.17580226460835924
268.408,0.1749048752725888,0.1749048752725888
268.409,0.1755454475392053,0.1755454475392053
268.41,0.17988961968947814,0.17988961968947814
268.411,0.18706259704055395,0.18706259704055395
268.412,0.1934990002254613,0.1934990002254613
268.41299999999995,0.19415573704046185,0.19415573704046185
268.414,0.18419341817404966,0.18419341817404966
268.415,0.1606103862617585,0.1606103862617585
268.416,0.12334685669281287,0.12334685669281287
268.417,0.07554860270187258,0.07554860270187258
268.418,0.022934460901751885,0.022934460901751885
268.419,0.02752757029541164,-0.02752757029541164
268.42,0.06924055526893858,-0.06924055526893858
268.421,0.09743252676635283,-0.09743252676635283
268.422,0.11005149133595493,-0.11005149133595493
268.423,0.10789068082636744,-0.10789068082636744
268.424,0.09396863410102874,-0.09396863410102874
268.42499999999995,0.07240581958261583,-0.07240581958261583
268.426,0.04717392101561624,-0.04717392101561624
268.427,0.02110785757358713,-0.02110785757358713
268.428,0.004536191050256599,0.004536191050256599
268.429,0.029884423989255726,0.029884423989255726
268.43,0.055731681122758836,0.055731681122758836
268.431,0.0825992523006216,0.0825992523006216
268.432,0.10992326534642038,0.10992326534642038
268.433,0.13568380295355498,0.13568380295355498
268.434,0.15663379116418508,0.15663379116418508
268.435,0.1690826261200058,0.1690826261200058
268.436,0.16999855371745598,0.16999855371745598
268.43699999999995,0.15807786232630794,0.15807786232630794
268.438,0.13442585603763235,0.13442585603763235
268.439,0.10260602005751762,0.10260602005751762
268.44,0.06800467055254722,0.06800467055254722
268.441,0.03666810527363462,0.03666810527363462
268.442,0.01393131115232249,0.01393131115232249
268.443,0.0032206690098111057,0.0032206690098111057
268.444,0.005358790299045957,0.005358790299045957
268.445,0.01854641049991912,0.01854641049991912
268.446,0.03899419692712125,0.03899419692712125
268.447,0.06199095774372787,0.06199095774372787
268.448,0.083081805631944,0.083081805631944
268.449,0.09902257213467958,0.09902257213467958
268.45,0.10827209947869254,0.10827209947869254
268.451,0.11094576269024192,0.11094576269024192
268.452,0.10832567090283285,0.10832567090283285
268.453,0.10214914503717876,0.10214914503717876
268.454,0.09393958512304534,0.09393958512304534
268.455,0.08459545745641073,0.08459545745641073
268.456,0.07433776940387404,0.07433776940387404
268.457,0.06297904554058253,0.06297904554058253
268.458,0.05036653037572014,0.05036653037572014
268.459,0.03680473840530052,0.03680473840530052
268.46,0.02328806020197538,0.02328806020197538
268.461,0.011456471749358155,0.011456471749358155
268.462,0.0032912780697333943,0.0032912780697333943
268.463,0.0006539166683028341,0.0006539166683028341
268.464,0.00481085495928224,0.00481085495928224
268.465,0.016074069944238323,0.016074069944238323
268.466,0.033633667104692844,0.033633667104692844
268.467,0.055594616420267196,0.055594616420267196
268.468,0.079181432136058,0.079181432136058
268.469,0.10105871828606672,0.10105871828606672
268.47,0.11772892912381971,0.11772892912381971
268.471,0.1259923049281222,0.1259923049281222
268.472,0.12346281053445751,0.12346281053445751
268.473,0.10911111969114096,0.10911111969114096
268.474,0.08375318576913227,0.08375318576913227
268.475,0.0503439093250464,0.0503439093250464
268.476,0.013906258262920579,0.013906258262920579
268.477,0.019039528058190758,-0.019039528058190758
268.478,0.04157136651098159,-0.04157136651098159
268.479,0.04784236424241328,-0.04784236424241328
268.48,0.03462245766980099,-0.03462245766980099
268.481,0.0024751857551259526,-0.0024751857551259526
268.482,0.043850905464656975,0.043850905464656975
268.483,0.09608023780935371,0.09608023780935371
268.484,0.1441022565788419,0.1441022565788419
268.485,0.17835537588806116,0.17835537588806116
268.486,0.19229204456232818,0.19229204456232818
268.487,0.18420597555353901,0.18420597555353901
268.488,0.15781515388903045,0.15781515388903045
268.489,0.12131876070978698,0.12131876070978698
268.49,0.08509901589262281,0.08509901589262281
268.491,0.05868249364320355,0.05868249364320355
268.492,0.047860367189068276,0.047860367189068276
268.493,0.05288312311777976,0.05288312311777976
268.494,0.06836347396128084,0.06836347396128084
268.495,0.08501076435876764,0.08501076435876764
268.496,0.09273317014127458,0.09273317014127458
268.497,0.0841697434809856,0.0841697434809856
268.498,0.0575176506491204,0.0575176506491204
268.499,0.01768342856490479,0.01768342856490479
268.5,0.024721924580934473,-0.024721924580934473
268.501,0.05634946874158808,-0.05634946874158808
268.502,0.0651998979273053,-0.0651998979273053
268.503,0.04458768171120342,-0.04458768171120342
268.504,0.00428190360606151,0.00428190360606151
268.505,0.07199958602749623,0.07199958602749623
268.506,0.14309809488298875,0.14309809488298875
268.507,0.20008890779079747,0.20008890779079747
268.508,0.22822000905990136,0.22822000905990136
268.509,0.21954325913852601,0.21954325913852601
268.51,0.17508091505633971,0.17508091505633971
268.511,0.10446360645403008,0.10446360645403008
268.512,0.023190382543210708,0.023190382543210708
268.513,0.05161578292499058,-0.05161578292499058
268.514,0.10564913328183556,-0.10564913328183556
268.515,0.13074151248979693,-0.13074151248979693
268.516,0.12615523228670222,-0.12615523228670222
268.517,0.09762828160354942,-0.09762828160354942
268.518,0.054680339255058774,-0.054680339255058774
268.519,0.007214858949579406,-0.007214858949579406
268.52,0.03739305088404077,0.03739305088404077
268.521,0.07579106488413068,0.07579106488413068
268.522,0.10836194912571484,0.10836194912571484
268.523,0.13745851808738108,0.13745851808738108
268.524,0.16499782374473604,0.16499782374473604
268.525,0.1904591200853376,0.1904591200853376
268.52599999999995,0.21014566854322791,0.21014566854322791
268.527,0.2180659450594411,0.2180659450594411
268.528,0.20815194244200996,0.20815194244200996
268.529,0.17699486458888702,0.17699486458888702
268.53,0.12603897306982392,0.12603897306982392
268.531,0.062323135651687345,0.062323135651687345
268.532,0.002652106709151947,-0.002652106709151947
268.533,0.055697375499696,-0.055697375499696
268.534,0.0855198650743757,-0.0855198650743757
268.535,0.08597679990725426,-0.08597679990725426
268.536,0.057926228274951086,-0.057926228274951086
268.537,0.009047634709472008,-0.009047634709472008
268.53799999999995,0.04833381549449034,0.04833381549449034
268.539,0.10073362866521096,0.10073362866521096
268.54,0.13720025942794,0.13720025942794
268.541,0.15206423850873407,0.15206423850873407
268.542,0.1459354342144219,0.1459354342144219
268.543,0.12474158315899175,0.12474158315899175
268.544,0.09725259912535189,0.09725259912535189
268.545,0.07201100695174101,0.07201100695174101
268.546,0.05473035081306987,0.05473035081306987
268.547,0.04699282302673824,0.04699282302673824
268.548,0.046568883489319646,0.046568883489319646
268.549,0.04908530221289564,0.04908530221289564
268.54999999999995,0.05029977943273667,0.05029977943273667
268.551,0.048063908475748596,0.048063908475748596
268.552,0.04322553438631682,0.04322553438631682
268.553,0.039163055263109925,0.039163055263109925
268.554,0.04018643800795774,0.04018643800795774
268.555,0.04947775783256514,0.04947775783256514
268.556,0.06741551571924709,0.06741551571924709
268.557,0.0909714055072699,0.0909714055072699
268.558,0.11444841345177759,0.11444841345177759
268.559,0.1313067463125921,0.1313067463125921
268.56,0.1363985215829353,0.1363985215829353
268.561,0.1277658235735688,0.1277658235735688
268.56199999999995,0.10731407093973844,0.10731407093973844
268.563,0.08009566292871884,0.08009566292871884
268.564,0.05246836365745211,0.05246836365745211
268.565,0.029827634450019236,0.029827634450019236
268.566,0.014784358871345882,0.014784358871345882
268.567,0.006498510197383567,0.006498510197383567
268.568,0.0014399990679319075,0.0014399990679319075
268.569,0.0047080786171340705,-0.0047080786171340705
268.57,0.014751266224674375,-0.014751266224674375
