Czas,AbsSum,Sum
55.648,0.049889216744694376,-0.049889216744694376
55.649,0.05956015839659212,0.05956015839659212
55.65,0.15795210756053124,0.15795210756053124
55.651,0.21958150029480739,0.21958150029480739
55.652,0.22546141328537628,0.22546141328537628
55.653,0.16949621944082316,0.16949621944082316
55.654,0.061448804164415005,0.061448804164415005
55.655,0.07438706216605873,-0.07438706216605873
55.656,0.20465660530663898,-0.20465660530663898
55.657,0.29516784601448487,-0.29516784601448487
55.658,0.31963500987988647,-0.31963500987988647
55.659,0.26651794786707816,-0.26651794786707816
55.66,0.1420647566531864,-0.1420647566531864
55.661,0.031245532656627217,0.031245532656627217
55.662,0.22034919667335573,0.22034919667335573
55.663,0.38968411921668356,0.38968411921668356
55.664,0.5094452191493386,0.5094452191493386
55.665,0.5618040508785329,0.5618040508785329
55.666,0.5435958394655953,0.5435958394655953
55.667,0.46508435243201873,0.46508435243201873
55.668,0.34556366715597253,0.34556366715597253
55.669,0.20739229742770293,0.20739229742770293
55.67,0.07034176143128068,0.07034176143128068
55.671,0.05217201938186844,-0.05217201938186844
55.672,0.15417649889817242,-0.15417649889817242
55.673,0.23569740192077682,-0.23569740192077682
55.674,0.29973051807609363,-0.29973051807609363
55.675,0.34898692627440986,-0.34898692627440986
55.676,0.3836765153746179,-0.3836765153746179
55.677,0.40107478261894525,-0.40107478261894525
55.678,0.39687989359995346,-0.39687989359995346
55.679,0.36768185926348906,-0.36768185926348906
55.68,0.31346972254715055,-0.31346972254715055
55.681,0.2391185873362046,-0.2391185873362046
55.682,0.15419926351058,-0.15419926351058
55.683,0.07107971822819026,-0.07107971822819026
55.684,0.0019090230279076303,-0.0019090230279076303
55.685,0.04452704572206767,0.04452704572206767
55.686,0.0650451223507631,0.0650451223507631
55.687,0.06267662420271236,0.06267662420271236
55.688,0.04548022975956645,0.04548022975956645
55.689,0.02396954122933681,0.02396954122933681
55.69,0.007998487262119491,0.007998487262119491
55.691,0.004077792964071625,0.004077792964071625
55.692,0.013901915553587108,0.013901915553587108
55.693,0.034430824003535365,0.034430824003535365
55.694,0.059355010682831555,0.059355010682831555
55.695,0.0813522947367431,0.0813522947367431
55.696,0.0943536427646201,0.0943536427646201
55.697,0.09511749075647113,0.09511749075647113
55.698,0.08371637671562637,0.08371637671562637
55.699,0.06294283333087392,0.06294283333087392
55.7,0.036996716412145414,0.036996716412145414
55.701,0.010006314249337178,0.010006314249337178
55.702,0.015088113087988186,-0.015088113087988186
55.703,0.036966134666312045,-0.036966134666312045
55.704,0.05564791704659322,-0.05564791704659322
55.705,0.07174624207716085,-0.07174624207716085
55.706,0.08563778507477138,-0.08563778507477138
55.707,0.09692292197771046,-0.09692292197771046
55.708,0.10438358924067792,-0.10438358924067792
55.709,0.10642242115825018,-0.10642242115825018
55.71,0.10176695473710617,-0.10176695473710617
55.711,0.09012567725301612,-0.09012567725301612
55.712,0.07251827641702202,-0.07251827641702202
55.713,0.05114705749313553,-0.05114705749313553
55.714,0.028865525419708993,-0.028865525419708993
55.715,0.008455750671811368,-0.008455750671811368
55.716,0.008011504160769345,0.008011504160769345
55.717,0.01951020627967459,0.01951020627967459
55.718,0.025998739665444415,0.025998739665444415
55.719,0.028041554982206618,0.028041554982206618
55.72,0.0263107700917129,0.0263107700917129
55.721,0.021199566648601786,0.021199566648601786
55.722,0.01271478726940889,0.01271478726940889
55.723,0.0006839300633971757,0.0006839300633971757
55.724,0.0148310607664085,-0.0148310607664085
55.725,0.03311441232701762,-0.03311441232701762
55.726,0.05257917586059624,-0.05257917586059624
55.727,0.07087759060530963,-0.07087759060530963
55.728,0.08532984384927877,-0.08532984384927877
55.729,0.09353064107712761,-0.09353064107712761
55.73,0.0939199960910666,-0.0939199960910666
55.731,0.08611977317061426,-0.08611977317061426
55.732,0.0709337194438755,-0.0709337194438755
55.733,0.050045050048313056,-0.050045050048313056
55.734,0.025564154474790657,-0.025564154474790657
55.735,0.00037115861342695844,0.00037115861342695844
55.736,0.025781582635121092,0.025781582635121092
55.737,0.04877298029242838,0.04877298029242838
55.738,0.06729994522506999,0.06729994522506999
55.739,0.07896717057868452,0.07896717057868452
55.74,0.08108715774209707,0.08108715774209707
55.741,0.07112671892182121,0.07112671892182121
55.742,0.04751098886211658,0.04751098886211658
55.743,0.010572940881047765,0.010572940881047765
55.744,0.03668818959289233,-0.03668818959289233
55.745,0.08838732338741073,-0.08838732338741073
55.746,0.13630020256385744,-0.13630020256385744
55.747,0.17118246905741052,-0.17118246905741052
55.748,0.1846157055835188,-0.1846157055835188
55.749,0.1709392204692337,-0.1709392204692337
55.75,0.12875745009271466,-0.12875745009271466
55.751,0.06160031720016468,-0.06160031720016468
55.752,0.022465952498051056,0.022465952498051056
55.753,0.11219656745840179,0.11219656745840179
55.754,0.19515760703984797,0.19515760703984797
55.755,0.2598625215703081,0.2598625215703081
55.756,0.2975731927086238,0.2975731927086238
55.757,0.3034244135187303,0.3034244135187303
55.758,0.2767535033801489,0.2767535033801489
55.759,0.22073898248957735,0.22073898248957735
55.76,0.14159843519541915,0.14159843519541915
55.761,0.04762516755562296,0.04762516755562296
55.762,0.05173614225990464,-0.05173614225990464
55.763,0.14671174136787046,-0.14671174136787046
55.764,0.2279787538620156,-0.2279787538620156
55.765,0.2875084999618662,-0.2875084999618662
55.766,0.31952236117233224,-0.31952236117233224
55.767,0.3214733615576796,-0.3214733615576796
55.768,0.2948153371135165,-0.2948153371135165
55.769,0.24523493995264456,-0.24523493995264456
55.77,0.18206196294378685,-0.18206196294378685
55.771,0.11675624709110077,-0.11675624709110077
55.772,0.060651708318440245,-0.060651708318440245
55.773,0.02242831379339616,-0.02242831379339616
55.774,0.005971560919989294,-0.005971560919989294
55.775,0.00927863451584976,-0.00927863451584976
55.776,0.02485096675022702,-0.02485096675022702
55.777,0.04161921135391866,-0.04161921135391866
55.778,0.047989611116004416,-0.047989611116004416
55.779,0.03522437079469953,-0.03522437079469953
55.78,0.00020280301896691277,-0.00020280301896691277
55.781,0.053274934117601314,0.053274934117601314
55.782,0.11510042535251896,0.11510042535251896
55.783,0.1713045070867989,0.1713045070867989
55.784,0.20771682674748715,0.20771682674748715
55.785,0.2138388849464503,0.2138388849464503
55.786,0.18584228937558134,0.18584228937558134
55.787,0.12783406699646394,0.12783406699646394
55.788,0.05101592468744798,0.05101592468744798
55.789,0.029039811308928076,-0.029039811308928076
55.79,0.09624646873065534,-0.09624646873065534
55.791,0.1379358819541021,-0.1379358819541021
55.792,0.14781744627382032,-0.14781744627382032
55.793,0.1272180079054942,-0.1272180079054942
55.794,0.08436151636624778,-0.08436151636624778
55.795,0.031994059546100906,-0.031994059546100906
55.796,0.01591346847063968,0.01591346847063968
55.797,0.04746366531699353,0.04746366531699353
55.798,0.055297074966009996,0.055297074966009996
55.799,0.03770221044443267,0.03770221044443267
55.8,0.0017213908055213611,-0.0017213908055213611
55.801,0.05553674730325242,-0.05553674730325242
55.802,0.11450998132900791,-0.11450998132900791
55.803,0.16959405147255813,-0.16959405147255813
55.804,0.213373186771725,-0.213373186771725
55.805,0.24075071834928619,-0.24075071834928619
55.806,0.24894821848614923,-0.24894821848614923
55.807,0.23709072133347286,-0.23709072133347286
55.808,0.20572113763487931,-0.20572113763487931
55.809,0.15651178119816744,-0.15651178119816744
55.81,0.09226891296899375,-0.09226891296899375
55.811,0.017134686931303378,-0.017134686931303378
55.812,0.0632424088156105,0.0632424088156105
55.813,0.14182240985572792,0.14182240985572792
55.814,0.21073789635436357,0.21073789635436357
55.815,0.26230317705626205,0.26230317705626205
55.816,0.2902832354852869,0.2902832354852869
55.817,0.29110952808622725,0.29110952808622725
55.818,0.2647025768535991,0.2647025768535991
55.819,0.21464488961884176,0.21464488961884176
55.82,0.14761468987346782,0.14761468987346782
55.821,0.07218747724759811,0.07218747724759811
55.822,0.002722151281211671,-0.002722151281211671
55.823,0.06941922674016276,-0.06941922674016276
55.824,0.12264071859546377,-0.12264071859546377
55.825,0.16017518341974468,-0.16017518341974468
55.826,0.18279799233490523,-0.18279799233490523
55.827,0.19359319831401633,-0.19359319831401633
55.828,0.19686291494544406,-0.19686291494544406
55.829,0.19689564532811044,-0.19689564532811044
55.83,0.19686939097282563,-0.19686939097282563
55.831,0.19811329669502198,-0.19811329669502198
55.832,0.1998624170357588,-0.1998624170357588
55.833,0.19953530595514613,-0.19953530595514613
55.834,0.19346174435552477,-0.19346174435552477
55.835,0.17790161954910677,-0.17790161954910677
55.836,0.15013615916773881,-0.15013615916773881
55.837,0.10938861466584049,-0.10938861466584049
55.838,0.05735129232751912,-0.05735129232751912
55.839,0.0018360222151849737,0.0018360222151849737
55.84,0.062198849249519794,0.062198849249519794
55.841,0.1170350151492745,0.1170350151492745
55.842,0.16028230423453227,0.16028230423453227
55.843,0.18781796929142214,0.18781796929142214
55.844,0.1983429635191596,0.1983429635191596
55.845,0.1935818224717747,0.1935818224717747
55.846,0.1776962922512264,0.1776962922512264
55.847,0.15602955787130268,0.15602955787130268
55.848,0.1335075604252529,0.1335075604252529
55.849,0.11315719496666099,0.11315719496666099
55.85,0.09520629220263133,0.09520629220263133
55.851,0.07709045595147002,0.07709045595147002
55.852,0.05443565426825869,0.05443565426825869
55.853,0.022782732464880384,0.022782732464880384
55.854,0.020437066859517294,-0.020437066859517294
55.855,0.0742916806150331,-0.0742916806150331
55.856,0.1336610602819519,-0.1336610602819519
55.857,0.18979392807398554,-0.18979392807398554
55.858,0.23207348744107725,-0.23207348744107725
55.859,0.2505866584629256,-0.2505866584629256
55.86,0.2388204370042588,-0.2388204370042588
55.861,0.19572661139853786,-0.19572661139853786
55.862,0.12653641687997974,-0.12653641687997974
55.863,0.042035692808495284,-0.042035692808495284
55.864,0.04356503673363621,0.04356503673363621
55.865,0.1156378137354852,0.1156378137354852
55.866,0.1622493762163757,0.1622493762163757
55.867,0.17658309904187575,0.17658309904187575
55.868,0.15808059858479906,0.15808059858479906
55.869,0.11208100644006769,0.11208100644006769
55.87,0.048153884543736813,0.048153884543736813
55.871,0.022336705216427832,-0.022336705216427832
55.872,0.08873340545678876,-0.08873340545678876
55.873,0.14299913190807212,-0.14299913190807212
55.874,0.18062953305242302,-0.18062953305242302
55.875,0.2004932408954765,-0.2004932408954765
55.876,0.203860134721072,-0.203860134721072
55.877,0.19309391956728783,-0.19309391956728783
55.878,0.17052515406070023,-0.17052515406070023
55.879,0.13788454126539795,-0.13788454126539795
55.88,0.09642202261058053,-0.09642202261058053
55.881,0.047559156667514424,-0.047559156667514424
55.882,0.006282602343211208,0.006282602343211208
55.883,0.06109961878144454,0.06109961878144454
55.884,0.11129959659264888,0.11129959659264888
55.885,0.1503898075673078,0.1503898075673078
55.886,0.1722256410564047,0.1722256410564047
55.887,0.1724770614778366,0.1724770614778366
55.888,0.1498766836112284,0.1498766836112284
55.889,0.10686156254701906,0.10686156254701906
55.89,0.04939160552487243,0.04939160552487243
55.891,0.014037793898820428,-0.014037793898820428
55.892,0.0739484426215804,-0.0739484426215804
55.893,0.12161306096272917,-0.12161306096272917
55.894,0.15055859502779245,-0.15055859502779245
55.895,0.1575159424163799,-0.1575159424163799
55.896,0.14266027825809913,-0.14266027825809913
55.897,0.10917660441075772,-0.10917660441075772
55.898,0.062342570601066516,-0.062342570601066516
55.899,0.008406291340821603,-0.008406291340821603
55.9,0.04646132389068813,0.04646132389068813
55.901,0.09692863567277121,0.09692863567277121
55.902,0.13887689249575086,0.13887689249575086
55.903,0.16939618274835389,0.16939618274835389
55.904,0.18650604060030584,0.18650604060030584
55.905,0.18875765757793705,0.18875765757793705
55.906,0.17488957171145803,0.17488957171145803
55.907,0.14368824216023546,0.14368824216023546
55.908,0.09415505849913286,0.09415505849913286
55.909,0.026007079458506777,0.026007079458506777
55.91,0.05955424628830108,-0.05955424628830108
55.911,0.1589731840522105,-0.1589731840522105
55.912,0.2656245137100164,-0.2656245137100164
55.913,0.3695569808641852,-0.3695569808641852
55.914,0.45797530482682314,-0.45797530482682314
55.915,0.5166235974675091,-0.5166235974675091
55.916,0.532026125519768,-0.532026125519768
55.917,0.4942804865588799,-0.4942804865588799
55.918,0.39985031467631194,-0.39985031467631194
55.919,0.2536524071244767,-0.2536524071244767
55.92,0.06975003377400191,-0.06975003377400191
55.921,0.1298143247456729,0.1298143247456729
55.922,0.31811088370581464,0.31811088370581464
55.923,0.4679060237999153,0.4679060237999153
55.924,0.5568455503914194,0.5568455503914194
55.925,0.5720688206235323,0.5720688206235323
55.926,0.51309715675002,0.51309715675002
55.927,0.39217464456660966,0.39217464456660966
55.928,0.23183405193667017,0.23183405193667017
55.929,0.06016655728533915,0.06016655728533915
55.93,0.09510532908861047,-0.09510532908861047
55.931,0.2123036370070157,-0.2123036370070157
55.932,0.27981240604726987,-0.27981240604726987
55.933,0.29746594853076613,-0.29746594853076613
55.934,0.2750550944629313,-0.2750550944629313
55.935,0.22849352083322705,-0.22849352083322705
55.936,0.17482299517567712,-0.17482299517567712
55.937,0.12752239403702603,-0.12752239403702603
55.938,0.09343310162230134,-0.09343310162230134
55.939,0.07207077236330295,-0.07207077236330295
55.94,0.05733137792616594,-0.05733137792616594
55.941,0.04085891761315141,-0.04085891761315141
55.942,0.01585705295981432,-0.01585705295981432
55.943,0.019952157857901387,0.019952157857901387
55.944,0.06317485903633324,0.06317485903633324
55.945,0.10570384060520155,0.10570384060520155
55.946,0.13736884803733918,0.13736884803733918
55.947,0.14929758162351514,0.14929758162351514
55.948,0.13679782523297157,0.13679782523297157
55.949,0.10078071807538524,0.10078071807538524
55.95,0.04729289969380379,0.04729289969380379
55.951,0.014586356665381661,-0.014586356665381661
55.952,0.07564449218632874,-0.07564449218632874
55.953,0.1291258039612877,-0.1291258039612877
55.954,0.17205212673826542,-0.17205212673826542
55.955,0.20482094484357538,-0.20482094484357538
55.956,0.2293131986983511,-0.2293131986983511
55.957,0.24635378085335358,-0.24635378085335358
55.958,0.25367109682610645,-0.25367109682610645
55.959,0.2453704680029919,-0.2453704680029919
55.96,0.21339702034849017,-0.21339702034849017
55.961,0.15069580117934578,-0.15069580117934578
55.962,0.055052347437060445,-0.055052347437060445
55.963,0.06781219737903665,0.06781219737903665
55.964,0.20323656354520736,0.20323656354520736
55.965,0.3294700651855682,0.3294700651855682
55.966,0.42222977342564594,0.42222977342564594
55.967,0.4608635242439896,0.4608635242439896
55.968,0.4343540356620452,0.4343540356620452
55.969,0.3452701960133513,0.3452701960133513
55.97,0.2102568473682589,0.2102568473682589
55.971,0.05663137893294645,0.05663137893294645
55.972,0.08416841763578276,-0.08416841763578276
55.973,0.18453696838070077,-0.18453696838070077
55.974,0.22780422406181355,-0.22780422406181355
55.975,0.212418894993748,-0.212418894993748
55.976,0.15196424413601983,-0.15196424413601983
55.977,0.07098276793085023,-0.07098276793085023
55.978,0.002166664683464603,0.002166664683464603
55.979,0.04331447575934022,0.04331447575934022
55.98,0.03900589220821238,0.03900589220821238
55.981,0.010317682260364225,-0.010317682260364225
55.982,0.09130221228397684,-0.09130221228397684
55.983,0.1823735505062627,-0.1823735505062627
55.984,0.2605744457974909,-0.2605744457974909
55.985,0.3083844024945931,-0.3083844024945931
55.986,0.3184504214224595,-0.3184504214224595
55.987,0.2948871221015372,-0.2948871221015372
55.988,0.2509275009266917,-0.2509275009266917
55.989,0.2038539405823493,-0.2038539405823493
55.99,0.16894915138719802,-0.16894915138719802
55.991,0.15443455176868048,-0.15443455176868048
55.992,0.15896019916072246,-0.15896019916072246
55.993,0.1723309650012903,-0.1723309650012903
55.994,0.17909981516734197,-0.17909981516734197
55.995,0.1637751317299262,-0.1637751317299262
55.996,0.11594821723805881,-0.11594821723805881
55.997,0.03376574201401206,-0.03376574201401206
55.998,0.07522110933073467,0.07522110933073467
55.999,0.19592901166955579,0.19592901166955579
56.0,0.3095985290597236,0.3095985290597236
56.001,0.39835999310079817,0.39835999310079817
56.002,0.4491484316353396,0.4491484316353396
56.003,0.4559579047446547,0.4559579047446547
56.004,0.4200588564378571,0.4200588564378571
56.005,0.34847930670810223,0.34847930670810223
56.006,0.2515392928692779,0.2515392928692779
56.007,0.14038117720072862,0.14038117720072862
56.008,0.025240642546725534,0.025240642546725534
56.009,0.08523405951913687,-0.08523405951913687
56.01,0.1837942909719068,-0.1837942909719068
56.011,0.2640587844564313,-0.2640587844564313
56.012,0.3202385328083496,-0.3202385328083496
56.013,0.3475179624909238,-0.3475179624909238
56.014,0.34310759686206094,-0.34310759686206094
56.015,0.3075852034977026,-0.3075852034977026
56.016,0.24589954411927817,-0.24589954411927817
56.017,0.16742952090830598,-0.16742952090830598
56.018,0.08477430956411247,-0.08477430956411247
56.019,0.011395595589840157,-0.011395595589840157
56.02,0.04132509238258075,0.04132509238258075
56.021,0.0667810366861239,0.0667810366861239
56.022,0.06476305530567683,0.06476305530567683
56.023,0.04147998945670306,0.04147998945670306
56.024,0.007927213907638953,0.007927213907638953
56.025,0.02294395563630469,-0.02294395563630469
56.026,0.03945020176653691,-0.03945020176653691
56.027,0.033901155515970394,-0.033901155515970394
56.028,0.004133241524128972,-0.004133241524128972
56.029,0.04643322271273931,0.04643322271273931
56.03,0.11003609041747353,0.11003609041747353
56.031,0.1765770113107883,0.1765770113107883
56.032,0.23571714186078285,0.23571714186078285
56.033,0.2784994098335438,0.2784994098335438
56.034,0.29822564145787256,0.29822564145787256
56.035,0.290660179725061,0.290660179725061
56.036,0.2538844152125399,0.2538844152125399
56.037,0.18819129885805408,0.18819129885805408
56.038,0.09626972109778165,0.09626972109778165
56.039,0.016343372809742296,-0.016343372809742296
56.04,0.1408420732491279,-0.1408420732491279
56.041,0.26520975301477534,-0.26520975301477534
56.042,0.3751432510808861,-0.3751432510808861
56.043,0.4559619098506559,-0.4559619098506559
56.044,0.4952373569988362,-0.4952373569988362
56.045,0.48552853613600033,-0.48552853613600033
56.046,0.42643301043009774,-0.42643301043009774
56.047,0.3252579726166711,-0.3252579726166711
56.048,0.19596493472152543,-0.19596493472152543
56.049,0.05654507582653545,-0.05654507582653545
56.05,0.07453085517774372,0.07453085517774372
56.051,0.18184475256921706,0.18184475256921706
56.052,0.25560130944995496,0.25560130944995496
56.053,0.29259782180586646,0.29259782180586646
56.054,0.2954673475465792,0.2954673475465792
56.055,0.2706118368078181,0.2706118368078181
56.056,0.2256280277092224,0.2256280277092224
56.057,0.1671260494060427,0.1671260494060427
56.058,0.09962025071925584,0.09962025071925584
56.059,0.02571989854120682,0.02571989854120682
56.06,0.052666278975985414,-0.052666278975985414
56.061,0.13278216063194348,-0.13278216063194348
56.062,0.20991667950326132,-0.20991667950326132
56.063,0.27732271747525994,-0.27732271747525994
56.064,0.32731722261907426,-0.32731722261907426
56.065,0.35321883304666624,-0.35321883304666624
56.066,0.3514070134788815,-0.3514070134788815
56.067,0.3226882176218524,-0.3226882176218524
56.068,0.27237494666237694,-0.27237494666237694
56.069,0.20894638789998643,-0.20894638789998643
56.07,0.14169325306405378,-0.14169325306405378
56.071,0.07815112779098876,-0.07815112779098876
56.072,0.022237132750233646,-0.022237132750233646
56.073,0.02622899577447635,0.02622899577447635
56.074,0.07043991285057838,0.07043991285057838
56.075,0.11436105189090462,0.11436105189090462
56.076,0.16020116604069012,0.16020116604069012
56.077,0.2066014821630564,0.2066014821630564
56.078,0.24831594324920814,0.24831594324920814
56.079,0.27761176033241575,0.27761176033241575
56.08,0.28696002234780504,0.28696002234780504
56.081,0.27205365887197863,0.27205365887197863
56.082,0.23399176992964366,0.23399176992964366
56.083,0.17969802643220145,0.17969802643220145
56.084,0.12023573326903492,0.12023573326903492
56.085,0.06744441437357884,0.06744441437357884
56.086,0.029982021360795308,0.029982021360795308
56.087,0.010166130153515196,0.010166130153515196
56.088,0.0028335070074927415,0.0028335070074927415
56.089,0.003186539421214496,-0.003186539421214496
56.09,0.021268425235083765,-0.021268425235083765
56.091,0.06197859482934376,-0.06197859482934376
56.092,0.12848288711270417,-0.12848288711270417
56.093,0.21397854392096438,-0.21397854392096438
56.094,0.3021903507234407,-0.3021903507234407
56.095,0.3710262623915227,-0.3710262623915227
56.096,0.39846605254766,-0.39846605254766
56.097,0.3689927443047707,-0.3689927443047707
56.098,0.2786294417778913,-0.2786294417778913
56.099,0.1370070269503011,-0.1370070269503011
56.1,0.03424447408496478,0.03424447408496478
56.101,0.20638764360951156,0.20638764360951156
56.102,0.3503746379876005,0.3503746379876005
56.103,0.44361409879878866,0.44361409879878866
56.104,0.47481521156787765,0.47481521156787765
56.105,0.44563652908844364,0.44563652908844364
56.106,0.3688587672684367,0.3688587672684367
56.107,0.26384226544215905,0.26384226544215905
56.108,0.15079225440222688,0.15079225440222688
56.109,0.04560906058901071,0.04560906058901071
56.11,0.04321229510069402,-0.04321229510069402
56.111,0.11492154266960897,-0.11492154266960897
56.112,0.17431002310992627,-0.17431002310992627
56.113,0.22798164844181523,-0.22798164844181523
56.114,0.28053017692212756,-0.28053017692212756
56.115,0.3319739742105473,-0.3319739742105473
56.116,0.37727650913500654,-0.37727650913500654
56.117,0.4080131516134413,-0.4080131516134413
56.118,0.4154998565042872,-0.4154998565042872
56.119,0.39422286805359796,-0.39422286805359796
56.12,0.3443447149635672,-0.3443447149635672
56.121,0.2724105645912239,-0.2724105645912239
56.122,0.1900044844019887,-0.1900044844019887
56.123,0.11078788869146439,-0.11078788869146439
56.124,0.04686671038400636,-0.04686671038400636
56.125,0.005622083021360358,-0.005622083021360358
56.126,0.012040752853024195,0.012040752853024195
56.127,0.011540194118274671,0.011540194118274671
56.128,0.0026711383892159546,0.0026711383892159546
56.129,0.003503100026252537,-0.003503100026252537
56.13,0.00201644163553083,0.00201644163553083
56.131,0.023550345645398485,0.023550345645398485
56.132,0.05952626367555758,0.05952626367555758
56.133,0.10291601439217146,0.10291601439217146
56.134,0.14312263161561223,0.14312263161561223
56.135,0.1687652504603374,0.1687652504603374
56.136,0.1706418484573684,0.1706418484573684
56.137,0.14417822425734483,0.14417822425734483
56.138,0.09085291677493812,0.09085291677493812
56.139,0.018347541947195456,0.018347541947195456
56.14,0.060564658387576076,-0.060564658387576076
56.141,0.13016423533370058,-0.13016423533370058
56.142,0.17459061790201147,-0.17459061790201147
56.143,0.18085018370137662,-0.18085018370137662
56.144,0.14153928298221974,-0.14153928298221974
56.145,0.05680781533710477,-0.05680781533710477
56.146,0.06484459142290677,0.06484459142290677
56.147,0.20721228514775447,0.20721228514775447
56.148,0.34852566036914867,0.34852566036914867
56.149,0.46487139299338165,0.46487139299338165
56.15,0.5343734791950308,0.5343734791950308
56.151,0.541375472560593,0.541375472560593
56.152,0.47975752837383756,0.47975752837383756
56.153,0.35460964521979377,0.35460964521979377
56.154,0.18177596095564996,0.18177596095564996
56.155,0.014766052380863592,-0.014766052380863592
56.156,0.20722759921735456,-0.20722759921735456
56.157,0.3691484373108048,-0.3691484373108048
56.158,0.48025204143794276,-0.48025204143794276
56.159,0.5299634700291642,-0.5299634700291642
56.16,0.5188508536509243,-0.5188508536509243
56.161,0.45774705586896636,-0.45774705586896636
56.162,0.36485227286877653,-0.36485227286877653
56.163,0.2615658333768712,-0.2615658333768712
56.164,0.1680330738692406,-0.1680330738692406
56.165,0.09937264475566476,-0.09937264475566476
56.166,0.06329860231925344,-0.06329860231925344
56.167,0.0594600293869576,-0.0594600293869576
56.168,0.08040815808854274,-0.08040815808854274
56.169,0.11377655898794659,-0.11377655898794659
56.17,0.14509099321548302,-0.14509099321548302
56.171,0.1606217830179919,-0.1606217830179919
56.172,0.14981195553982363,-0.14981195553982363
56.173,0.10699034766290694,-0.10699034766290694
56.174,0.03224414352098359,-0.03224414352098359
56.175,0.06855935103302091,0.06855935103302091
56.176,0.18454906387229197,0.18454906387229197
56.177,0.3013348990160365,0.3013348990160365
56.178,0.4030637749280681,0.4030637749280681
56.179,0.474830395425194,0.474830395425194
56.18,0.5051223770305426,0.5051223770305426
56.181,0.48788929358739996,0.48788929358739996
56.182,0.423802126021781,0.423802126021781
56.183,0.3203570212967066,0.3203570212967066
56.184,0.19068487413322566,0.19068487413322566
56.185,0.05121954072064194,0.05121954072064194
56.186,0.08132447298529699,-0.08132447298529699
56.187,0.193003251844035,-0.193003251844035
56.188,0.2750165134544167,-0.2750165134544167
56.189,0.3248462699644492,-0.3248462699644492
56.19,0.3459209359210187,-0.3459209359210187
56.191,0.3459575134810824,-0.3459575134810824
56.192,0.334485820742324,-0.334485820742324
56.193,0.3202594220293167,-0.3202594220293167
56.194,0.3092455234772169,-0.3092455234772169
56.195,0.3036673338425483,-0.3036673338425483
56.196,0.3022218583424676,-0.3022218583424676
56.197,0.30123115874568085,-0.30123115874568085
56.198,0.29622556717793747,-0.29622556717793747
56.199,0.2833840866962557,-0.2833840866962557
56.2,0.26038474339311757,-0.26038474339311757
56.201,0.22649020262833908,-0.22649020262833908
56.202,0.18200662225634734,-0.18200662225634734
56.203,0.1274908422112857,-0.1274908422112857
56.204,0.06315790506550445,-0.06315790506550445
56.205,0.011166266744392805,0.011166266744392805
56.206,0.09544894721919417,0.09544894721919417
56.207,0.18840420888111575,0.18840420888111575
56.208,0.28641299371193485,0.28641299371193485
56.209,0.38289843088924824,0.38289843088924824
56.21,0.4685349375635839,0.4685349375635839
56.211,0.532413445878205,0.532413445878205
56.212,0.5639709837907871,0.5639709837907871
56.213,0.5552284865874881,0.5552284865874881
56.214,0.502755112753019,0.502755112753019
56.215,0.408830316153606,0.408830316153606
56.216,0.28148533413177756,0.28148533413177756
56.217,0.13340169990509332,0.13340169990509332
56.218,0.020069174110845744,-0.020069174110845744
56.219,0.1633086200878361,-0.1633086200878361
56.22,0.2827457653860552,-0.2827457653860552
56.221,0.3686576964271422,-0.3686576964271422
56.222,0.4161989495864973,-0.4161989495864973
56.223,0.425598570232671,-0.425598570232671
56.224,0.4016199973685499,-0.4016199973685499
56.225,0.35246746903659854,-0.35246746903659854
56.226,0.28834562752753934,-0.28834562752753934
56.227,0.2198653660582297,-0.2198653660582297
56.228,0.1564736782319025,-0.1564736782319025
56.229,0.10508887840739178,-0.10508887840739178
56.23,0.06913928517382861,-0.06913928517382861
56.231,0.04820387044642971,-0.04820387044642971
56.232,0.038400659689080685,-0.038400659689080685
56.233,0.033541297236637235,-0.033541297236637235
56.234,0.026880295886067662,-0.026880295886067662
56.235,0.013085370463918777,-0.013085370463918777
56.236,0.010084115541010075,0.010084115541010075
56.237,0.040908498418535055,0.040908498418535055
56.238,0.0740010771680708,0.0740010771680708
56.239,0.10180089125109704,0.10180089125109704
56.24,0.11692230432491946,0.11692230432491946
56.241,0.1146949567860871,0.1146949567860871
56.242,0.09508206660568397,0.09508206660568397
56.243,0.0632729271784076,0.0632729271784076
56.244,0.028602116863649885,0.028602116863649885
56.245,0.0019608913417172857,0.0019608913417172857
56.246,0.00762141366063851,-0.00762141366063851
56.247,0.0037913702208607347,0.0037913702208607347
56.248,0.03305358964500682,0.03305358964500682
56.249,0.06994607401225972,0.06994607401225972
56.25,0.0993699085998343,0.0993699085998343
56.251,0.10525008091056365,0.10525008091056365
56.252,0.07511947963584564,0.07511947963584564
56.253,0.004092030868488639,0.004092030868488639
56.254,0.10294194758798547,-0.10294194758798547
56.255,0.2315833407116641,-0.2315833407116641
56.256,0.36064504476106163,-0.36064504476106163
56.257,0.46662247974840365,-0.46662247974840365
56.258,0.5287318477135277,-0.5287318477135277
56.259,0.5332146735583607,-0.5332146735583607
56.26,0.4758729010093914,-0.4758729010093914
56.261,0.3623519405290936,-0.3623519405290936
56.262,0.20634287113907857,-0.20634287113907857
56.263,0.026418804816343844,-0.026418804816343844
56.264,0.15750883211540745,0.15750883211540745
56.265,0.3271928888968001,0.3271928888968001
56.266,0.46793542858417614,0.46793542858417614
56.267,0.569255992520374,0.569255992520374
56.268,0.624671887443194,0.624671887443194
56.269,0.6311467305542362,0.6311467305542362
56.27,0.588725945388554,0.588725945388554
56.271,0.5006158929346853,0.5006158929346853
56.272,0.37360311655600875,0.37360311655600875
56.273,0.2184121551071032,0.2184121551071032
56.274,0.04949566662006477,0.04949566662006477
56.275,0.11611003914962126,-0.11611003914962126
56.276,0.2608967922519698,-0.2608967922519698
56.277,0.369597560169298,-0.369597560169298
56.278,0.4318314899535466,-0.4318314899535466
56.279,0.4439328182112705,-0.4439328182112705
56.28,0.4094056108026103,-0.4094056108026103
56.281,0.33784812910868933,-0.33784812910868933
56.282,0.2426637465569963,-0.2426637465569963
56.283,0.1382481612554305,-0.1382481612554305
56.284,0.03747699988833553,-0.03747699988833553
56.285,0.0498378320819477,0.0498378320819477
56.286,0.11724430188491008,0.11724430188491008
56.287,0.16089868772572435,0.16089868772572435
56.288,0.17835298424036772,0.17835298424036772
56.289,0.16761456544235975,0.16761456544235975
56.29,0.12705794979480256,0.12705794979480256
56.291,0.05636881340792366,0.05636881340792366
56.292,0.04179562550288374,-0.04179562550288374
56.293,0.16014595795260134,-0.16014595795260134
56.294,0.2859569897831823,-0.2859569897831823
56.295,0.40178853552430094,-0.40178853552430094
56.296,0.4879256449913645,-0.4879256449913645
56.297,0.5261347966338178,-0.5261347966338178
56.298,0.5038175703497647,-0.5038175703497647
56.299,0.41740067769346134,-0.41740067769346134
56.3,0.2739304767789045,-0.2739304767789045
56.301,0.09031354243511158,-0.09031354243511158
56.302,0.10968530619940053,0.10968530619940053
56.303,0.2999279086133253,0.2999279086133253
56.304,0.4566973451167471,0.4566973451167471
56.305,0.5625838381661141,0.5625838381661141
56.306,0.6085757143459365,0.6085757143459365
56.307,0.5940596550590702,0.5940596550590702
56.308,0.525079496919169,0.525079496919169
56.309,0.4116854713568483,0.4116854713568483
56.31,0.2653715337423943,0.2653715337423943
56.311,0.0974078323152805,0.0974078323152805
56.312,0.08158505391580506,-0.08158505391580506
56.313,0.2610248220570307,-0.2610248220570307
56.314,0.4293605411365251,-0.4293605411365251
56.315,0.5734753793262045,-0.5734753793262045
56.316,0.6791395124202837,-0.6791395124202837
56.317,0.7327255995265609,-0.7327255995265609
56.318,0.7238676803275423,-0.7238676803275423
56.319,0.6483058102369401,-0.6483058102369401
56.32,0.5099753136730742,-0.5099753136730742
56.321,0.32154215705391387,-0.32154215705391387
56.322,0.10301094012504342,-0.10301094012504342
56.323,0.12140163177478991,0.12140163177478991
56.324,0.3274147484151173,0.3274147484151173
56.325,0.49483467379023427,0.49483467379023427
56.326,0.61069396565655,0.61069396565655
56.327,0.6706650095985363,0.6706650095985363
56.328,0.6785283803625803,0.6785283803625803
56.329,0.6440030770726544,0.6440030770726544
56.33,0.5796450845586036,0.5796450845586036
56.331,0.4976864018351519,0.4976864018351519
56.332,0.4075945707087403,0.4075945707087403
56.333,0.314840420790085,0.314840420790085
56.334,0.2209802344131273,0.2209802344131273
56.335,0.12480931809858586,0.12480931809858586
56.336,0.024118230603655588,0.024118230603655588
56.337,0.08248272232092724,-0.08248272232092724
56.338,0.1941297058132333,-0.1941297058132333
56.339,0.306960414445267,-0.306960414445267
56.34,0.4141732344816479,-0.4141732344816479
56.341,0.5068469338906886,-0.5068469338906886
56.342,0.5753596098567328,-0.5753596098567328
56.343,0.6111623967978697,-0.6111623967978697
56.344,0.6086009986601788,-0.6086009986601788
56.345,0.5664339504482295,-0.5664339504482295
56.346,0.48868825593249643,-0.48868825593249643
56.347,0.3845523396206978,-0.3845523396206978
56.348,0.2671595165001961,-0.2671595165001961
56.349,0.15136033842769725,-0.15136033842769725
56.35,0.05087374628958963,-0.05087374628958963
56.351,0.024540328965178437,0.024540328965178437
56.352,0.07113078281458796,0.07113078281458796
56.353,0.0917738167684865,0.0917738167684865
56.354,0.09483927598067687,0.09483927598067687
56.355,0.09147961999905618,0.09147961999905618
56.356,0.09203288280245503,0.09203288280245503
56.357,0.10259332407429889,0.10259332407429889
56.358,0.12286284980719131,0.12286284980719131
56.359,0.14608983780564788,0.14608983780564788
56.36,0.16128825747666298,0.16128825747666298
56.361,0.15718366532951267,0.15718366532951267
56.362,0.1266959988131171,0.1266959988131171
56.363,0.0704726589179856,0.0704726589179856
56.364,0.0018352591166261867,-0.0018352591166261867
56.365,0.07322242001596713,-0.07322242001596713
56.366,0.12365341311342992,-0.12365341311342992
56.367,0.13589895393273288,-0.13589895393273288
56.368,0.10112748847110076,-0.10112748847110076
56.369,0.022442758766998527,-0.022442758766998527
56.37,0.08490002770805005,0.08490002770805005
56.371,0.19687528347318795,0.19687528347318795
56.372,0.28680679838409273,0.28680679838409273
56.373,0.3324612007717558,0.3324612007717558
56.374,0.32198335217429985,0.32198335217429985
56.375,0.25685727852703555,0.25685727852703555
56.376,0.15099149531147793,0.15099149531147793
56.377,0.026254991401257977,0.026254991401257977
56.378,0.09407231784282533,-0.09407231784282533
56.379,0.19180564156367008,-0.19180564156367008
56.38,0.258227420330698,-0.258227420330698
56.381,0.29497456529825383,-0.29497456529825383
56.382,0.31128845563045193,-0.31128845563045193
56.383,0.31872956299154953,-0.31872956299154953
56.384,0.3253390432023334,-0.3253390432023334
56.385,0.33142809031246045,-0.33142809031246045
56.386,0.32861383045237313,-0.32861383045237313
56.387,0.30258066760312297,-0.30258066760312297
56.388,0.2387136218711644,-0.2387136218711644
56.389,0.1286839193849646,-0.1286839193849646
56.39,0.02435817618968361,0.02435817618968361
56.391,0.2039518190090417,0.2039518190090417
56.392,0.3827576223229774,0.3827576223229774
56.393,0.528749754925325,0.528749754925325
56.394,0.6133904982049481,0.6133904982049481
56.395,0.6193001482513751,0.6193001482513751
56.396,0.545036325487912,0.545036325487912
56.397,0.405482938155725,0.405482938155725
56.398,0.22772994135261193,0.22772994135261193
56.399,0.043743384460838364,0.043743384460838364
56.4,0.11788839675739815,-0.11788839675739815
56.401,0.23861494382405324,-0.23861494382405324
56.402,0.3130632253407373,-0.3130632253407373
56.403,0.34793331731258303,-0.34793331731258303
56.404,0.3573315742880725,-0.3573315742880725
56.405,0.35635448730763675,-0.35635448730763675
56.406,0.35522195124787515,-0.35522195124787515
56.407,0.355950188500857,-0.355950188500857
56.408,0.3525772897279559,-0.3525772897279559
56.409,0.33465939681562895,-0.33465939681562895
56.41,0.29259637633524405,-0.29259637633524405
56.411,0.22272095034483697,-0.22272095034483697
56.412,0.13020222028522688,-0.13020222028522688
56.413,0.028621313337549248,-0.028621313337549248
56.414,0.06371653669225297,0.06371653669225297
56.415,0.12948777120158228,0.12948777120158228
56.416,0.15808419124931206,0.15808419124931206
56.417,0.1493349064986127,0.1493349064986127
56.418,0.11383821926073745,0.11383821926073745
56.419,0.06966988822834685,0.06966988822834685
56.42,0.03647135456145234,0.03647135456145234
56.421,0.028831074547868152,0.028831074547868152
56.422,0.05114762073710866,0.05114762073710866
56.423,0.09571319758130081,0.09571319758130081
56.424,0.144731452081569,0.144731452081569
56.425,0.17572265769512385,0.17572265769512385
56.426,0.1686835102025379,0.1686835102025379
56.427,0.11280462733905039,0.11280462733905039
56.428,0.01067749179869737,0.01067749179869737
56.429,0.12131060782944636,-0.12131060782944636
56.43,0.25654507427673723,-0.25654507427673723
56.431,0.36470011819375026,-0.36470011819375026
56.432,0.41935798387117396,-0.41935798387117396
56.433,0.40463062597451327,-0.40463062597451327
56.434,0.3190453243394644,-0.3190453243394644
56.435,0.1757913933016636,-0.1757913933016636
56.436,0.0005426168052722335,0.0005426168052722335
56.437,0.1796964255110336,0.1796964255110336
56.438,0.33233746340672066,0.33233746340672066
56.439,0.4358762296694352,0.4358762296694352
56.44,0.4782254212242112,0.4782254212242112
56.441,0.4588985721647618,0.4588985721647618
56.442,0.38757256991356037,0.38757256991356037
56.443,0.2808202745803259,0.2808202745803259
56.444,0.1580231421662457,0.1580231421662457
56.445,0.037470962021882714,0.037470962021882714
56.446,0.0665889583998851,-0.0665889583998851
56.447,0.14555882959563982,-0.14555882959563982
56.448,0.19672619178262274,-0.19672619178262274
56.449,0.22237705788514583,-0.22237705788514583
56.45,0.2281837123751499,-0.2281837123751499
56.451,0.2212980635638765,-0.2212980635638765
56.452,0.20853840241199917,-0.20853840241199917
56.453,0.19497697104608547,-0.19497697104608547
56.454,0.18314010138598746,-0.18314010138598746
56.455,0.1729244463995342,-0.1729244463995342
56.456,0.16220610342672404,-0.16220610342672404
56.457,0.147976669184263,-0.147976669184263
56.458,0.1277041667542934,-0.1277041667542934
56.459,0.10052930769466939,-0.10052930769466939
56.46,0.0679146323990456,-0.0679146323990456
56.461,0.033492107881096134,-0.033492107881096134
56.462,0.0020899777222064264,-0.0020899777222064264
56.463,0.02179847733070961,0.02179847733070961
56.464,0.03560684509711742,0.03560684509711742
56.465,0.039758748427605406,0.039758748427605406
56.466,0.03772292260746113,0.03772292260746113
56.467,0.03488554384757969,0.03488554384757969
56.468,0.03648207869759523,0.03648207869759523
56.469,0.04522274662338632,0.04522274662338632
56.47,0.059464277485347106,0.059464277485347106
56.471,0.07272114495559534,0.07272114495559534
56.472,0.07495459879888666,0.07495459879888666
56.473,0.055514735764568224,0.055514735764568224
56.474,0.007011359064518885,0.007011359064518885
56.475,0.07104239392441614,-0.07104239392441614
56.476,0.17006611256478765,-0.17006611256478765
56.477,0.27267214323065847,-0.27267214323065847
56.478,0.3556424402642162,-0.3556424402642162
56.479,0.39510178259823225,-0.39510178259823225
56.48,0.3726405972761401,-0.3726405972761401
56.481,0.28073909996936,-0.28073909996936
56.482,0.1259152843740885,-0.1259152843740885
56.483,0.07143282975714627,0.07143282975714627
56.484,0.2806410352371369,0.2806410352371369
56.485,0.46704305504833177,0.46704305504833177
56.486,0.5993311131551113,0.5993311131551113
56.487,0.6561452565458723,0.6561452565458723
56.488,0.6302392291333858,0.6302392291333858
56.489,0.5292498121541818,0.5292498121541818
56.49,0.3730336835207433,0.3730336835207433
56.491,0.18845109516754865,0.18845109516754865
56.492,0.003102912789465062,0.003102912789465062
56.493,0.1603035689908876,-0.1603035689908876
56.494,0.2875993368796106,-0.2875993368796106
56.495,0.37412462028332194,-0.37412462028332194
56.496,0.42315567672870635,-0.42315567672870635
56.497,0.44261658433946205,-0.44261658433946205
56.498,0.44129146679537634,-0.44129146679537634
56.499,0.42573755758322374,-0.42573755758322374
56.5,0.3987262196812277,-0.3987262196812277
56.501,0.359457821823138,-0.359457821823138
56.502,0.3052086077700923,-0.3052086077700923
56.503,0.2336572463438712,-0.2336572463438712
56.504,0.14501459969739938,-0.14501459969739938
56.505,0.04324838088474181,-0.04324838088474181
56.506,0.06393402535465564,0.06393402535465564
56.507,0.16625101504406992,0.16625101504406992
56.508,0.2527248435751748,0.2527248435751748
56.509,0.31368244210534724,0.31368244210534724
56.51,0.34234662271947336,0.34234662271947336
56.511,0.3357032761319745,0.3357032761319745
56.512,0.2946083535639621,0.2946083535639621
56.513,0.2233288410316876,0.2233288410316876
56.514,0.12881846890772786,0.12881846890772786
56.515,0.01999177878168812,0.01999177878168812
56.516,0.09288234982118926,-0.09288234982118926
56.517,0.1987180540859328,-0.1987180540859328
56.518,0.2862492057631121,-0.2862492057631121
56.519,0.3449432068364404,-0.3449432068364404
56.52,0.36626141733389195,-0.36626141733389195
56.521,0.3451507628903048,-0.3451507628903048
56.522,0.2814625155534617,-0.2814625155534617
56.523,0.18088054858989377,-0.18088054858989377
56.524,0.054957419404334296,-0.054957419404334296
56.525,0.07998581675574923,0.07998581675574923
56.526,0.20507688099062116,0.20507688099062116
56.527,0.3019102653602177,0.3019102653602177
56.528,0.3558037710380033,0.3558037710380033
56.529,0.35860989129154475,0.35860989129154475
56.53,0.3104407280836252,0.3104407280836252
56.531,0.21986752201608528,0.21986752201608528
56.532,0.10247314342463842,0.10247314342463842
56.533,0.022005447667254208,-0.022005447667254208
56.534,0.13339071846148098,-0.13339071846148098
56.535,0.21487759400285844,-0.21487759400285844
56.536,0.25614907227332206,-0.25614907227332206
56.537,0.255131224206978,-0.255131224206978
56.538,0.21800741485760844,-0.21800741485760844
56.539,0.15748662536906854,-0.15748662536906854
56.54,0.08970861834468691,-0.08970861834468691
56.541,0.030483249612674124,-0.030483249612674124
56.542,0.008272978585339708,0.008272978585339708
56.543,0.021070213099845914,0.021070213099845914
56.544,0.009746590333376881,0.009746590333376881
56.545,0.017475764371316815,-0.017475764371316815
56.546,0.048534991651112414,-0.048534991651112414
56.547,0.07101395246096731,-0.07101395246096731
56.548,0.0756457553916885,-0.0756457553916885
56.549,0.05889786816252618,-0.05889786816252618
56.55,0.02392546946560059,-0.02392546946560059
56.551,0.020376212417936523,0.020376212417936523
56.552,0.06195987187162966,0.06195987187162966
56.553,0.08912010685947602,0.08912010685947602
56.554,0.09388483531192304,0.09388483531192304
56.555,0.07431108488369009,0.07431108488369009
56.556,0.035004447743854694,0.035004447743854694
56.557,0.014293430618031011,-0.014293430618031011
56.558,0.06162143682111265,-0.06162143682111265
56.559,0.09632901408410832,-0.09632901408410832
56.56,0.11213502567793998,-0.11213502567793998
56.561,0.10877330173261557,-0.10877330173261557
56.562,0.09172358553857018,-0.09172358553857018
56.563,0.07013075375173028,-0.07013075375173028
56.564,0.05359134511803121,-0.05359134511803121
56.565,0.048848396733109034,-0.048848396733109034
56.566,0.057463818522267895,-0.057463818522267895
56.567,0.07522021500303777,-0.07522021500303777
56.568,0.09344299388735022,-0.09344299388735022
56.569,0.10181194698230955,-0.10181194698230955
56.57,0.09175338622330975,-0.09175338622330975
56.571,0.05932605485887432,-0.05932605485887432
56.572,0.006692570916427609,-0.006692570916427609
56.573,0.05826045759259957,0.05826045759259957
56.574,0.12398775807996332,0.12398775807996332
56.575,0.17833994024228406,0.17833994024228406
56.576,0.21162889919023353,0.21162889919023353
56.577,0.2187790509097567,0.2187790509097567
56.578,0.19999778505724675,0.19999778505724675
56.579,0.15992624722815885,0.15992624722815885
56.58,0.10573723032018112,0.10573723032018112
56.581,0.044952812410266496,0.044952812410266496
56.582,0.01623982284403802,-0.01623982284403802
56.583,0.07367764492025741,-0.07367764492025741
56.584,0.12486940797992618,-0.12486940797992618
56.585,0.1679931784831621,-0.1679931784831621
56.586,0.20088899775763613,-0.20088899775763613
56.587,0.22066175827916867,-0.22066175827916867
56.588,0.22420806941598304,-0.22420806941598304
56.589,0.20952984107771833,-0.20952984107771833
56.59,0.17728145142815366,-0.17728145142815366
56.591,0.13179441290836913,-0.13179441290836913
56.592,0.0809337257289231,-0.0809337257289231
56.593,0.0345435266103713,-0.0345435266103713
56.594,0.001797251952231682,-0.001797251952231682
56.595,0.011731234134150448,0.011731234134150448
56.596,0.006219380985313938,0.006219380985313938
56.597,0.011943300816358526,-0.011943300816358526
56.598,0.031790867310535154,-0.031790867310535154
56.599,0.041199410369560985,-0.041199410369560985
56.6,0.031092746048644537,-0.031092746048644537
56.601,0.0009518812178066494,0.0009518812178066494
56.602,0.049018778324584344,0.049018778324584344
56.603,0.09987066522258559,0.09987066522258559
56.604,0.1365890668405596,0.1365890668405596
56.605,0.14385694352712486,0.14385694352712486
56.606,0.11326577533312099,0.11326577533312099
56.607,0.04689545062007072,0.04689545062007072
56.608,0.04213948648444232,-0.04213948648444232
56.609,0.13257692577637825,-0.13257692577637825
56.61,0.20063889299853366,-0.20063889299853366
56.611,0.22680243913174025,-0.22680243913174025
56.612,0.20166901301954065,-0.20166901301954065
56.613,0.12909771514501067,-0.12909771514501067
56.614,0.025567353976082563,-0.025567353976082563
56.615,0.08411992694028236,0.08411992694028236
56.616,0.17354919821193793,0.17354919821193793
56.617,0.22182315240674777,0.22182315240674777
56.618,0.21899373193495086,0.21899373193495086
56.619,0.16821930523233974,0.16821930523233974
56.62,0.08410584516678243,0.08410584516678243
56.621,0.012120191840701233,-0.012120191840701233
56.622,0.09899991411670583,-0.09899991411670583
56.623,0.16075944870888847,-0.16075944870888847
56.624,0.19096324829863287,-0.19096324829863287
56.625,0.19291695809214615,-0.19291695809214615
56.626,0.17693149455161528,-0.17693149455161528
56.627,0.15557970164592438,-0.15557970164592438
56.628,0.13868372236416016,-0.13868372236416016
56.629,0.1297757649579574,-0.1297757649579574
56.63,0.12519390394156726,-0.12519390394156726
56.631,0.11602059431188794,-0.11602059431188794
56.632,0.09207745750572338,-0.09207745750572338
56.633,0.04649346041132718,-0.04649346041132718
56.634,0.02080661278465823,0.02080661278465823
56.635,0.10194613879814973,0.10194613879814973
56.636,0.18270533187688343,0.18270533187688343
56.637,0.24637559750071025,0.24637559750071025
56.638,0.278584882021921,0.278584882021921
56.639,0.27151063395744335,0.27151063395744335
56.64,0.22612790061401267,0.22612790061401267
56.641,0.15181729592963666,0.15181729592963666
56.642,0.0635389054701978,0.0635389054701978
56.643,0.022440349144447924,-0.022440349144447924
56.644,0.09285674798560617,-0.09285674798560617
56.645,0.14045459393009208,-0.14045459393009208
56.646,0.164854751672051,-0.164854751672051
56.647,0.1712185209795024,-0.1712185209795024
56.648,0.16737965899251417,-0.16737965899251417
56.649,0.160582898714832,-0.160582898714832
56.65,0.1550091212757041,-0.1550091212757041
56.651,0.1508914685941013,-0.1508914685941013
56.652,0.14538586564031208,-0.14538586564031208
56.653,0.13469442457582936,-0.13469442457582936
56.654,0.11649185971068532,-0.11649185971068532
56.655,0.09162867600334146,-0.09162867600334146
56.656,0.06439723439117417,-0.06439723439117417
56.657,0.04122337013522803,-0.04122337013522803
56.658,0.02826904788195317,-0.02826904788195317
56.659,0.028869128527680754,-0.028869128527680754
56.66,0.04181628495769829,-0.04181628495769829
56.661,0.061218331583100305,-0.061218331583100305
56.662,0.07808609734520855,-0.07808609734520855
56.663,0.08317206290702461,-0.08317206290702461
56.664,0.07010154961533688,-0.07010154961533688
56.665,0.037694673192458006,-0.037694673192458006
56.666,0.009374286507892737,0.009374286507892737
56.667,0.061874548199324586,0.061874548199324586
56.668,0.10889061697396252,0.10889061697396252
56.669,0.14132515105930854,0.14132515105930854
56.67,0.15484440095940943,0.15484440095940943
56.671,0.15123762283957864,0.15123762283957864
56.672,0.1376793356004724,0.1376793356004724
56.673,0.1240877313820008,0.1240877313820008
56.674,0.11942807655311838,0.11942807655311838
56.675,0.12819479182779192,0.12819479182779192
56.676,0.14828684120825386,0.14828684120825386
56.677,0.17106788789656568,0.17106788789656568
56.678,0.1837083380342701,0.1837083380342701
56.679,0.17316324161742647,0.17316324161742647
56.68,0.13058722715706472,0.13058722715706472
56.681,0.05480396990906389,0.05480396990906389
56.682,0.04630527566970044,-0.04630527566970044
56.683,0.15702580469827054,-0.15702580469827054
56.684,0.25740221864375046,-0.25740221864375046
56.685,0.3282442769825291,-0.3282442769825291
56.686,0.3561571873930216,-0.3561571873930216
56.687,0.33718007591456056,-0.33718007591456056
56.688,0.2779983145986178,-0.2779983145986178
56.689,0.19437019297811264,-0.19437019297811264
56.69,0.10717731466256342,-0.10717731466256342
56.691,0.03715143297489398,-0.03715143297489398
56.692,0.0003278890035118831,0.0003278890035118831
56.693,0.0009853497113861964,-0.0009853497113861964
56.694,0.03678980595212089,-0.03678980595212089
56.695,0.09349819769525691,-0.09349819769525691
56.696,0.15178774593531108,-0.15178774593531108
56.697,0.19148975453578188,-0.19148975453578188
56.698,0.19657337523299367,-0.19657337523299367
56.699,0.15901156712515307,-0.15901156712515307
56.7,0.08064899652294344,-0.08064899652294344
56.701,0.027280707546935012,0.027280707546935012
56.702,0.14676119208804472,0.14676119208804472
56.703,0.2570093183783786,0.2570093183783786
56.704,0.33890395399482065,0.33890395399482065
56.705,0.3788035257645017,0.3788035257645017
56.706,0.3709436102507089,0.3709436102507089
56.707,0.3179943069324269,0.3179943069324269
56.708,0.22981402525542793,0.22981402525542793
56.709,0.1208488713459901,0.1208488713459901
56.71,0.006900709673003602,0.006900709673003602
56.711,0.09793339459030159,-0.09793339459030159
56.712,0.18346866207050505,-0.18346866207050505
56.713,0.2443850690243342,-0.2443850690243342
56.714,0.27988272016343685,-0.27988272016343685
56.715,0.2923424110243983,-0.2923424110243983
56.716,0.2855334509832146,-0.2855334509832146
56.717,0.2629856891692576,-0.2629856891692576
56.718,0.22703669578519292,-0.22703669578519292
56.719,0.1788114866039674,-0.1788114866039674
56.72,0.11906568744631663,-0.11906568744631663
56.721,0.04952021636163506,-0.04952021636163506
56.722,0.025871546076285723,0.025871546076285723
56.723,0.10029372854883611,0.10029372854883611
56.724,0.16446845820332512,0.16446845820332512
56.725,0.20816276170473968,0.20816276170473968
56.726,0.22250990683145133,0.22250990683145133
56.727,0.2025460703717017,0.2025460703717017
56.728,0.14921569375615418,0.14921569375615418
56.729,0.0701671169700453,0.0701671169700453
56.73,0.021061703543056254,-0.021061703543056254
56.731,0.10744831289451107,-0.10744831289451107
56.732,0.17201653962041652,-0.17201653962041652
56.733,0.20168217765951157,-0.20168217765951157
56.734,0.1904608729208992,-0.1904608729208992
56.735,0.1411952780384501,-0.1411952780384501
56.736,0.06529776591601155,-0.06529776591601155
56.737,0.01951326283015864,0.01951326283015864
56.738,0.09300825104545862,0.09300825104545862
56.739,0.13691565620836155,0.13691565620836155
56.74,0.1390405687453231,0.1390405687453231
56.741,0.09609257049811637,0.09609257049811637
56.742,0.014591233142994264,0.014591233142994264
56.743,0.09033482493657075,-0.09033482493657075
56.744,0.19796801199369563,-0.19796801199369563
56.745,0.2861706805845503,-0.2861706805845503
56.746,0.3358187040985312,-0.3358187040985312
56.747,0.33460278995327486,-0.33460278995327486
56.748,0.2794711343804668,-0.2794711343804668
56.749,0.17728526113491605,-0.17728526113491605
56.75,0.0436137548984602,-0.0436137548984602
56.751,0.10007419418278851,0.10007419418278851
56.752,0.23028535496103864,0.23028535496103864
56.753,0.3257513746577496,0.3257513746577496
56.754,0.37129754929217995,0.37129754929217995
56.755,0.3606371646550608,0.3606371646550608
56.756,0.2975612614989054,0.2975612614989054
56.757,0.19525008403473176,0.19525008403473176
56.758,0.07375664450256991,0.07375664450256991
56.759,0.043936349185985435,-0.043936349185985435
56.76,0.13656725613657583,-0.13656725613657583
56.761,0.189022495100714,-0.189022495100714
56.762,0.19556939662270434,-0.19556939662270434
56.763,0.16110161934383127,-0.16110161934383127
56.764,0.09999176626287964,-0.09999176626287964
56.765,0.03268043811047561,-0.03268043811047561
56.766,0.019305412394794663,0.019305412394794663
56.767,0.038765555051524014,0.038765555051524014
56.768,0.017337997130582483,0.017337997130582483
56.769,0.04208334454695628,-0.04208334454695628
56.77,0.1257464896789806,-0.1257464896789806
56.771,0.21227634082056923,-0.21227634082056923
56.772,0.2780155988713324,-0.2780155988713324
56.773,0.303142862650841,-0.303142862650841
56.774,0.2769752305131852,-0.2769752305131852
56.775,0.2010262398544077,-0.2010262398544077
56.776,0.08895545790353143,-0.08895545790353143
56.777,0.036630689302300734,0.036630689302300734
56.778,0.14971202155947383,0.14971202155947383
56.779,0.2272629764144607,0.2272629764144607
56.78,0.2548336782211782,0.2548336782211782
56.781,0.22983259509039744,0.22983259509039744
56.782,0.16168348836264257,0.16168348836264257
56.783,0.06890060285045352,0.06890060285045352
56.784,0.026027851974793625,-0.026027851974793625
56.785,0.10248140639610148,-0.10248140639610148
56.786,0.14666346487684545,-0.14666346487684545
56.787,0.15438113823653332,-0.15438113823653332
56.788,0.13103543647795857,-0.13103543647795857
56.789,0.08903214737464915,-0.08903214737464915
56.79,0.04354483318204516,-0.04354483318204516
56.791,0.007970456733202957,-0.007970456733202957
56.792,0.009591770901626884,0.009591770901626884
56.793,0.007911592854646488,0.007911592854646488
56.794,0.008024301316333471,-0.008024301316333471
56.795,0.02947146804070422,-0.02947146804070422
56.796,0.04726625314006061,-0.04726625314006061
56.797,0.054927377529808474,-0.054927377529808474
56.798,0.05057500959432837,-0.05057500959432837
56.799,0.03717238660451261,-0.03717238660451261
56.8,0.021162985339157947,-0.021162985339157947
56.801,0.010073071220275565,-0.010073071220275565
56.802,0.009923374697315301,-0.009923374697315301
56.803,0.023276302839722596,-0.023276302839722596
56.804,0.04846800062320589,-0.04846800062320589
56.805,0.08015127228665564,-0.08015127228665564
56.806,0.11085734022069771,-0.11085734022069771
56.807,0.1330072366239865,-0.1330072366239865
56.808,0.14074241389062447,-0.14074241389062447
56.809,0.13109315398861254,-0.13109315398861254
56.81,0.10428520877840564,-0.10428520877840564
56.811,0.0632847913077682,-0.0632847913077682
56.812,0.012891695924396651,-0.012891695924396651
56.813,0.04125191392346084,0.04125191392346084
56.814,0.09346056800845215,0.09346056800845215
56.815,0.13851468243414633,0.13851468243414633
56.816,0.17195833961473084,0.17195833961473084
56.817,0.19035697074700852,0.19035697074700852
56.818,0.19165784601310465,0.19165784601310465
56.819,0.17566615986759748,0.17566615986759748
56.82,0.14448548056547006,0.14448548056547006
56.821,0.10266006472502265,0.10266006472502265
56.822,0.05676576609409412,0.05676576609409412
56.823,0.014343907493443053,0.014343907493443053
56.824,0.01768478612984692,-0.01768478612984692
56.825,0.03474241617281826,-0.03474241617281826
56.826,0.03592290750447935,-0.03592290750447935
56.827,0.024430756848002888,-0.024430756848002888
56.828,0.006857868982876658,-0.006857868982876658
56.829,0.008613825002809161,0.008613825002809161
56.83,0.01462005230336727,0.01462005230336727
56.831,0.006911187225978388,0.006911187225978388
56.832,0.014214939584646924,-0.014214939584646924
56.833,0.043872465296525553,-0.043872465296525553
56.834,0.0740405817899733,-0.0740405817899733
56.835,0.09611685703706241,-0.09611685703706241
56.836,0.10378119689188814,-0.10378119689188814
56.837,0.09522722615626666,-0.09522722615626666
56.838,0.07397541936861418,-0.07397541936861418
56.839,0.04791606693209072,-0.04791606693209072
56.84,0.02680801996321669,-0.02680801996321669
56.841,0.01899256698403584,-0.01899256698403584
56.842,0.028387859062696363,-0.028387859062696363
56.843,0.05279357676157592,-0.05279357676157592
56.844,0.08415387293185084,-0.08415387293185084
56.845,0.11081093052282331,-0.11081093052282331
56.846,0.12112626449062724,-0.12112626449062724
56.847,0.10736693685207499,-0.10736693685207499
56.848,0.06861320921985303,-0.06861320921985303
56.849,0.01170040380634274,-0.01170040380634274
56.85,0.050209627302198134,0.050209627302198134
56.851,0.10110120180523285,0.10110120180523285
56.852,0.12664609173134056,0.12664609173134056
56.853,0.11847725731903824,0.11847725731903824
56.854,0.07690506949128695,0.07690506949128695
56.855,0.01122906489536346,0.01122906489536346
56.856,0.06249666305698287,-0.06249666305698287
56.857,0.12563573106808068,-0.12563573106808068
56.858,0.16190376786900518,-0.16190376786900518
56.859,0.16167561616747916,-0.16167561616747916
56.86,0.12447434698326898,-0.12447434698326898
56.861,0.05899166810084844,-0.05899166810084844
56.862,0.019298365723965594,0.019298365723965594
56.863,0.09220304540834978,0.09220304540834978
56.864,0.14339399923457696,0.14339399923457696
56.865,0.16227348300699873,0.16227348300699873
56.866,0.14616204433227709,0.14616204433227709
56.867,0.10036801338371326,0.10036801338371326
56.868,0.03630040399892143,0.03630040399892143
56.869,0.031712002392372596,-0.031712002392372596
56.87,0.089964038825887,-0.089964038825887
56.871,0.128363266244776,-0.128363266244776
56.872,0.14220750452784892,-0.14220750452784892
56.873,0.13249219545331836,-0.13249219545331836
56.874,0.10489515977137487,-0.10489515977137487
56.875,0.06788581895208923,-0.06788581895208923
56.876,0.030535260900562577,-0.030535260900562577
56.877,0.0005611279322732532,-0.0005611279322732532
56.878,0.017023047618027753,0.017023047618027753
56.879,0.020496025675299956,0.020496025675299956
56.88,0.01128591926985023,0.01128591926985023
56.881,0.006746967474555721,-0.006746967474555721
56.882,0.028389421078705568,-0.028389421078705568
56.883,0.04829927626660424,-0.04829927626660424
56.884,0.06217178392293188,-0.06217178392293188
56.885,0.06766215170430978,-0.06766215170430978
56.886,0.06489517589938565,-0.06489517589938565
56.887,0.05642894281308597,-0.05642894281308597
56.888,0.046616260634165796,-0.046616260634165796
56.889,0.04043271868718468,-0.04043271868718468
56.89,0.04199541683802155,-0.04199541683802155
56.891,0.053135726491032376,-0.053135726491032376
56.892,0.07245397375891238,-0.07245397375891238
56.893,0.0952253997325172,-0.0952253997325172
56.894,0.11433211005184207,-0.11433211005184207
56.895,0.12210149575586715,-0.12210149575586715
56.896,0.11262016020428778,-0.11262016020428778
56.897,0.08386894664896793,-0.08386894664896793
56.898,0.038981498116028135,-0.038981498116028135
56.899,0.013891055760590909,0.013891055760590909
56.9,0.06325219811687122,0.06325219811687122
56.901,0.09714321137062276,0.09714321137062276
56.902,0.1064936607339102,0.1064936607339102
56.903,0.08797131618275089,0.08797131618275089
56.904,0.0454262980538529,0.0454262980538529
56.905,0.010620923448638075,-0.010620923448638075
56.906,0.06544187790292055,-0.06544187790292055
56.907,0.1039134787028162,-0.1039134787028162
56.908,0.1146394804719224,-0.1146394804719224
56.909,0.09319290549019688,-0.09319290549019688
56.91,0.04350813259830144,-0.04350813259830144
56.911,0.0230259545269047,0.0230259545269047
56.912,0.09054471639740713,0.09054471639740713
56.913,0.1429110005248171,0.1429110005248171
56.914,0.1679265831029293,0.1679265831029293
56.915,0.16033789521648134,0.16033789521648134
56.916,0.12279845734509731,0.12279845734509731
56.917,0.06458337430487382,0.06458337430487382
56.918,0.0014600092668874964,-0.0014600092668874964
56.919,0.06271608194926448,-0.06271608194926448
56.92,0.11015539642864658,-0.11015539642864658
56.921,0.14022939526473777,-0.14022939526473777
56.922,0.15480988838369003,-0.15480988838369003
56.923,0.1593400020697463,-0.1593400020697463
56.924,0.15995294219112344,-0.15995294219112344
56.925,0.16063736597085232,-0.16063736597085232
56.926,0.16147915149819414,-0.16147915149819414
56.927,0.15860924557751488,-0.15860924557751488
56.928,0.14587385834845923,-0.14587385834845923
56.929,0.11762545938834834,-0.11762545938834834
56.93,0.07162084376324829,-0.07162084376324829
56.931,0.010946917364394793,-0.010946917364394793
56.932,0.05579940488178936,0.05579940488178936
56.933,0.11627333027361164,0.11627333027361164
56.934,0.1576243089484608,0.1576243089484608
56.935,0.17023624732702047,0.17023624732702047
56.936,0.15077703084228267,0.15077703084228267
56.937,0.1035472956702157,0.1035472956702157
56.938,0.03962947606822298,0.03962947606822298
56.939,0.02598010334447698,-0.02598010334447698
56.94,0.07843840054440032,-0.07843840054440032
56.941,0.10711911455790957,-0.10711911455790957
56.942,0.10845680917308931,-0.10845680917308931
56.943,0.08672051447833806,-0.08672051447833806
56.944,0.052492581681586103,-0.052492581681586103
56.945,0.019322100317163082,-0.019322100317163082
56.946,0.00043230531380777926,0.00043230531380777926
56.947,0.0006762768656813911,-0.0006762768656813911
56.948,0.02299624556358093,-0.02299624556358093
56.949,0.05974758374143618,-0.05974758374143618
56.95,0.09911835347182418,-0.09911835347182418
56.951,0.12782827098219063,-0.12782827098219063
56.952,0.1350834091819062,-0.1350834091819062
56.953,0.11575973155886488,-0.11575973155886488
56.954,0.07191189388368169,-0.07191189388368169
56.955,0.012218480006896848,-0.012218480006896848
56.956,0.05041628317209468,0.05041628317209468
56.957,0.10236410746173585,0.10236410746173585
56.958,0.13285400152797644,0.13285400152797644
56.959,0.13663454186028567,0.13663454186028567
56.96,0.11502768767369775,0.11502768767369775
56.961,0.0751738479279378,0.0751738479279378
56.962,0.027785014576589218,0.027785014576589218
56.963,0.015882499664618632,-0.015882499664618632
56.964,0.04695699689822297,-0.04695699689822297
56.965,0.0609957183200196,-0.0609957183200196
56.966,0.058664985488127486,-0.058664985488127486
56.967,0.04499359644650902,-0.04499359644650902
56.968,0.027536323676844443,-0.027536323676844443
56.969,0.014053544804871532,-0.014053544804871532
56.97,0.010386373692707451,-0.010386373692707451
56.971,0.019080967739632748,-0.019080967739632748
56.972,0.03904603734337997,-0.03904603734337997
56.973,0.06620621746799304,-0.06620621746799304
56.974,0.09483986097271668,-0.09483986097271668
56.975,0.11913867241402953,-0.11913867241402953
56.976,0.13453012374804985,-0.13453012374804985
56.977,0.13844363527628256,-0.13844363527628256
56.978,0.13041976564952118,-0.13041976564952118
56.979,0.11168093335755613,-0.11168093335755613
56.98,0.08443199555576597,-0.08443199555576597
56.981,0.05119739959251912,-0.05119739959251912
56.982,0.014426760779376435,-0.014426760779376435
56.983,0.0235509718361544,0.0235509718361544
56.984,0.06031251918203351,0.06031251918203351
56.985,0.09307297523119651,0.09307297523119651
56.986,0.11860390067806348,0.11860390067806348
56.987,0.13350144340121117,0.13350144340121117
56.988,0.13482053185169773,0.13482053185169773
56.989,0.12092185453904247,0.12092185453904247
56.99,0.09225235649430652,0.09225235649430652
56.991,0.05174843424066755,0.05174843424066755
56.992,0.004633530862311774,0.004633530862311774
56.993,0.04244165494561736,-0.04244165494561736
56.994,0.08275239843436788,-0.08275239843436788
56.995,0.11100004967117683,-0.11100004967117683
56.996,0.12452885218312104,-0.12452885218312104
56.997,0.12388123653634808,-0.12388123653634808
56.998,0.11249349886034554,-0.11249349886034554
56.999,0.09559100147028565,-0.09559100147028565
57.0,0.07859594763012845,-0.07859594763012845
57.001,0.06552720480584195,-0.06552720480584195
57.002,0.057890748430187156,-0.057890748430187156
57.003,0.05441707256805128,-0.05441707256805128
57.004,0.051737393225152584,-0.051737393225152584
57.005,0.045785406095061654,-0.045785406095061654
57.006,0.033464987020585646,-0.033464987020585646
57.007,0.014020844779569996,-0.014020844779569996
57.008,0.010370846392282917,0.010370846392282917
57.009,0.03503045367145852,0.03503045367145852
57.01,0.054126226633191665,0.054126226633191665
57.011,0.0625379510737798,0.0625379510737798
57.012,0.057630408279204515,0.057630408279204515
57.013,0.040335545287539576,0.040335545287539576
57.014,0.015143488238479108,0.015143488238479108
57.015,0.011055794580424938,-0.011055794580424938
57.016,0.030964299073353074,-0.030964299073353074
57.017,0.03910111966632701,-0.03910111966632701
57.018,0.03356240140611977,-0.03356240140611977
57.019,0.01674242562078143,-0.01674242562078143
57.02,0.005245062898298292,0.005245062898298292
57.021,0.024302974850249237,0.024302974850249237
57.022,0.032737175830376275,0.032737175830376275
57.023,0.025576707400444043,0.025576707400444043
57.024,0.0021265088831494694,0.0021265088831494694
57.025,0.03371464527154455,-0.03371464527154455
57.026,0.07446030306242313,-0.07446030306242313
57.027,0.11105536382386338,-0.11105536382386338
57.028,0.13530050884523936,-0.13530050884523936
57.029,0.14197329402079073,-0.14197329402079073
57.03,0.13005633724258414,-0.13005633724258414
57.031,0.10277621491963607,-0.10277621491963607
57.032,0.06652315927402608,-0.06652315927402608
57.033,0.029041837183313213,-0.029041837183313213
57.034,0.002540447353692965,0.002540447353692965
57.035,0.023294302110683285,0.023294302110683285
57.036,0.031303927917028185,0.031303927917028185
57.037,0.02761723179112119,0.02761723179112119
57.038,0.015495845462366598,0.015495845462366598
57.039,0.0006973389655609008,-0.0006973389655609008
57.04,0.01660239811436437,-0.01660239811436437
57.041,0.028683442747509114,-0.028683442747509114
57.042,0.03465952659234384,-0.03465952659234384
57.043,0.03360092187470143,-0.03360092187470143
57.044,0.02583752173120968,-0.02583752173120968
57.045,0.012818218187835684,-0.012818218187835684
57.046,0.0030271275726057034,0.0030271275726057034
57.047,0.01848112293372184,0.01848112293372184
57.048,0.029910125936900123,0.029910125936900123
57.049,0.033908350344494576,0.033908350344494576
57.05,0.028187901187991526,0.028187901187991526
57.051,0.012518213758699659,0.012518213758699659
57.052,0.010619698395853416,-0.010619698395853416
57.053,0.03602566460113177,-0.03602566460113177
57.054,0.056652621527854774,-0.056652621527854774
57.055,0.0653247528656854,-0.0653247528656854
57.056,0.056940616015908496,-0.056940616015908496
57.057,0.03053228876773828,-0.03053228876773828
57.058,0.009541423538657057,0.009541423538657057
57.059,0.05383976627304721,0.05383976627304721
57.06,0.0897153207487853,0.0897153207487853
57.061,0.10450310218819614,0.10450310218819614
57.062,0.08922808837405216,0.08922808837405216
57.063,0.0417569015935253,0.0417569015935253
57.064,0.03164093456377404,-0.03164093456377404
57.065,0.11697692292324768,-0.11697692292324768
57.066,0.195499574657524,-0.195499574657524
57.067,0.24825673634260914,-0.24825673634260914
57.068,0.2610604401296026,-0.2610604401296026
57.069,0.2284502041793105,-0.2284502041793105
57.07,0.15547236523504315,-0.15547236523504315
57.071,0.056687965964937304,-0.056687965964937304
57.072,0.04738151102700128,0.04738151102700128
57.073,0.13540553299234515,0.13540553299234515
57.074,0.1905504170665142,0.1905504170665142
57.075,0.20445148193668872,0.20445148193668872
57.076,0.17876802071705566,0.17876802071705566
57.077,0.12396806511360858,0.12396806511360858
57.078,0.055816658940049946,0.055816658940049946
57.079,0.009295110790731087,-0.009295110790731087
57.08,0.05874822315826678,-0.05874822315826678
57.081,0.08654733328723396,-0.08654733328723396
57.082,0.09390125175835295,-0.09390125175835295
57.083,0.08755945260014486,-0.08755945260014486
57.084,0.07663729981372946,-0.07663729981372946
57.085,0.06909497297832312,-0.06909497297832312
57.086,0.06906392795770921,-0.06906392795770921
57.087,0.07584775179643888,-0.07584775179643888
57.088,0.08480076568819428,-0.08480076568819428
57.089,0.0896283102244575,-0.0896283102244575
57.09,0.08518244692427224,-0.08518244692427224
57.091,0.06969895706034335,-0.06969895706034335
57.092,0.04566700739823237,-0.04566700739823237
57.093,0.019043426181702294,-0.019043426181702294
57.094,0.0028709214649322856,0.0028709214649322856
57.095,0.014098584724723695,0.014098584724723695
57.096,0.012218344230000344,0.012218344230000344
57.097,0.0006498259304950071,-0.0006498259304950071
57.098,0.018471512215835872,-0.018471512215835872
57.099,0.03332930013076052,-0.03332930013076052
57.1,0.03816033261233365,-0.03816033261233365
57.101,0.029257965955154175,-0.029257965955154175
57.102,0.007679228878090472,-0.007679228878090472
57.103,0.02092462935174,0.02092462935174
57.104,0.04800414659274077,0.04800414659274077
57.105,0.06477759539407102,0.06477759539407102
57.106,0.06500034187209836,0.06500034187209836
57.107,0.04695494511690135,0.04695494511690135
57.108,0.014051821768098272,0.014051821768098272
57.109,0.026110269417203846,-0.026110269417203846
57.11,0.06388772723635028,-0.06388772723635028
57.111,0.0902492613996132,-0.0902492613996132
57.112,0.099141974118931,-0.099141974118931
57.113,0.08890752876654351,-0.08890752876654351
57.114,0.06242849013224605,-0.06242849013224605
57.115,0.026090837050069204,-0.026090837050069204
57.116,0.012015926789114006,0.012015926789114006
57.117,0.04407562406718579,0.04407562406718579
57.118,0.06415394424776744,0.06415394424776744
57.119,0.0690973238295991,0.0690973238295991
57.12,0.058656334714710434,0.058656334714710434
57.121,0.035009243145764035,0.035009243145764035
57.122,0.0019896712859306387,0.0019896712859306387
57.123,0.035688871824865576,-0.035688871824865576
57.124,0.07303837875275787,-0.07303837875275787
57.125,0.10521619738730703,-0.10521619738730703
57.126,0.12786254583807743,-0.12786254583807743
57.127,0.13748657397719366,-0.13748657397719366
57.128,0.13196238944671357,-0.13196238944671357
57.129,0.11106963316614848,-0.11106963316614848
57.13,0.07689587324271485,-0.07689587324271485
57.131,0.03387440175862566,-0.03387440175862566
57.132,0.011706055557003214,0.011706055557003214
57.133,0.0527271010299013,0.0527271010299013
57.134,0.08261580409672842,0.08261580409672842
57.135,0.09672871970947061,0.09672871970947061
57.136,0.09335528438569751,0.09335528438569751
57.137,0.0740362153610239,0.0740362153610239
57.138,0.043089799074766066,0.043089799074766066
57.139,0.0064822836931948125,0.0064822836931948125
57.14,0.029618009620524854,-0.029618009620524854
57.141,0.06017327462843358,-0.06017327462843358
57.142,0.08212221386356444,-0.08212221386356444
57.143,0.09454785731558335,-0.09454785731558335
57.144,0.09821567683738985,-0.09821567683738985
57.145,0.09474063283443312,-0.09474063283443312
57.146,0.08574598418002999,-0.08574598418002999
57.147,0.07233969861216027,-0.07233969861216027
57.148,0.05507490303162588,-0.05507490303162588
57.149,0.03434425005583497,-0.03434425005583497
57.15,0.010970674292715032,-0.010970674292715032
57.151,0.01332728260437066,0.01332728260437066
57.152,0.03586568963272918,0.03586568963272918
57.153,0.053424342319446705,0.053424342319446705
57.154,0.06306304986555022,0.06306304986555022
57.155,0.0630364942857482,0.0630364942857482
57.156,0.053452898892569545,0.053452898892569545
57.157,0.036396074796380296,0.036396074796380296
57.158,0.0154200011299237,0.0154200011299237
57.159,0.005441315752825471,-0.005441315752825471
57.16,0.022818546487679225,-0.022818546487679225
57.161,0.034909134228091054,-0.034909134228091054
57.162,0.041821998512388214,-0.041821998512388214
57.163,0.04525345493215582,-0.04525345493215582
57.164,0.047631415824010315,-0.047631415824010315
57.165,0.05106350205676846,-0.05106350205676846
57.166,0.05649582969653599,-0.05649582969653599
57.167,0.06340327730164363,-0.06340327730164363
57.168,0.07011978791763018,-0.07011978791763018
57.169,0.0746594459394272,-0.0746594459394272
57.17,0.07567626942769468,-0.07567626942769468
57.171,0.0731447696677554,-0.0731447696677554
57.172,0.06844520746091742,-0.06844520746091742
57.173,0.0637733129832273,-0.0637733129832273
57.174,0.0610763970262862,-0.0610763970262862
57.175,0.060936632227833853,-0.060936632227833853
57.176,0.06188750569426782,-0.06188750569426782
57.177,0.06052544100968238,-0.06052544100968238
57.178,0.0525004219412456,-0.0525004219412456
57.179,0.03413275141264138,-0.03413275141264138
57.18,0.004130908753718798,-0.004130908753718798
57.181,0.035216193629920234,0.035216193629920234
57.182,0.07788125328167439,0.07788125328167439
57.183,0.11517387702876025,0.11517387702876025
57.184,0.1378444689911973,0.1378444689911973
57.185,0.1386498211862497,0.1386498211862497
57.186,0.1146187655976556,0.1146187655976556
57.187,0.06830148554337012,0.06830148554337012
57.188,0.007564188546981265,0.007564188546981265
57.189,0.056083556235295595,-0.056083556235295595
57.19,0.11020348487387677,-0.11020348487387677
57.191,0.14444870761024275,-0.14444870761024275
57.192,0.15306478639507803,-0.15306478639507803
57.193,0.13620603047731517,-0.13620603047731517
57.194,0.09974978296677572,-0.09974978296677572
57.195,0.05371571729643432,-0.05371571729643432
57.196,0.009765166541052195,-0.009765166541052195
57.197,0.021538108606829365,0.021538108606829365
57.198,0.0330257644183487,0.0330257644183487
57.199,0.02228748016986537,0.02228748016986537
57.2,0.008103058688920584,-0.008103058688920584
57.201,0.05140252140796242,-0.05140252140796242
57.202,0.0982404913514392,-0.0982404913514392
57.203,0.1384887989044954,-0.1384887989044954
57.204,0.1630868357441475,-0.1630868357441475
57.205,0.16555587658798132,-0.16555587658798132
57.206,0.14305147056415657,-0.14305147056415657
57.207,0.09688455182958922,-0.09688455182958922
57.208,0.0324757597508446,-0.0324757597508446
57.209,0.041284543277944286,0.041284543277944286
57.21,0.11327439438617826,0.11327439438617826
57.211,0.17190544817798847,0.17190544817798847
57.212,0.20721231728808864,0.20721231728808864
57.213,0.2129083642136511,0.2129083642136511
57.214,0.18793829422358388,0.18793829422358388
57.215,0.1370593493218506,0.1370593493218506
57.216,0.07014054084738564,0.07014054084738564
57.217,0.00017160102875735106,0.00017160102875735106
57.218,0.05965293888902745,-0.05965293888902745
57.219,0.09908098712380653,-0.09908098712380653
57.22,0.11332799053563991,-0.11332799053563991
57.221,0.10421688202431245,-0.10421688202431245
57.222,0.07951542282902746,-0.07951542282902746
57.223,0.05056961505472779,-0.05056961505472779
57.224,0.02886460379128275,-0.02886460379128275
57.225,0.022517977866987726,-0.022517977866987726
57.226,0.03378684205567539,-0.03378684205567539
57.227,0.05840143164187406,-0.05840143164187406
57.228,0.08698994751659717,-0.08698994751659717
57.229,0.10819643292273162,-0.10819643292273162
57.23,0.11252955179832413,-0.11252955179832413
57.231,0.09570727543198798,-0.09570727543198798
57.232,0.06038461512205828,-0.06038461512205828
57.233,0.015644437061103966,-0.015644437061103966
57.234,0.025654701724748374,0.025654701724748374
57.235,0.050874359429826876,0.050874359429826876
57.236,0.051673792891790526,0.051673792891790526
57.237,0.026847892823265385,0.026847892823265385
57.238,0.017022941462161545,-0.017022941462161545
57.239,0.06736800037071444,-0.06736800037071444
57.24,0.10933646344440229,-0.10933646344440229
57.241,0.1302680967088724,-0.1302680967088724
57.242,0.12351586565494765,-0.12351586565494765
57.243,0.09041480430366733,-0.09041480430366733
57.244,0.039786728561152174,-0.039786728561152174
57.245,0.014837400346302099,0.014837400346302099
57.246,0.0593675072155635,0.0593675072155635
57.247,0.08334202767597976,0.08334202767597976
57.248,0.08283394953553502,0.08283394953553502
57.249,0.06120160929471341,0.06120160929471341
57.25,0.027532136920796146,0.027532136920796146
57.251,0.0066210872716837565,-0.0066210872716837565
57.252,0.031071342361322918,-0.031071342361322918
57.253,0.04012438760730963,-0.04012438760730963
57.254,0.03400806665197409,-0.03400806665197409
57.255,0.01822661359948896,-0.01822661359948896
57.256,0.0011770597640056168,-0.0011770597640056168
57.257,0.009058706765307845,0.009058706765307845
57.258,0.007590023423707404,0.007590023423707404
57.259,0.005729465456722482,-0.005729465456722482
57.26,0.02655822464969171,-0.02655822464969171
57.261,0.04795937018781493,-0.04795937018781493
57.262,0.06317553351678618,-0.06317553351678618
57.263,0.0682337958155963,-0.0682337958155963
57.264,0.06341234266741425,-0.06341234266741425
57.265,0.053031319397928156,-0.053031319397928156
57.266,0.04365101453498377,-0.04365101453498377
57.267,0.04134848886323417,-0.04134848886323417
57.268,0.049089765704939725,-0.049089765704939725
57.269,0.0651956744894332,-0.0651956744894332
57.27,0.0835211509096212,-0.0835211509096212
57.271,0.09536215204494858,-0.09536215204494858
57.272,0.09248299685572015,-0.09248299685572015
57.273,0.07023755650007013,-0.07023755650007013
57.274,0.029688607361719743,-0.029688607361719743
57.275,0.022061254853407153,0.022061254853407153
57.276,0.07352833483637777,0.07352833483637777
57.277,0.11203228495046824,0.11203228495046824
57.278,0.12742185366580938,0.12742185366580938
57.279,0.11515749391968644,0.11515749391968644
57.28,0.07775541037004285,0.07775541037004285
57.281,0.024114446940268097,0.024114446940268097
57.282,0.03307782797594938,-0.03307782797594938
57.283,0.08105127697374348,-0.08105127697374348
57.284,0.11061225006965558,-0.11061225006965558
57.285,0.1186183734663161,-0.1186183734663161
57.286,0.10851625691866207,-0.10851625691866207
57.287,0.0888083829850218,-0.0888083829850218
57.288,0.06996858390142591,-0.06996858390142591
57.289,0.06080506447765455,-0.06080506447765455
57.29,0.06542793434184746,-0.06542793434184746
57.291,0.08177197244372969,-0.08177197244372969
57.292,0.10212785961158621,-0.10212785961158621
57.293,0.11550830732394646,-0.11550830732394646
57.294,0.11111628561482345,-0.11111628561482345
57.295,0.08185999117020726,-0.08185999117020726
57.296,0.026863232326895026,-0.026863232326895026
57.297,0.0477628688093894,0.0477628688093894
57.298,0.13009816678464792,0.13009816678464792
57.299,0.20518880757969882,0.20518880757969882
57.3,0.25862845690217284,0.25862845690217284
57.301,0.27996279342513875,0.27996279342513875
57.302,0.26503003550965754,0.26503003550965754
57.303,0.21668650689992197,0.21668650689992197
57.304,0.14383084778823152,0.14383084778823152
57.305,0.05909306712817575,0.05909306712817575
57.306,0.024129670045414664,-0.024129670045414664
57.307,0.09450436407350227,-0.09450436407350227
57.308,0.144789241873029,-0.144789241873029
57.309,0.17266449373429393,-0.17266449373429393
57.31,0.18032420603271315,-0.18032420603271315
57.311,0.17310434666822794,-0.17310434666822794
57.312,0.15762593261377922,-0.15762593261377922
57.313,0.13998450696074338,-0.13998450696074338
57.314,0.12442443567804362,-0.12442443567804362
57.315,0.11274496055241445,-0.11274496055241445
57.316,0.10445973132073949,-0.10445973132073949
57.317,0.09753664919638683,-0.09753664919638683
57.318,0.08942572730298004,-0.08942572730298004
57.319,0.07805719485667961,-0.07805719485667961
57.32,0.06255077447396173,-0.06255077447396173
57.321,0.04349075032337002,-0.04349075032337002
57.322,0.022752582207704597,-0.022752582207704597
57.323,0.0029806985172612377,-0.0029806985172612377
57.324,0.013110227079550674,0.013110227079550674
57.325,0.023416575150853935,0.023416575150853935
57.326,0.02694173023327817,0.02694173023327817
57.327,0.023999511542263097,0.023999511542263097
57.328,0.016095711131121737,0.016095711131121737
57.329,0.00553501759557129,0.00553501759557129
57.33,0.005139366475878204,-0.005139366475878204
57.331,0.013733485401857148,-0.013733485401857148
57.332,0.018877666061343557,-0.018877666061343557
57.333,0.020279844210354336,-0.020279844210354336
57.334,0.01870345488563996,-0.01870345488563996
57.335,0.01568336300886841,-0.01568336300886841
57.336,0.013057230379793117,-0.013057230379793117
57.337,0.012435102992974567,-0.012435102992974567
57.338,0.01474516364194467,-0.01474516364194467
57.339,0.01997366717138438,-0.01997366717138438
57.34,0.027165966200633163,-0.027165966200633163
57.341,0.03468567437757486,-0.03468567437757486
57.342,0.040658657559375144,-0.040658657559375144
57.343,0.04347710581391473,-0.04347710581391473
57.344,0.04222155479860468,-0.04222155479860468
57.345,0.03688160021661668,-0.03688160021661668
57.346,0.028314082350088476,-0.028314082350088476
57.347,0.017955083183419318,-0.017955083183419318
57.348,0.007376971209994032,-0.007376971209994032
57.349,0.002168680625505681,0.002168680625505681
57.35,0.010073551259496938,0.010073551259496938
57.351,0.01645018495690831,0.01645018495690831
57.352,0.021930537359465818,0.021930537359465818
57.353,0.027243552588601005,0.027243552588601005
57.354,0.03271068870690974,0.03271068870690974
57.355,0.037840943070504895,0.037840943070504895
57.356,0.0411940685125447,0.0411940685125447
57.357,0.04061056478535252,0.04061056478535252
57.358,0.03379561830252964,0.03379561830252964
57.359,0.01912209630602968,0.01912209630602968
57.36,0.0035774435744564403,-0.0035774435744564403
57.361,0.032494283660402856,-0.032494283660402856
57.362,0.06382213392258851,-0.06382213392258851
57.363,0.09232926842513478,-0.09232926842513478
57.364,0.1124534676921154,-0.1124534676921154
57.365,0.11967799534230716,-0.11967799534230716
57.366,0.11182694765638101,-0.11182694765638101
57.367,0.08989330122996397,-0.08989330122996397
57.368,0.05810253980989,-0.05810253980989
57.369,0.023105352789642875,-0.023105352789642875
57.37,0.007561986704627266,0.007561986704627266
57.371,0.027380283363237945,0.027380283363237945
57.372,0.03259992909910836,0.03259992909910836
57.373,0.023326278809022716,0.023326278809022716
57.374,0.0035727760522108465,0.0035727760522108465
57.375,0.019806994504696696,-0.019806994504696696
57.376,0.03906943216341763,-0.03906943216341763
57.377,0.047891161158246764,-0.047891161158246764
57.378,0.04336967086594923,-0.04336967086594923
57.379,0.027089342212624934,-0.027089342212624934
57.38,0.0048667345585416966,-0.0048667345585416966
57.381,0.014836363253762919,0.014836363253762919
57.382,0.02343846131081606,0.02343846131081606
57.383,0.014995690039438125,0.014995690039438125
57.384,0.011634314312014449,-0.011634314312014449
57.385,0.05192175367203811,-0.05192175367203811
57.386,0.09644094374596413,-0.09644094374596413
57.387,0.13317333448609026,-0.13317333448609026
57.388,0.15075293359837927,-0.15075293359837927
57.389,0.1417571035380918,-0.1417571035380918
57.39,0.10508652475453928,-0.10508652475453928
57.391,0.04670131209919903,-0.04670131209919903
57.392,0.021570427917267487,0.021570427917267487
57.393,0.08488701106399654,0.08488701106399654
57.394,0.12915967473716905,0.12915967473716905
57.395,0.14470225025438266,0.14470225025438266
57.396,0.12875163683429403,0.12875163683429403
57.397,0.08615666966115043,0.08615666966115043
57.398,0.028047069916547374,0.028047069916547374
57.399,0.03113839718938305,-0.03113839718938305
57.4,0.07743110038010415,-0.07743110038010415
57.401,0.10087582255347083,-0.10087582255347083
57.402,0.09788656598300094,-0.09788656598300094
57.403,0.07182263448360537,-0.07182263448360537
57.404,0.03170751046240372,-0.03170751046240372
57.405,0.0104713620893222,0.0104713620893222
57.406,0.043076200475909765,0.043076200475909765
57.407,0.057819048886264435,0.057819048886264435
57.408,0.05166748686254996,0.05166748686254996
57.409,0.027228670223329976,0.027228670223329976
57.41,0.00836991057524561,-0.00836991057524561
57.411,0.04568133652661088,-0.04568133652661088
57.412,0.07554972398355186,-0.07554972398355186
57.413,0.09141580467973254,-0.09141580467973254
57.414,0.09075807379925371,-0.09075807379925371
57.415,0.07539529697678493,-0.07539529697678493
57.416,0.050696219671872544,-0.050696219671872544
57.417,0.024005292869343386,-0.024005292869343386
57.418,0.0027385705371421043,-0.0027385705371421043
57.419,0.007384415818234125,0.007384415818234125
57.42,0.0036041500287458117,0.0036041500287458117
57.421,0.013331875238952295,-0.013331875238952295
57.422,0.039385727498571055,-0.039385727498571055
57.423,0.06811960379514825,-0.06811960379514825
57.424,0.09207561352191052,-0.09207561352191052
57.425,0.10440069534813079,-0.10440069534813079
57.426,0.10043740677817214,-0.10043740677817214
57.427,0.0789853654050452,-0.0789853654050452
57.428,0.0429504609612148,-0.0429504609612148
57.429,0.0008406510171501402,0.0008406510171501402
57.43,0.04275701099524931,0.04275701099524931
57.431,0.07231518919558289,0.07231518919558289
57.432,0.08064337664152998,0.08064337664152998
57.433,0.06293047126961482,0.06293047126961482
57.434,0.020225692778931936,0.020225692778931936
57.435,0.03999367858489611,-0.03999367858489611
57.436,0.10483416513815746,-0.10483416513815746
57.437,0.15854214718038495,-0.15854214718038495
57.438,0.18612893604004344,-0.18612893604004344
57.439,0.1772213310977261,-0.1772213310977261
57.44,0.12912309790037502,-0.12912309790037502
57.441,0.048179514645734,-0.048179514645734
57.442,0.05107689048313091,0.05107689048313091
57.443,0.14894361418626167,0.14894361418626167
57.444,0.22506086983744988,0.22506086983744988
57.445,0.2632891228280665,0.2632891228280665
57.446,0.2556579123919942,0.2556579123919942
57.447,0.20429764306531206,0.20429764306531206
57.448,0.12079730530091815,0.12079730530091815
57.449,0.023142790753820197,0.023142790753820197
57.45,0.06892529395273994,-0.06892529395273994
57.451,0.1388454938825866,-0.1388454938825866
57.452,0.17709686700698635,-0.17709686700698635
57.453,0.18295016392543928,-0.18295016392543928
57.454,0.16370279213765493,-0.16370279213765493
57.455,0.13173608071307885,-0.13173608071307885
57.456,0.10036292766457611,-0.10036292766457611
57.457,0.0797569376029379,-0.0797569376029379
57.458,0.07417620300109218,-0.07417620300109218
57.459,0.08124824804727304,-0.08124824804727304
57.46,0.09341504212353735,-0.09341504212353735
57.461,0.1009629574000176,-0.1009629574000176
57.462,0.09559380310296384,-0.09559380310296384
57.463,0.07337064377836955,-0.07337064377836955
57.464,0.036122598800383265,-0.036122598800383265
57.465,0.009077235315552601,0.009077235315552601
57.466,0.05211707294396595,0.05211707294396595
57.467,0.0829674438022161,0.0829674438022161
57.468,0.09469541621001931,0.09469541621001931
57.469,0.08543276094893737,0.08543276094893737
57.47,0.05873695569523707,0.05873695569523707
57.471,0.022320091439025802,0.022320091439025802
57.472,0.014366581908160536,-0.014366581908160536
57.473,0.0428796037082958,-0.0428796037082958
57.474,0.05800463036584991,-0.05800463036584991
57.475,0.058827144753503036,-0.058827144753503036
57.476,0.04844073106474467,-0.04844073106474467
57.477,0.032526583894043504,-0.032526583894043504
57.478,0.017366869089564307,-0.017366869089564307
57.479,0.007968417036129938,-0.007968417036129938
57.48,0.0068538980954370166,-0.0068538980954370166
57.481,0.013787981023717477,-0.013787981023717477
57.482,0.026362197146606814,-0.026362197146606814
57.483,0.041089185363473835,-0.041089185363473835
57.484,0.054543312014127654,-0.054543312014127654
57.485,0.06415364051577721,-0.06415364051577721
57.486,0.06846111747200556,-0.06846111747200556
57.487,0.06690159260577855,-0.06690159260577855
57.488,0.05936753563330832,-0.05936753563330832
57.489,0.04586184769420565,-0.04586184769420565
57.49,0.02647114985059973,-0.02647114985059973
57.491,0.001697542490481152,-0.001697542490481152
57.492,0.027018270891177476,0.027018270891177476
57.493,0.05688289986896855,0.05688289986896855
57.494,0.08374595567364063,0.08374595567364063
57.495,0.10266769869586256,0.10266769869586256
57.496,0.10899441285049893,0.10899441285049893
57.497,0.09965141401202238,0.09965141401202238
57.498,0.07423006681578914,0.07423006681578914
57.499,0.03546335968715031,0.03546335968715031
57.5,0.01114234939088865,-0.01114234939088865
57.501,0.058479692678046646,-0.058479692678046646
57.502,0.099501304075446,-0.099501304075446
57.503,0.12887507425318012,-0.12887507425318012
57.504,0.1441253215551921,-0.1441253215551921
57.505,0.14591290688348602,-0.14591290688348602
57.506,0.13739118392024086,-0.13739118392024086
57.507,0.12288320381335371,-0.12288320381335371
57.508,0.10635043482011253,-0.10635043482011253
57.509,0.09018435119820478,-0.09018435119820478
57.51,0.07472686284565822,-0.07472686284565822
57.511,0.0586570551464376,-0.0586570551464376
57.512,0.04006472078666046,-0.04006472078666046
57.513,0.017778386651057243,-0.017778386651057243
57.514,0.007582150125255316,0.007582150125255316
57.515,0.033264695875302897,0.033264695875302897
57.516,0.054936017008299975,0.054936017008299975
57.517,0.06797941739533564,0.06797941739533564
57.518,0.06910754049532608,0.06910754049532608
57.519,0.05771912403301349,0.05771912403301349
57.52,0.03648563067534827,0.03648563067534827
57.521,0.010893691878322231,0.010893691878322231
57.522,0.012185753980136216,-0.012185753980136216
57.523,0.02649589186438628,-0.02649589186438628
57.524,0.02834290779483495,-0.02834290779483495
57.525,0.017863853592124168,-0.017863853592124168
57.526,0.000826211896726603,0.000826211896726603
57.527,0.020708252462936283,0.020708252462936283
57.528,0.0338750433599857,0.0338750433599857
57.529,0.03390918198213533,0.03390918198213533
57.53,0.017918317828078623,0.017918317828078623
57.531,0.01238864143558327,-0.01238864143558327
57.532,0.05092504291449762,-0.05092504291449762
57.533,0.08871263750500957,-0.08871263750500957
57.534,0.11622743874335262,-0.11622743874335262
57.535,0.12595644344473655,-0.12595644344473655
57.536,0.11445969418848356,-0.11445969418848356
57.537,0.08337616358187461,-0.08337616358187461
57.538,0.03910932433283032,-0.03910932433283032
57.539,0.008710173831249834,0.008710173831249834
57.54,0.049564558600012854,0.049564558600012854
57.541,0.07457413271503799,0.07457413271503799
57.542,0.07856465165917759,0.07856465165917759
57.543,0.06117750012800105,0.06117750012800105
57.544,0.026787700859016494,0.026787700859016494
57.545,0.016696315420484886,-0.016696315420484886
57.546,0.05980567784794388,-0.05980567784794388
57.547,0.09374250226555425,-0.09374250226555425
57.548,0.1123236148065423,-0.1123236148065423
57.549,0.11319289324757831,-0.11319289324757831
57.55,0.09806070368414332,-0.09806070368414332
57.551,0.07197547636065282,-0.07197547636065282
57.552,0.041862454225483625,-0.041862454225483625
57.553,0.014725579038731618,-0.014725579038731618
57.554,0.004032922424418217,0.004032922424418217
57.555,0.011772859153032167,0.011772859153032167
57.556,0.009000174504985692,0.009000174504985692
57.557,0.0010781848424950002,-0.0010781848424950002
57.558,0.013671154507662098,-0.013671154507662098
57.559,0.02386794107800827,-0.02386794107800827
57.56,0.028043851396255093,-0.028043851396255093
57.561,0.024826112733716488,-0.024826112733716488
57.562,0.015364609160022025,-0.015364609160022025
57.563,0.0028492210450016264,-0.0028492210450016264
57.564,0.008569262386341814,0.008569262386341814
57.565,0.015123751440888178,0.015123751440888178
57.566,0.014629163718998806,0.014629163718998806
57.567,0.007162510468139649,0.007162510468139649
57.568,0.004992834541286295,-0.004992834541286295
57.569,0.01812909363486659,-0.01812909363486659
57.57,0.028379498992968877,-0.028379498992968877
57.571,0.033058510706366895,-0.033058510706366895
57.572,0.03162658152309761,-0.03162658152309761
57.573,0.025932884962568847,-0.025932884962568847
57.574,0.01961374688264972,-0.01961374688264972
57.575,0.01680366676644851,-0.01680366676644851
57.576,0.020561176560529137,-0.020561176560529137
57.577,0.03153944864511027,-0.03153944864511027
57.578,0.04739042954579242,-0.04739042954579242
57.579,0.06318245170913972,-0.06318245170913972
57.58,0.0727915783341685,-0.0727915783341685
57.581,0.0708941140224475,-0.0708941140224475
57.582,0.05495101563682181,-0.05495101563682181
57.583,0.0265198278337353,-0.0265198278337353
57.584,0.008611851859447572,0.008611851859447572
57.585,0.041641193161755075,0.041641193161755075
57.586,0.0630650279685403,0.0630650279685403
57.587,0.06547545126276577,0.06547545126276577
57.588,0.04601417631186533,0.04601417631186533
57.589,0.007704768612661228,0.007704768612661228
57.59,0.04083147476131277,-0.04083147476131277
57.591,0.08731354411102643,-0.08731354411102643
57.592,0.11893600479004152,-0.11893600479004152
57.593,0.1258634657242499,-0.1258634657242499
57.594,0.1040987569406584,-0.1040987569406584
57.595,0.05687964674646029,-0.05687964674646029
57.596,0.005845948973704607,0.005845948973704607
57.597,0.06977781710797348,0.06977781710797348
57.598,0.11984144615849468,0.11984144615849468
57.599,0.14401869358536046,0.14401869358536046
57.6,0.13638558876341778,0.13638558876341778
57.601,0.09853463635241178,0.09853463635241178
57.602,0.039017277755551305,0.039017277755551305
57.603,0.02899981983327571,-0.02899981983327571
57.604,0.09117767102461494,-0.09117767102461494
57.605,0.13557470418105566,-0.13557470418105566
57.606,0.15537241847123362,-0.15537241847123362
57.607,0.15006629487980372,-0.15006629487980372
57.608,0.12489924919069406,-0.12489924919069406
57.609,0.08882611643501193,-0.08882611643501193
57.61,0.051699301084418225,-0.051699301084418225
57.611,0.02154328473352507,-0.02154328473352507
57.612,0.0026964676008431887,-0.0026964676008431887
57.613,0.004717470351530695,0.004717470351530695
57.614,0.003962892219043779,0.003962892219043779
57.615,9.805685624963978e-05,-9.805685624963978e-05
57.616,0.00309592806118153,-0.00309592806118153
57.617,0.0028320411261276712,-0.0028320411261276712
57.618,9.026811321199979e-06,-9.026811321199979e-06
57.619,0.0021831584900589007,0.0021831584900589007
57.62,0.0005627403374298678,-0.0005627403374298678
57.621,0.011843209963776968,-0.011843209963776968
57.622,0.0328947398699756,-0.0328947398699756
57.623,0.06169083174487766,-0.06169083174487766
57.624,0.09310353747681444,-0.09310353747681444
57.625,0.1201027757905001,-0.1201027757905001
57.626,0.13563635806639895,-0.13563635806639895
57.627,0.1346204472051019,-0.1346204472051019
57.628,0.11543697350895821,-0.11543697350895821
57.629,0.08048691017627285,-0.08048691017627285
57.63,0.035634981946570776,-0.035634981946570776
57.631,0.011288016997495154,0.011288016997495154
57.632,0.05248514015915129,0.05248514015915129
57.633,0.08211799370860962,0.08211799370860962
57.634,0.09761463021071459,0.09761463021071459
57.635,0.10001186494192793,0.10001186494192793
57.636,0.09327139569139065,0.09327139569139065
57.637,0.08280556743672252,0.08280556743672252
57.638,0.07366763358903095,0.07366763358903095
57.639,0.06894315688569508,0.06894315688569508
57.64,0.06880582008179181,0.06880582008179181
57.641,0.07049914237260291,0.07049914237260291
57.642,0.06923688021790864,0.06923688021790864
57.643,0.059756244114848034,0.059756244114848034
57.644,0.038079874651962387,0.038079874651962387
57.645,0.002989776503687036,0.002989776503687036
57.646,0.04320178482289694,-0.04320178482289694
57.647,0.09480986873121977,-0.09480986873121977
57.648,0.1438443552432742,-0.1438443552432742
57.649,0.181734530999771,-0.181734530999771
57.65,0.2012917474712782,-0.2012917474712782
57.651,0.19843140804076242,-0.19843140804076242
57.652,0.17323308331017306,-0.17323308331017306
57.653,0.1300750046737975,-0.1300750046737975
57.654,0.07679697600753355,-0.07679697600753355
57.655,0.02307236525690448,-0.02307236525690448
57.656,0.02164628443946559,0.02164628443946559
57.657,0.0501430997280472,0.0501430997280472
57.658,0.05895628766846639,0.05895628766846639
57.659,0.04904679024157166,0.04904679024157166
57.66,0.02545865689411908,0.02545865689411908
57.661,0.003957567378666371,-0.003957567378666371
57.662,0.03046739721200975,-0.03046739721200975
57.663,0.04657191253818138,-0.04657191253818138
57.664,0.04781837607987438,-0.04781837607987438
57.665,0.0338586464582904,-0.0338586464582904
57.666,0.008485136336188304,-0.008485136336188304
57.667,0.021378670028246338,0.021378670028246338
57.668,0.04749227728073002,0.04749227728073002
57.669,0.06246194509101355,0.06246194509101355
57.67,0.061693940248575885,0.061693940248575885
57.671,0.044615138233377705,0.044615138233377705
57.672,0.014819175689516406,0.014819175689516406
57.673,0.020921398809030434,-0.020921398809030434
57.674,0.05452431633265764,-0.05452431633265764
57.675,0.07883925773186407,-0.07883925773186407
57.676,0.08962939382559598,-0.08962939382559598
57.677,0.08671267655378612,-0.08671267655378612
57.678,0.073906894822238,-0.073906894822238
57.679,0.05776269874026185,-0.05776269874026185
57.68,0.0454310252271144,-0.0454310252271144
57.681,0.04228853628579998,-0.04228853628579998
57.682,0.05004813718339585,-0.05004813718339585
57.683,0.0659695093457876,-0.0659695093457876
57.684,0.08347798789430716,-0.08347798789430716
57.685,0.09408105392550059,-0.09408105392550059
57.686,0.09006199842932783,-0.09006199842932783
57.687,0.06715655987601366,-0.06715655987601366
57.688,0.02637309658352327,-0.02637309658352327
57.689,0.02567220425673189,0.02567220425673189
57.69,0.0781162545003844,0.0781162545003844
57.691,0.11861005655692813,0.11861005655692813
57.692,0.13673740275353397,0.13673740275353397
57.693,0.1271040945254691,0.1271040945254691
57.694,0.09115312358965344,0.09115312358965344
57.695,0.037093428493238045,0.037093428493238045
57.696,0.022135168792174253,-0.022135168792174253
57.697,0.07235348177103385,-0.07235348177103385
57.698,0.10212435127636432,-0.10212435127636432
57.699,0.10606832719882198,-0.10606832719882198
57.7,0.08650769697772898,-0.08650769697772898
57.701,0.052889485172629924,-0.052889485172629924
57.702,0.019075749465887415,-0.019075749465887415
57.703,0.0007764082498236125,0.0007764082498236125
57.704,0.0034183639238749564,-0.0034183639238749564
57.705,0.03433467967543924,-0.03433467967543924
57.706,0.08593931512710185,-0.08593931512710185
57.707,0.14468598559559764,-0.14468598559559764
57.708,0.1929438875256021,-0.1929438875256021
57.709,0.21375453843028114,-0.21375453843028114
57.71,0.19561426747381738,-0.19561426747381738
57.711,0.13595039019738908,-0.13595039019738908
57.712,0.04230833738216011,-0.04230833738216011
57.713,0.06910480994925439,0.06910480994925439
57.714,0.17714811397356423,0.17714811397356423
57.715,0.26075574496113885,0.26075574496113885
57.716,0.30390171527257204,0.30390171527257204
57.717,0.2992320244015534,0.2992320244015534
57.718,0.2494662182785583,0.2494662182785583
57.719,0.1662945016393671,0.1662945016393671
57.72,0.06717183523263515,0.06717183523263515
57.721,0.029053806552761574,-0.029053806552761574
57.722,0.10648888899641162,-0.10648888899641162
57.723,0.1554134166594774,-0.1554134166594774
57.724,0.17364954415949085,-0.17364954415949085
57.725,0.16591022207912565,-0.16591022207912565
57.726,0.141515318574143,-0.141515318574143
57.727,0.11126670681568929,-0.11126670681568929
57.728,0.08442232395780047,-0.08442232395780047
57.729,0.06658038013672618,-0.06658038013672618
57.73,0.05893867957817833,-0.05893867957817833
57.731,0.05894881547279596,-0.05894881547279596
57.732,0.06197864953374488,-0.06197864953374488
57.733,0.06334421238803589,-0.06334421238803589
57.734,0.06003430578328717,-0.06003430578328717
57.735,0.05161955559246645,-0.05161955559246645
57.736,0.04014376348712756,-0.04014376348712756
57.737,0.02913513499100706,-0.02913513499100706
57.738,0.022142840062852165,-0.022142840062852165
57.739,0.02132500569606932,-0.02132500569606932
57.74,0.026562450701886564,-0.026562450701886564
57.741,0.035376778614295334,-0.035376778614295334
57.742,0.043661396472151726,-0.043661396472151726
57.743,0.04697636944481265,-0.04697636944481265
57.744,0.04198970289215376,-0.04198970289215376
57.745,0.02761386981132019,-0.02761386981132019
57.746,0.005489715167900866,-0.005489715167900866
57.747,0.02032750789941762,0.02032750789941762
57.748,0.04438758051940184,0.04438758051940184
57.749,0.06127569999518068,0.06127569999518068
57.75,0.06704876589795417,0.06704876589795417
57.751,0.06028060930513823,0.06028060930513823
57.752,0.04243788923462066,0.04243788923462066
57.753,0.01749931574234065,0.01749931574234065
57.754,0.009062172447780847,-0.009062172447780847
57.755,0.0316491422823767,-0.0316491422823767
57.756,0.04589507843170226,-0.04589507843170226
57.757,0.049660054900851236,-0.049660054900851236
57.758,0.04343274068624936,-0.04343274068624936
57.759,0.030071667027252946,-0.030071667027252946
57.76,0.013992497796859071,-0.013992497796859071
57.761,4.13777649871383e-05,-4.13777649871383e-05
57.762,0.00764606008784674,0.00764606008784674
57.763,0.0065253776962199694,0.0065253776962199694
57.764,0.003915546794226232,-0.003915546794226232
57.765,0.022201563653311163,-0.022201563653311163
57.766,0.04531979149371079,-0.04531979149371079
57.767,0.06940504524998392,-0.06940504524998392
57.768,0.09046797001657314,-0.09046797001657314
57.769,0.10500961210184856,-0.10500961210184856
57.77,0.11044312249232624,-0.11044312249232624
57.771,0.10532658049250077,-0.10532658049250077
57.772,0.08946710383683043,-0.08946710383683043
57.773,0.06396489100609826,-0.06396489100609826
57.774,0.031226979152437773,-0.031226979152437773
57.775,0.00508401098382838,0.00508401098382838
57.776,0.04025594144208777,0.04025594144208777
57.777,0.0689888430468859,0.0689888430468859
57.778,0.08616083251705242,0.08616083251705242
57.779,0.08783819477206922,0.08783819477206922
57.78,0.07233825396578086,0.07233825396578086
57.781,0.04105118530115148,0.04105118530115148
57.782,0.0012955298816805794,-0.0012955298816805794
57.783,0.04715836188074407,-0.04715836188074407
57.784,0.08752078928420959,-0.08752078928420959
57.785,0.11384423796317611,-0.11384423796317611
57.786,0.12018184990360536,-0.12018184990360536
57.787,0.10488113768588447,-0.10488113768588447
57.788,0.07133605165220724,-0.07133605165220724
57.789,0.027460681823798017,-0.027460681823798017
57.79,0.016099067490216612,0.016099067490216612
57.791,0.04861849714383171,0.04861849714383171
57.792,0.06211621326882888,0.06211621326882888
57.793,0.05353967276970706,0.05353967276970706
57.794,0.025640911004797706,0.025640911004797706
57.795,0.013776797469234103,-0.013776797469234103
57.796,0.054080672361829896,-0.054080672361829896
57.797,0.08487728326376409,-0.08487728326376409
57.798,0.09901617843823007,-0.09901617843823007
57.799,0.09459970275485996,-0.09459970275485996
57.8,0.07535096448628187,-0.07535096448628187
57.801,0.049194666626455996,-0.049194666626455996
57.802,0.025477984757265038,-0.025477984757265038
57.803,0.011716511089315929,-0.011716511089315929
57.804,0.010937041751260979,-0.010937041751260979
57.805,0.020529983007209318,-0.020529983007209318
57.806,0.0330558751060499,-0.0330558751060499
57.807,0.038814159865839026,-0.038814159865839026
57.808,0.02938167203996256,-0.02938167203996256
57.809,0.0009646652011733314,-0.0009646652011733314
57.81,0.04358725182790879,0.04358725182790879
57.811,0.09486974491078559,0.09486974491078559
57.812,0.13922191601818823,0.13922191601818823
57.813,0.16261943991769767,0.16261943991769767
57.814,0.15499785977776326,0.15499785977776326
57.815,0.11364916315241036,0.11364916315241036
57.816,0.044575819320118226,0.044575819320118226
57.817,0.03870469286074374,-0.03870469286074374
57.818,0.11862304063164297,-0.11862304063164297
57.819,0.1782896011240246,-0.1782896011240246
57.82,0.20608223372403123,-0.20608223372403123
57.821,0.19870747560607882,-0.19870747560607882
57.822,0.16181963749857797,-0.16181963749857797
57.823,0.10804023374687899,-0.10804023374687899
57.824,0.05302605984123754,-0.05302605984123754
57.825,0.010828931923531848,-0.010828931923531848
57.826,0.0100165093526563,0.0100165093526563
57.827,0.008506889847831989,0.008506889847831989
57.828,0.009250104861544761,-0.009250104861544761
57.829,0.03263679115712326,-0.03263679115712326
57.83,0.0503686081665351,-0.0503686081665351
57.831,0.05428098920551483,-0.05428098920551483
57.832,0.04183771032213435,-0.04183771032213435
57.833,0.01661282825300614,-0.01661282825300614
57.834,0.013298184276765657,0.013298184276765657
57.835,0.038291853188177516,0.038291853188177516
57.836,0.05060213370119926,0.05060213370119926
57.837,0.0468261172871165,0.0468261172871165
57.838,0.02881329589142201,0.02881329589142201
57.839,0.002703002193364501,0.002703002193364501
57.84,0.023453707176115834,-0.023453707176115834
57.841,0.04257704679612295,-0.04257704679612295
57.842,0.05089841367552106,-0.05089841367552106
57.843,0.04894707571632795,-0.04894707571632795
57.844,0.040891743274934056,-0.040891743274934056
57.845,0.032552343794100436,-0.032552343794100436
57.846,0.028874601405128986,-0.028874601405128986
57.847,0.03183893333496146,-0.03183893333496146
57.848,0.03959667432090086,-0.03959667432090086
57.849,0.047160480256780435,-0.047160480256780435
57.85,0.048393930476830826,-0.048393930476830826
57.851,0.03855949775195089,-0.03855949775195089
57.852,0.016469500701882578,-0.016469500701882578
57.853,0.014581940257111903,0.014581940257111903
57.854,0.047495142968698945,0.047495142968698945
57.855,0.07346195118790066,0.07346195118790066
57.856,0.08478243244297134,0.08478243244297134
57.857,0.07743213125405224,0.07743213125405224
57.858,0.052484394129776124,0.052484394129776124
57.859,0.015881193539559524,0.015881193539559524
57.86,0.02338721979427194,-0.02338721979427194
57.861,0.05608783968853215,-0.05608783968853215
57.862,0.07559543520386613,-0.07559543520386613
57.863,0.07983963365087665,-0.07983963365087665
57.864,0.07171689099735645,-0.07171689099735645
57.865,0.05786342675440348,-0.05786342675440348
57.866,0.04623824768502227,-0.04623824768502227
57.867,0.04335290896327426,-0.04335290896327426
57.868,0.052077607470072285,-0.052077607470072285
57.869,0.07072811078063801,-0.07072811078063801
57.87,0.09368261497167096,-0.09368261497167096
57.871,0.11325692801322829,-0.11325692801322829
57.872,0.12216235451627488,-0.12216235451627488
57.873,0.11571744651865368,-0.11571744651865368
57.874,0.09312284484358446,-0.09312284484358446
57.875,0.05747360014267522,-0.05747360014267522
57.876,0.014633829315774838,-0.014633829315774838
57.877,0.028530927147426555,0.028530927147426555
57.878,0.06590548051811207,0.06590548051811207
57.879,0.09329260053499588,0.09329260053499588
57.88,0.10871948723310187,0.10871948723310187
57.881,0.11197436678443351,0.11197436678443351
57.882,0.1037612780476802,0.1037612780476802
57.883,0.08497193667000325,0.08497193667000325
57.884,0.05646109210996819,0.05646109210996819
57.885,0.01942928871387628,0.01942928871387628
57.886,0.023813528203094347,-0.023813528203094347
57.887,0.06916607863929514,-0.06916607863929514
57.888,0.11063313537753394,-0.11063313537753394
57.889,0.14110717152001073,-0.14110717152001073
57.89,0.15398397093795946,-0.15398397093795946
57.891,0.145179254299314,-0.145179254299314
57.892,0.11485802251666899,-0.11485802251666899
57.893,0.06817517395760009,-0.06817517395760009
57.894,0.014583734378302515,-0.014583734378302515
57.895,0.03427722614045403,0.03427722614045403
57.896,0.06760183006444453,0.06760183006444453
57.897,0.07846381321905316,0.07846381321905316
57.898,0.06591959526527735,0.06591959526527735
57.899,0.035434056857643226,0.035434056857643226
57.9,0.0026037153127097534,-0.0026037153127097534
57.901,0.03590004791132562,-0.03590004791132562
57.902,0.05392537680635112,-0.05392537680635112
57.903,0.0511062831077127,-0.0511062831077127
57.904,0.028536723606195635,-0.028536723606195635
57.905,0.006344412540868705,0.006344412540868705
57.906,0.04202445279801248,0.04202445279801248
57.907,0.06643518059172338,0.06643518059172338
57.908,0.0706236022552944,0.0706236022552944
57.909,0.05144019917793141,0.05144019917793141
57.91,0.012433139528973847,0.012433139528973847
57.911,0.03728477267510344,-0.03728477267510344
57.912,0.08578890535569628,-0.08578890535569628
57.913,0.12181469109938703,-0.12181469109938703
57.914,0.13785918994844515,-0.13785918994844515
57.915,0.13199066528196746,-0.13199066528196746
57.916,0.10790094006179296,-0.10790094006179296
57.917,0.07331862149732638,-0.07331862149732638
57.918,0.037413172731126876,-0.037413172731126876
57.919,0.008093770145015333,-0.008093770145015333
57.92,0.009936183970204349,0.009936183970204349
57.921,0.01583592405306722,0.01583592405306722
57.922,0.011947066168799703,0.011947066168799703
57.923,0.0021925019305235605,0.0021925019305235605
57.924,0.009745402842827655,-0.009745402842827655
57.925,0.021754317714433702,-0.021754317714433702
57.926,0.0336645037468738,-0.0336645037468738
57.927,0.04660633600432684,-0.04660633600432684
57.928,0.06170346269966809,-0.06170346269966809
57.929,0.07871150473031552,-0.07871150473031552
57.93,0.09522912069722433,-0.09522912069722433
57.931,0.10688105835570672,-0.10688105835570672
57.932,0.10848941944127488,-0.10848941944127488
57.933,0.09585404380873863,-0.09585404380873863
57.934,0.06750319629877599,-0.06750319629877599
57.935,0.02574897956842137,-0.02574897956842137
57.936,0.02339942562024966,0.02339942562024966
57.937,0.07152382678603075,0.07152382678603075
57.938,0.10992604445650711,0.10992604445650711
57.939,0.13193545808593332,0.13193545808593332
57.94,0.13465578739522344,0.13465578739522344
57.941,0.11958882350976752,0.11958882350976752
57.942,0.0919433051814007,0.0919433051814007
57.943,0.05887333189503008,0.05887333189503008
57.944,0.027242416731096064,0.027242416731096064
57.945,0.0016562271716475951,0.0016562271716475951
57.946,0.016599682221228318,-0.016599682221228318
57.947,0.029402557961967668,-0.029402557961967668
57.948,0.040525450760844794,-0.040525450760844794
57.949,0.05375124517463503,-0.05375124517463503
57.95,0.07106544903040546,-0.07106544903040546
57.951,0.09158915908846443,-0.09158915908846443
57.952,0.11164806360386015,-0.11164806360386015
57.953,0.12597062275175586,-0.12597062275175586
57.954,0.12960676858620412,-0.12960676858620412
57.955,0.11989466721303266,-0.11989466721303266
57.956,0.09776736247188356,-0.09776736247188356
57.957,0.06789689690588963,-0.06789689690588963
57.958,0.03755377541656979,-0.03755377541656979
57.959,0.014489745723085146,-0.014489745723085146
57.96,0.004490797031383997,-0.004490797031383997
57.961,0.009383534390865256,-0.009383534390865256
57.962,0.026165275941643085,-0.026165275941643085
57.963,0.04759914760947359,-0.04759914760947359
57.964,0.06417089004339138,-0.06417089004339138
57.965,0.06688053622452361,-0.06688053622452361
57.966,0.05006922489895471,-0.05006922489895471
57.967,0.013442657702092409,-0.013442657702092409
57.968,0.03733891117562682,0.03733891117562682
57.969,0.0917387105771994,0.0917387105771994
57.97,0.13685517850443074,0.13685517850443074
57.971,0.1607244034995079,0.1607244034995079
57.972,0.15553674432576092,0.15553674432576092
57.973,0.11989694362673609,0.11989694362673609
57.974,0.05949977023366326,0.05949977023366326
57.975,0.013994004991915387,-0.013994004991915387
57.976,0.08562492754136164,-0.08562492754136164
57.977,0.14068366855902836,-0.14068366855902836
57.978,0.16824582085181294,-0.16824582085181294
57.979,0.16379476778332702,-0.16379476778332702
57.98,0.13026309975171702,-0.13026309975171702
57.981,0.07722312628921035,-0.07722312628921035
57.982,0.018426859339876978,-0.018426859339876978
57.983,0.03168350365162853,0.03168350365162853
57.984,0.06160857154295862,0.06160857154295862
57.985,0.06564075722592788,0.06564075722592788
57.986,0.045196410786811914,0.045196410786811914
57.987,0.00828232840821208,0.00828232840821208
57.988,0.03277345378423713,-0.03277345378423713
57.989,0.06474419177003865,-0.06474419177003865
57.99,0.07718849185438381,-0.07718849185438381
57.991,0.06542100476439461,-0.06542100476439461
57.992,0.031965234028258016,-0.031965234028258016
57.993,0.013930305611644211,0.013930305611644211
57.994,0.0586260458555794,0.0586260458555794
57.995,0.0876946570253756,0.0876946570253756
57.996,0.08986157525947158,0.08986157525947158
57.997,0.06023999520899004,0.06023999520899004
57.998,0.0019832739121774523,0.0019832739121774523
57.999,0.07411846796666244,-0.07411846796666244
58.0,0.15203302798110196,-0.15203302798110196
58.001,0.21427933506446617,-0.21427933506446617
58.002,0.24615144394351152,-0.24615144394351152
58.003,0.23928767869910594,-0.23928767869910594
58.004,0.1936725655800451,-0.1936725655800451
58.005,0.1175770655105357,-0.1175770655105357
58.006,0.025490114043891343,-0.025490114043891343
58.007,0.06537969554729717,0.06537969554729717
58.008,0.13909395504301436,0.13909395504301436
58.009,0.18443101307813992,0.18443101307813992
58.01,0.1969422838811472,0.1969422838811472
58.011,0.17918372394022275,0.17918372394022275
58.012,0.13920265027840517,0.13920265027840517
58.013,0.08782862225422305,0.08782862225422305
58.014,0.035608372675231426,0.035608372675231426
58.015,0.009737150680259044,-0.009737150680259044
58.016,0.044670696539315435,-0.044670696539315435
58.017,0.06974329022462367,-0.06974329022462367
58.018,0.08822797851402142,-0.08822797851402142
58.019,0.10403700522774206,-0.10403700522774206
58.02,0.11966283017904389,-0.11966283017904389
58.021,0.1348362922045413,-0.1348362922045413
58.022,0.14633808076842814,-0.14633808076842814
58.023,0.1490171116172493,-0.1490171116172493
58.024,0.13768010853375756,-0.13768010853375756
58.025,0.10923734150990283,-0.10923734150990283
58.026,0.06440065269028461,-0.06440065269028461
58.027,0.008354082555000253,-0.008354082555000253
58.028,0.04988532824087333,0.04988532824087333
58.029,0.09931713910392692,0.09931713910392692
58.03,0.12956181906495812,0.12956181906495812
58.031,0.13353354939619422,0.13353354939619422
58.032,0.10945344337673579,0.10945344337673579
58.033,0.06163191289279757,0.06163191289279757
58.034,0.0002391364573371968,-0.0002391364573371968
58.035,0.06315998278758728,-0.06315998278758728
58.036,0.11378333520173178,-0.11378333520173178
58.037,0.14154637700453787,-0.14154637700453787
58.038,0.14120303130448542,-0.14120303130448542
58.039,0.11412058671249736,-0.11412058671249736
58.04,0.06799951936001092,-0.06799951936001092
58.041,0.015057254028614575,-0.015057254028614575
58.042,0.030906729721104975,0.030906729721104975
58.043,0.05786693245212571,0.05786693245212571
58.044,0.05853689003479956,0.05853689003479956
58.045,0.03221244384015831,0.03221244384015831
58.046,0.014976133328803543,-0.014976133328803543
58.047,0.07149036507916795,-0.07149036507916795
58.048,0.12316290719463552,-0.12316290719463552
58.049,0.1566628804118796,-0.1566628804118796
58.05,0.16279609630408287,-0.16279609630408287
58.051,0.13881430946107354,-0.13881430946107354
58.052,0.0891426583381093,-0.0891426583381093
58.053,0.024326058921365856,-0.024326058921365856
58.054,0.04155271741150934,0.04155271741150934
58.055,0.09433442979472484,0.09433442979472484
58.056,0.12324128456452477,0.12324128456452477
58.057,0.1234432319376435,0.1234432319376435
58.058,0.09707524883944352,0.09707524883944352
58.059,0.05245754528956481,0.05245754528956481
58.06,0.001749908209307982,0.001749908209307982
58.061,0.042310512058726824,-0.042310512058726824
58.062,0.06969872157143187,-0.06969872157143187
58.063,0.07553628891980668,-0.07553628891980668
58.064,0.06104085121740166,-0.06104085121740166
58.065,0.03278743709793208,-0.03278743709793208
58.066,0.0005556317574165748,-0.0005556317574165748
58.067,0.025573732459710508,0.025573732459710508
58.068,0.03801930089693917,0.03801930089693917
58.069,0.03360790111567602,0.03360790111567602
58.07,0.01409498741127102,0.01409498741127102
58.071,0.014769133856532779,-0.014769133856532779
58.072,0.04525888559991764,-0.04525888559991764
58.073,0.07010411063861866,-0.07010411063861866
58.074,0.08456921385024874,-0.08456921385024874
58.075,0.08756892347868384,-0.08756892347868384
58.076,0.08154355634831278,-0.08154355634831278
58.077,0.07122355087742205,-0.07122355087742205
58.078,0.061760144727476374,-0.061760144727476374
58.079,0.056877117294756085,-0.056877117294756085
58.08,0.05765582636349742,-0.05765582636349742
58.081,0.06232407640960058,-0.06232407640960058
58.082,0.06706522078669286,-0.06706522078669286
58.083,0.06751880220121775,-0.06751880220121775
58.084,0.06042326126383801,-0.06042326126383801
58.085,0.04482538260998825,-0.04482538260998825
58.086,0.02245313060185883,-0.02245313060185883
58.087,0.002846188037454178,0.002846188037454178
58.088,0.026370797751805952,0.026370797751805952
58.089,0.04406182929087232,0.04406182929087232
58.09,0.053696270181658345,0.053696270181658345
58.091,0.055364889773082515,0.055364889773082515
58.092,0.0510957711470732,0.0510957711470732
58.093,0.043801528712131166,0.043801528712131166
58.094,0.035977229701676494,0.035977229701676494
58.095,0.028666222441429134,0.028666222441429134
58.096,0.02110879451212111,0.02110879451212111
58.097,0.011229073455639504,0.011229073455639504
58.098,0.0032087177011140833,-0.0032087177011140833
58.099,0.023214997996752307,-0.023214997996752307
58.1,0.047518071156821384,-0.047518071156821384
58.101,0.07230737759010053,-0.07230737759010053
58.102,0.09198146402777774,-0.09198146402777774
58.103,0.1007455744144955,-0.1007455744144955
58.104,0.0945752827452091,-0.0945752827452091
58.105,0.07288398923809059,-0.07288398923809059
58.106,0.03927469522944771,-0.03927469522944771
58.107,0.0010179515331001365,-0.0010179515331001365
58.108,0.032699551023996465,0.032699551023996465
58.109,0.05329703593142865,0.05329703593142865
58.11,0.0553466976435697,0.0553466976435697
58.111,0.038342546623452156,0.038342546623452156
58.112,0.007089330470433364,0.007089330470433364
58.113,0.029484397307699584,-0.029484397307699584
58.114,0.060798635514339616,-0.060798635514339616
58.115,0.0776762769575221,-0.0776762769575221
58.116,0.07507089728914407,-0.07507089728914407
58.117,0.0536333759566211,-0.0536333759566211
58.118,0.019618962221403247,-0.019618962221403247
58.119,0.016865761330717266,0.016865761330717266
58.12,0.044770776477355056,0.044770776477355056
58.121,0.055304577308906255,0.055304577308906255
58.122,0.04447630321031948,0.04447630321031948
58.123,0.014224018845556463,0.014224018845556463
58.124,0.028193802432694204,-0.028193802432694204
58.125,0.07233848611004245,-0.07233848611004245
58.126,0.10759746530166736,-0.10759746530166736
58.127,0.12614080956115348,-0.12614080956115348
58.128,0.12494769996762423,-0.12494769996762423
58.129,0.10632929537577196,-0.10632929537577196
58.13,0.07685231986600072,-0.07685231986600072
58.131,0.04506406025929732,-0.04506406025929732
58.132,0.018777822926932974,-0.018777822926932974
58.133,0.00278777976649891,-0.00278777976649891
58.134,0.002286305161786739,0.002286305161786739
58.135,0.0002886302216337233,-0.0002886302216337233
58.136,0.004924891045617441,-0.004924891045617441
58.137,0.005980820397430864,-0.005980820397430864
58.138,6.396577793799096e-05,6.396577793799096e-05
58.139,0.013267868826011053,0.013267868826011053
58.14,0.030169873370494038,0.030169873370494038
58.141,0.04502426742430421,0.04502426742430421
58.142,0.05189670352251996,0.05189670352251996
58.143,0.04689626541451308,0.04689626541451308
58.144,0.029765914237000368,0.029765914237000368
58.145,0.004261355994610527,0.004261355994610527
58.146,0.02285130076613273,-0.02285130076613273
58.147,0.04388627628573849,-0.04388627628573849
58.148,0.05275140190399408,-0.05275140190399408
58.149,0.04705808070959672,-0.04705808070959672
58.15,0.029110424087042786,-0.029110424087042786
58.151,0.005401813201456163,-0.005401813201456163
58.152,0.015277836450820148,0.015277836450820148
58.153,0.024567602704328673,0.024567602704328673
58.154,0.017251992891456513,0.017251992891456513
58.155,0.006896780850345285,-0.006896780850345285
58.156,0.04276458997667065,-0.04276458997667065
58.157,0.0811922570652166,-0.0811922570652166
58.158,0.11157452596060502,-0.11157452596060502
58.159,0.12499857399896397,-0.12499857399896397
58.16,0.11697487386843597,-0.11697487386843597
58.161,0.08891809856814337,-0.08891809856814337
58.162,0.04790143668268387,-0.04790143668268387
58.163,0.004724534734049324,-0.004724534734049324
58.164,0.029153663955611808,0.029153663955611808
58.165,0.044916787034418926,0.044916787034418926
58.166,0.03894734406371669,0.03894734406371669
58.167,0.013872250435904121,0.013872250435904121
58.168,0.02222159138187818,-0.02222159138187818
58.169,0.058177489004246685,-0.058177489004246685
