Czas,AbsSum,Sum
252.879,0.09530690702044864,0.09530690702044864
252.88,0.06885208965021361,0.06885208965021361
252.881,0.027430316578086922,0.027430316578086922
252.882,0.01977779255990808,-0.01977779255990808
252.883,0.06108920391440009,-0.06108920391440009
252.884,0.08562925823588541,-0.08562925823588541
252.885,0.0866524925546347,-0.0866524925546347
252.886,0.06376846799189584,-0.06376846799189584
252.887,0.023277952026512283,-0.023277952026512283
252.888,0.02357255366011901,0.02357255366011901
252.889,0.06391634508261435,0.06391634508261435
252.89,0.08712643801606901,0.08712643801606901
252.891,0.08796392047100188,0.08796392047100188
252.892,0.067989716466196,0.067989716466196
252.893,0.03478768461098425,0.03478768461098425
252.894,0.0007217428550985172,-0.0007217428550985172
252.895,0.027959686995926547,-0.027959686995926547
252.896,0.04011587373726466,-0.04011587373726466
252.897,0.03618214741163395,-0.03618214741163395
252.898,0.02094004369312119,-0.02094004369312119
252.899,0.0029585046941635884,-0.0029585046941635884
252.9,0.008661557764155114,0.008661557764155114
252.901,0.007641146072149052,0.007641146072149052
252.902,0.007193261573524734,-0.007193261573524734
252.903,0.03147588571390225,-0.03147588571390225
252.904,0.05684460945347436,-0.05684460945347436
252.905,0.0739018379933144,-0.0739018379933144
252.906,0.07555201295871916,-0.07555201295871916
252.907,0.059558239262788804,-0.059558239262788804
252.908,0.02944313872459181,-0.02944313872459181
252.909,0.006564450945603539,0.006564450945603539
252.91,0.03816841364615864,0.03816841364615864
252.911,0.05633319867331665,0.05633319867331665
252.912,0.056189588931270684,0.056189588931270684
252.913,0.03857027415716541,0.03857027415716541
252.914,0.009700465117888468,0.009700465117888468
252.915,0.020816168782530675,-0.020816168782530675
252.916,0.04302874085876085,-0.04302874085876085
252.917,0.049698311554676744,-0.049698311554676744
252.918,0.03842692102729306,-0.03842692102729306
252.919,0.01223541724206978,-0.01223541724206978
252.92,0.021514419673847707,0.021514419673847707
252.921,0.05343887043830464,0.05343887043830464
252.922,0.07492212853834856,0.07492212853834856
252.923,0.08051542626464303,0.08051542626464303
252.924,0.0692648725271352,0.0692648725271352
252.925,0.04466124522259296,0.04466124522259296
252.926,0.01333836252038556,0.01333836252038556
252.927,0.016998907178325195,-0.016998907178325195
252.928,0.03975936281386894,-0.03975936281386894
252.929,0.05113913068168818,-0.05113913068168818
252.93,0.05086922391615323,-0.05086922391615323
252.931,0.04192256681494022,-0.04192256681494022
252.932,0.029360810650834512,-0.029360810650834512
252.933,0.01870986302397326,-0.01870986302397326
252.934,0.014333228533429665,-0.014333228533429665
252.935,0.01822429165481665,-0.01822429165481665
252.936,0.029495592356235334,-0.029495592356235334
252.937,0.04465351656064853,-0.04465351656064853
252.938,0.058558162313174345,-0.058558162313174345
252.939,0.0658167034545768,-0.0658167034545768
252.94,0.06226691143943264,-0.06226691143943264
252.941,0.04618709341794547,-0.04618709341794547
252.942,0.01892303965422848,-0.01892303965422848
252.943,0.015252945519442784,0.015252945519442784
252.944,0.05005749442944207,0.05005749442944207
252.945,0.0786924089099279,0.0786924089099279
252.946,0.09555306718134493,0.09555306718134493
252.947,0.09768479580006084,0.09768479580006084
252.948,0.0855507285042858,0.0855507285042858
252.949,0.06284019020053755,0.06284019020053755
252.95,0.03532058188218312,0.03532058188218312
252.951,0.00904441450794713,0.00904441450794713
252.952,0.011534066190488246,-0.011534066190488246
252.953,0.024896494960363613,-0.024896494960363613
252.954,0.03274804357009364,-0.03274804357009364
252.955,0.03907903710303062,-0.03907903710303062
252.956,0.04825585215884465,-0.04825585215884465
252.957,0.06278625523688575,-0.06278625523688575
252.958,0.08160286590893973,-0.08160286590893973
252.959,0.09961698185921242,-0.09961698185921242
252.96,0.10891023810385436,-0.10891023810385436
252.961,0.10135924591896905,-0.10135924591896905
252.962,0.07191740793406809,-0.07191740793406809
252.963,0.021420108523642623,-0.021420108523642623
252.964,0.042207548327535926,0.042207548327535926
252.965,0.10503760740536894,0.10503760740536894
252.966,0.15048973614278993,0.15048973614278993
252.967,0.16411025356676623,0.16411025356676623
252.968,0.13834456705715237,0.13834456705715237
252.969,0.07570610211503204,0.07570610211503204
252.97,0.010878702781184413,-0.010878702781184413
252.971,0.10093741412613844,-0.10093741412613844
252.972,0.17188105985537216,-0.17188105985537216
252.973,0.20544634665638384,-0.20544634665638384
252.974,0.19315884285024398,-0.19315884285024398
252.975,0.13902438927644856,-0.13902438927644856
252.976,0.05846855680624996,-0.05846855680624996
252.977,0.02627187474378312,0.02627187474378312
252.978,0.09292947621191039,0.09292947621191039
252.979,0.1260222589984934,0.1260222589984934
252.98,0.1214957784804811,0.1214957784804811
252.981,0.08764757438874637,0.08764757438874637
252.982,0.04199401776838019,0.04199401776838019
252.983,0.005088161941735558,0.005088161941735558
252.984,0.006665036070392039,-0.006665036070392039
252.985,0.013215538446722741,0.013215538446722741
252.986,0.05888549519919151,0.05888549519919151
252.987,0.1139911524860242,0.1139911524860242
252.988,0.15712441952882172,0.15712441952882172
252.989,0.16909628331398996,0.16909628331398996
252.99,0.1395786126797598,0.1395786126797598
252.991,0.07086717523455821,0.07086717523455821
252.992,0.022508410206729557,-0.022508410206729557
252.993,0.1181912916645681,-0.1181912916645681
252.994,0.19292183122011397,-0.19292183122011397
252.995,0.22963948512628773,-0.22963948512628773
252.996,0.22239233340126097,-0.22239233340126097
252.997,0.17747479427203505,-0.17747479427203505
252.998,0.11054324438870955,-0.11054324438870955
252.999,0.040856489265765794,-0.040856489265765794
253.0,0.015240947382091141,0.015240947382091141
253.001,0.049271572005572084,0.049271572005572084
253.002,0.06232379722014092,0.06232379722014092
253.003,0.06303950490989041,0.06303950490989041
253.004,0.0628165493805839,0.0628165493805839
253.005,0.07018201795494461,0.07018201795494461
253.006,0.08658940900320511,0.08658940900320511
253.007,0.10534520252461066,0.10534520252461066
253.008,0.11417327804339927,0.11417327804339927
253.009,0.1005153360314901,0.1005153360314901
253.01,0.05756234655256742,0.05756234655256742
253.011,0.011367466926993752,-0.011367466926993752
253.012,0.09198511982009328,-0.09198511982009328
253.013,0.1623761652363913,-0.1623761652363913
253.014,0.1996659010626448,-0.1996659010626448
253.015,0.18786007631253898,-0.18786007631253898
253.016,0.12415713751616098,-0.12415713751616098
253.017,0.02140761064758101,-0.02140761064758101
253.018,0.09439083165788942,0.09439083165788942
253.019,0.19102997824153345,0.19102997824153345
253.02,0.23941248906132007,0.23941248906132007
253.021,0.22235137581266495,0.22235137581266495
253.022,0.14003964951751735,0.14003964951751735
253.023,0.010416480200154732,0.010416480200154732
253.024,0.1357179150959935,-0.1357179150959935
253.025,0.26331439907950027,-0.26331439907950027
253.026,0.34272998001649435,-0.34272998001649435
253.027,0.35747344551792604,-0.35747344551792604
253.028,0.3077845594379801,-0.3077845594379801
253.029,0.20919386772091486,-0.20919386772091486
253.03,0.0868345846732973,-0.0868345846732973
253.031,0.032425841300858016,0.032425841300858016
253.032,0.12741790423359411,0.12741790423359411
253.033,0.18739620198852935,0.18739620198852935
253.034,0.21286853054014032,0.21286853054014032
253.035,0.21273914149395456,0.21273914149395456
253.036,0.19920232932766235,0.19920232932766235
253.037,0.18245590407769807,0.18245590407769807
253.038,0.16716087022146087,0.16716087022146087
253.039,0.1517536294425943,0.1517536294425943
253.04,0.13055696659372518,0.13055696659372518
253.041,0.09757812105825892,0.09757812105825892
253.042,0.050309326841979196,0.050309326841979196
253.043,0.00805510502889184,-0.00805510502889184
253.044,0.06887111065773155,-0.06887111065773155
253.045,0.12064260195641852,-0.12064260195641852
253.046,0.15291670420044357,-0.15291670420044357
253.047,0.15994006831778518,-0.15994006831778518
253.048,0.14265965212499232,-0.14265965212499232
253.049,0.1083162458056679,-0.1083162458056679
253.05,0.06781952184038953,-0.06781952184038953
253.051,0.03194111869579164,-0.03194111869579164
253.052,0.007792131530563129,-0.007792131530563129
253.053,0.00309518610550219,0.00309518610550219
253.054,0.00441878770487425,0.00441878770487425
253.055,0.0027339824929806245,0.0027339824929806245
253.056,0.004097196544714965,0.004097196544714965
253.057,0.011146228080097131,0.011146228080097131
253.058,0.02184885378090118,0.02184885378090118
253.059,0.030468946375937778,0.030468946375937778
253.06,0.03038708152090064,0.03038708152090064
253.061,0.017627598887458573,0.017627598887458573
253.062,0.006402149460868478,-0.006402149460868478
253.063,0.034215523051092434,-0.034215523051092434
253.064,0.0541005406012075,-0.0541005406012075
253.065,0.05404811741138238,-0.05404811741138238
253.066,0.026429858187638877,-0.026429858187638877
253.067,0.028286059978430034,0.028286059978430034
253.068,0.10025516791092137,0.10025516791092137
253.069,0.1720933686750621,0.1720933686750621
253.07,0.22343407642627278,0.22343407642627278
253.071,0.23683549036605722,0.23683549036605722
253.072,0.20314821439244346,0.20314821439244346
253.073,0.12458239847122066,0.12458239847122066
253.074,0.014453099527382607,0.014453099527382607
253.075,0.10632378323953129,-0.10632378323953129
253.076,0.21484757390397446,-0.21484757390397446
253.077,0.29215804455857175,-0.29215804455857175
253.078,0.3276274123017924,-0.3276274123017924
253.079,0.3205644988852153,-0.3205644988852153
253.08,0.27877031849243405,-0.27877031849243405
253.081,0.2148231046738639,-0.2148231046738639
253.082,0.1415855592760712,-0.1415855592760712
253.083,0.0685747759511306,-0.0685747759511306
253.084,0.0003840970464221716,-0.0003840970464221716
253.085,0.0625169899092024,0.0625169899092024
253.086,0.12122104218844476,0.12122104218844476
253.087,0.17534251343478968,0.17534251343478968
253.088,0.22093140393545418,0.22093140393545418
253.089,0.25035657263575173,0.25035657263575173
253.09,0.2543597560987796,0.2543597560987796
253.091,0.22558203346949401,0.22558203346949401
253.092,0.16222416052978117,0.16222416052978117
253.093,0.07036581623713456,0.07036581623713456
253.094,0.03610750755803227,-0.03610750755803227
253.095,0.13818989191950015,-0.13818989191950015
253.096,0.21633709804440315,-0.21633709804440315
253.097,0.25553231427243706,-0.25553231427243706
253.098,0.24921762436080885,-0.24921762436080885
253.099,0.2008358505140181,-0.2008358505140181
253.1,0.12252621782508988,-0.12252621782508988
253.101,0.03146490607664376,-0.03146490607664376
253.102,0.05489941713811497,0.05489941713811497
253.103,0.123158898020161,0.123158898020161
253.104,0.16649584199059508,0.16649584199059508
253.105,0.18484483080342873,0.18484483080342873
253.106,0.18291808951941313,0.18291808951941313
253.107,0.1670807118973292,0.1670807118973292
253.108,0.14239785282059403,0.14239785282059403
253.109,0.11100184902120191,0.11100184902120191
253.11,0.07232538107128339,0.07232538107128339
253.111,0.024956271469363633,0.024956271469363633
253.112,0.030804757637280078,-0.030804757637280078
253.113,0.09090340955935439,-0.09090340955935439
253.114,0.14704311150419946,-0.14704311150419946
253.115,0.18818177482644183,-0.18818177482644183
253.116,0.2036565616213829,-0.2036565616213829
253.117,0.18689704598883328,-0.18689704598883328
253.118,0.13837329630674988,-0.13837329630674988
253.119,0.06660513497936593,-0.06660513497936593
253.12,0.013322453416521718,0.013322453416521718
253.121,0.08344957048616242,0.08344957048616242
253.122,0.1277780110014204,0.1277780110014204
253.123,0.13676818380532296,0.13676818380532296
253.124,0.11007911443519625,0.11007911443519625
253.125,0.05667660239047656,0.05667660239047656
253.126,0.007734943180351728,-0.007734943180351728
253.127,0.06516413880573158,-0.06516413880573158
253.128,0.10030840384989292,-0.10030840384989292
253.129,0.1045775610815659,-0.1045775610815659
253.13,0.07804298627990192,-0.07804298627990192
253.131,0.028878238737229722,-0.028878238737229722
253.132,0.029362078235914302,0.029362078235914302
253.133,0.08166363941351018,0.08166363941351018
253.134,0.11544988466418737,0.11544988466418737
253.135,0.12337664877179644,0.12337664877179644
253.136,0.10441102955358783,0.10441102955358783
253.137,0.06318145467100611,0.06318145467100611
253.138,0.008104286194013266,0.008104286194013266
253.139,0.05093588838156693,-0.05093588838156693
253.14,0.10461039609172984,-0.10461039609172984
253.141,0.14541885764902607,-0.14541885764902607
253.142,0.16814714719112278,-0.16814714719112278
253.143,0.1697819329651885,-0.1697819329651885
253.144,0.14929970744418053,-0.14929970744418053
253.145,0.10766846686897591,-0.10766846686897591
253.146,0.04815081758900808,-0.04815081758900808
253.147,0.023295945548090113,0.023295945548090113
253.148,0.09792356101048294,0.09792356101048294
253.149,0.1648024935706831,0.1648024935706831
253.15,0.21233039229811435,0.21233039229811435
253.151,0.23048471617407928,0.23048471617407928
253.152,0.21331281307910288,0.21331281307910288
253.153,0.16093846822222213,0.16093846822222213
253.154,0.08038473682000102,0.08038473682000102
253.155,0.015216953298852087,-0.015216953298852087
253.156,0.10901743121605467,-0.10901743121605467
253.157,0.18394797557692066,-0.18394797557692066
253.158,0.2264770711491635,-0.2264770711491635
253.159,0.229659319285073,-0.229659319285073
253.16,0.19467342794183473,-0.19467342794183473
253.161,0.13044253101733305,-0.13044253101733305
253.162,0.05144024751554832,-0.05144024751554832
253.163,0.025740446315701382,0.025740446315701382
253.164,0.08617479375798176,0.08617479375798176
253.165,0.11981298882364233,0.11981298882364233
253.166,0.12336103806589449,0.12336103806589449
253.167,0.1004638345679465,0.1004638345679465
253.168,0.060260729086666354,0.060260729086666354
253.169,0.014775498247164842,0.014775498247164842
253.17,0.024150567558160696,-0.024150567558160696
253.171,0.047618917452527,-0.047618917452527
253.172,0.05149578228286367,-0.05149578228286367
253.173,0.03693463092492699,-0.03693463092492699
253.174,0.009571803469113349,-0.009571803469113349
253.175,0.022313835268537918,0.022313835268537918
253.176,0.05015347589569008,0.05015347589569008
253.177,0.0673286973888294,0.0673286973888294
253.178,0.07072531476007549,0.07072531476007549
253.179,0.06121617353930864,0.06121617353930864
253.18,0.04297647750124001,0.04297647750124001
253.181,0.021856343083831664,0.021856343083831664
253.182,0.0033094169600524914,0.0033094169600524914
253.183,0.009474314610030787,-0.009474314610030787
253.184,0.016613896236453707,-0.016613896236453707
253.185,0.021365238047591162,-0.021365238047591162
253.186,0.028704913321176084,-0.028704913321176084
253.187,0.0430628083960799,-0.0430628083960799
253.188,0.06593724485576657,-0.06593724485576657
253.189,0.09426466880049689,-0.09426466880049689
253.19,0.1202765938526219,-0.1202765938526219
253.191,0.13316562190610715,-0.13316562190610715
253.192,0.12229981224886,-0.12229981224886
253.193,0.081143740153512,-0.081143740153512
253.194,0.010663237137145454,-0.010663237137145454
253.195,0.0790333052148613,0.0790333052148613
253.196,0.1696736789701241,0.1696736789701241
253.197,0.238547923920309,0.238547923920309
253.198,0.2642403683037038,0.2642403683037038
253.199,0.23288826895564974,0.23288826895564974
253.2,0.14313669820890862,0.14313669820890862
253.201,0.008150647815899248,0.008150647815899248
253.202,0.1462289104608886,-0.1462289104608886
253.203,0.2870210858248209,-0.2870210858248209
253.204,0.3820528894855314,-0.3820528894855314
253.205,0.4082310415310261,-0.4082310415310261
253.206,0.35782440458178955,-0.35782440458178955
253.207,0.24090364115233398,-0.24090364115233398
253.208,0.08312188829516132,-0.08312188829516132
253.209,0.08066075888500035,0.08066075888500035
253.21,0.2152004316154199,0.2152004316154199
253.211,0.29371058126843685,0.29371058126843685
253.212,0.30428234237942653,0.30428234237942653
253.213,0.25215773401422426,0.25215773401422426
253.214,0.1573463959364454,0.1573463959364454
253.215,0.04842485059750801,0.04842485059750801
253.216,0.04557551862856846,-0.04557551862856846
253.217,0.1028185083860289,-0.1028185083860289
253.218,0.11373591938121941,-0.11373591938121941
253.219,0.08228539987707384,-0.08228539987707384
253.22,0.023355443897994377,-0.023355443897994377
253.221,0.04258524942559827,0.04258524942559827
253.222,0.09577587934962617,0.09577587934962617
253.223,0.12246346280505982,0.12246346280505982
253.224,0.11778598916653604,0.11778598916653604
253.225,0.08570757305524901,0.08570757305524901
253.226,0.036450274348999834,0.036450274348999834
253.227,0.017403550613332985,-0.017403550613332985
253.228,0.06470120589461215,-0.06470120589461215
253.229,0.09821252160283955,-0.09821252160283955
253.23,0.11526164469460098,-0.11526164469460098
253.231,0.11668250133625191,-0.11668250133625191
253.232,0.10487626086747937,-0.10487626086747937
253.233,0.08198510942449977,-0.08198510942449977
253.234,0.04901638076683912,-0.04901638076683912
253.235,0.006252653471370495,-0.006252653471370495
253.236,0.045322617637435725,0.045322617637435725
253.237,0.10232768359792321,0.10232768359792321
253.238,0.15791730339825372,0.15791730339825372
253.239,0.20204457870106873,0.20204457870106873
253.24,0.2232495694716099,0.2232495694716099
253.241,0.2115814317493947,0.2115814317493947
253.242,0.1617900040529574,0.1617900040529574
253.243,0.0757456245607544,0.0757456245607544
253.244,0.0367745700496388,-0.0367745700496388
253.245,0.1593233427733759,-0.1593233427733759
253.246,0.27183010242255057,-0.27183010242255057
253.247,0.3547121519040567,-0.3547121519040567
253.248,0.3930085141603149,-0.3930085141603149
253.249,0.3795127528608252,-0.3795127528608252
253.25,0.3161855724615732,-0.3161855724615732
253.251,0.21360230695163085,-0.21360230695163085
253.252,0.08867956314084935,-0.08867956314084935
253.253,0.0387084854476023,0.0387084854476023
253.254,0.1494478583184684,0.1494478583184684
253.255,0.22849723135094346,0.22849723135094346
253.256,0.26723765653104303,0.26723765653104303
253.257,0.26454602232435476,0.26454602232435476
253.258,0.2265142081430933,0.2265142081430933
253.259,0.1649284243635285,0.1649284243635285
253.26,0.09477516178531431,0.09477516178531431
253.261,0.031171055889652743,0.031171055889652743
253.262,0.013767101723395347,-0.013767101723395347
253.263,0.03351009902326729,-0.03351009902326729
253.264,0.02855768283357174,-0.02855768283357174
253.265,0.006268847712826542,-0.006268847712826542
253.266,0.0210751430875169,0.0210751430875169
253.267,0.03968749446140629,0.03968749446140629
253.268,0.03841198409199409,0.03841198409199409
253.269,0.012471365537109369,0.012471365537109369
253.27,0.0343461975561038,-0.0343461975561038
253.271,0.08993702985028118,-0.08993702985028118
253.272,0.13680380686208793,-0.13680380686208793
253.273,0.15706490744733426,-0.15706490744733426
253.274,0.13821652278117003,-0.13821652278117003
253.275,0.07789969534457963,-0.07789969534457963
253.276,0.013963699430741272,0.013963699430741272
253.277,0.11663625616705064,0.11663625616705064
253.278,0.20354262086370434,0.20354262086370434
253.279,0.24953248941433337,0.24953248941433337
253.28,0.23836015872084992,0.23836015872084992
253.281,0.16807403799630638,0.16807403799630638
253.282,0.052504830968770566,0.052504830968770566
253.283,0.08184094634983696,-0.08184094634983696
253.284,0.2027640536978349,-0.2027640536978349
253.285,0.2812587791966761,-0.2812587791966761
253.286,0.2996522144711957,-0.2996522144711957
253.287,0.2564979443822101,-0.2564979443822101
253.288,0.16668779323470995,-0.16668779323470995
253.289,0.056727808732358165,-0.056727808732358165
253.29,0.04334740773268053,0.04334740773268053
253.291,0.10887831303162265,0.10887831303162265
253.292,0.12750854072756734,0.12750854072756734
253.293,0.10200662788638337,0.10200662788638337
253.294,0.04821113600190907,0.04821113600190907
253.295,0.011065008461319747,-0.011065008461319747
253.296,0.0540234063290711,-0.0540234063290711
253.297,0.06703946777832781,-0.06703946777832781
253.298,0.048621752327667966,-0.048621752327667966
253.299,0.00895426577492442,-0.00895426577492442
253.3,0.034644381356881526,0.034644381356881526
253.301,0.06460179694505919,0.06460179694505919
253.302,0.06979015564076851,0.06979015564076851
253.303,0.04963638888725663,0.04963638888725663
253.304,0.014202190269585024,0.014202190269585024
253.305,0.01974445676760006,-0.01974445676760006
253.306,0.03520230459403417,-0.03520230459403417
253.307,0.021581370216187445,-0.021581370216187445
253.308,0.020909848789533836,0.020909848789533836
253.309,0.08074999989517262,0.08074999989517262
253.31,0.13869020980322277,0.13869020980322277
253.311,0.1741995291900218,0.1741995291900218
253.312,0.17250998295769637,0.17250998295769637
253.313,0.12978753071160676,0.12978753071160676
253.314,0.05462182900001533,0.05462182900001533
253.315,0.034668618861483314,-0.034668618861483314
253.316,0.11594760588067621,-0.11594760588067621
253.317,0.17030669154561406,-0.17030669154561406
253.318,0.18780143044608288,-0.18780143044608288
253.319,0.1699461392573055,-0.1699461392573055
253.32,0.12822532179985424,-0.12822532179985424
253.321,0.07931245240756168,-0.07931245240756168
253.322,0.038841668599993606,-0.038841668599993606
253.323,0.016040854319514075,-0.016040854319514075
253.324,0.011146961565053792,-0.011146961565053792
253.325,0.016439334999107325,-0.016439334999107325
253.326,0.020351539066982283,-0.020351539066982283
253.327,0.012967933176438406,-0.012967933176438406
253.328,0.009294815450250127,0.009294815450250127
253.329,0.04169272254529166,0.04169272254529166
253.33,0.07267792679877494,0.07267792679877494
253.331,0.08840970331802622,0.08840970331802622
253.332,0.07854597671685726,0.07854597671685726
253.333,0.04106296413733057,0.04106296413733057
253.334,0.015849848207595163,-0.015849848207595163
253.335,0.07572513621641175,-0.07572513621641175
253.336,0.11907082433913219,-0.11907082433913219
253.337,0.13015763935459124,-0.13015763935459124
253.338,0.1029094923698467,-0.1029094923698467
253.339,0.04369265731703653,-0.04369265731703653
253.34,0.03015833270902535,0.03015833270902535
253.341,0.0957434249046869,0.0957434249046869
253.342,0.132173499165118,0.132173499165118
253.343,0.12773496952245966,0.12773496952245966
253.344,0.08412598690396633,0.08412598690396633
253.345,0.01620938008672268,0.01620938008672268
253.346,0.05274334154404625,-0.05274334154404625
253.347,0.09877665575321426,-0.09877665575321426
253.348,0.10535105356726226,-0.10535105356726226
253.349,0.06905910113220015,-0.06905910113220015
253.35,0.000984826821037177,-0.000984826821037177
253.351,0.07679427969686281,0.07679427969686281
253.352,0.1384129618007066,0.1384129618007066
253.353,0.16272238331861666,0.16272238331861666
253.354,0.140247784230066,0.140247784230066
253.355,0.07628848556036627,0.07628848556036627
253.356,0.010836910043007464,-0.010836910043007464
253.357,0.0957599870993241,-0.0957599870993241
253.358,0.15420859585914282,-0.15420859585914282
253.359,0.17060543802679473,-0.17060543802679473
253.36,0.14264121212753111,-0.14264121212753111
253.361,0.08141906532304599,-0.08141906532304599
253.362,0.00728480149613453,-0.00728480149613453
253.363,0.05711017110392036,0.05711017110392036
253.364,0.09410383398643929,0.09410383398643929
253.365,0.0962504469486487,0.0962504469486487
253.366,0.06785853182360424,0.06785853182360424
253.367,0.022540712106992045,0.022540712106992045
253.368,0.022158948240021403,-0.022158948240021403
253.369,0.0510569789443619,-0.0510569789443619
253.37,0.05633366630808767,-0.05633366630808767
253.371,0.039605341146761064,-0.039605341146761064
253.372,0.01053062120071202,-0.01053062120071202
253.373,0.017346768706331783,0.017346768706331783
253.374,0.03188533431865137,0.03188533431865137
253.375,0.02681831608317542,0.02681831608317542
253.376,0.0038544897913384,0.0038544897913384
253.377,0.028230544465854712,-0.028230544465854712
253.378,0.05704912644963456,-0.05704912644963456
253.379,0.07125312794553063,-0.07125312794553063
253.38,0.06466665797091797,-0.06466665797091797
253.381,0.03844314337573862,-0.03844314337573862
253.382,0.0005540294093007159,-0.0005540294093007159
253.383,0.0371089194262999,0.0371089194262999
253.384,0.06290575203618043,0.06290575203618043
253.385,0.06938499524385167,0.06938499524385167
253.386,0.05562888502161134,0.05562888502161134
253.387,0.02727456420680774,0.02727456420680774
253.388,0.005673911952080113,-0.005673911952080113
253.389,0.03236866857853227,-0.03236866857853227
253.39,0.04469482166743044,-0.04469482166743044
253.391,0.03968741349263005,-0.03968741349263005
253.392,0.0200635427247271,-0.0200635427247271
253.393,0.007147668287494691,0.007147668287494691
253.394,0.03323614449474532,0.03323614449474532
253.395,0.050685046172608716,0.050685046172608716
253.396,0.055289309539325204,0.055289309539325204
253.397,0.0468960791693529,0.0468960791693529
253.398,0.02871003736389821,0.02871003736389821
253.399,0.005634839046000817,0.005634839046000817
253.4,0.017583248423672537,-0.017583248423672537
253.401,0.03767489795005563,-0.03767489795005563
253.402,0.05321420034122515,-0.05321420034122515
253.403,0.06407149193978956,-0.06407149193978956
253.404,0.07038975807146286,-0.07038975807146286
253.405,0.0717000356952261,-0.0717000356952261
253.406,0.06668486101248716,-0.06668486101248716
253.407,0.05376262046056668,-0.05376262046056668
253.408,0.032249057736496,-0.032249057736496
253.409,0.003536882648497608,-0.003536882648497608
253.41,0.028339883686453016,0.028339883686453016
253.411,0.057182817656495244,0.057182817656495244
253.412,0.07615984793267883,0.07615984793267883
253.413,0.07994610313953165,0.07994610313953165
253.414,0.06671843494617491,0.06671843494617491
253.415,0.039214468090744026,0.039214468090744026
253.416,0.004344845875376535,0.004344845875376535
253.417,0.02865435725259946,-0.02865435725259946
253.418,0.051002663420354866,-0.051002663420354866
253.419,0.057185149375832744,-0.057185149375832744
253.42,0.04681919955079683,-0.04681919955079683
253.421,0.024887188672743754,-0.024887188672743754
253.422,0.000185042086074505,-0.000185042086074505
253.423,0.017549784667183266,0.017549784667183266
253.424,0.020898415155605088,0.020898415155605088
253.425,0.007321314646262067,0.007321314646262067
253.426,0.019849148032759834,-0.019849148032759834
253.427,0.052333613789910194,-0.052333613789910194
253.428,0.0794559231071853,-0.0794559231071853
253.429,0.09148492003690056,-0.09148492003690056
253.43,0.08267861888882455,-0.08267861888882455
253.431,0.05305623148110605,-0.05305623148110605
253.432,0.008363165889730517,-0.008363165889730517
253.433,0.04169877987206694,0.04169877987206694
253.434,0.08634099862207378,0.08634099862207378
253.435,0.11669454739206886,0.11669454739206886
253.436,0.12800087611131827,0.12800087611131827
253.437,0.12036451665636272,0.12036451665636272
253.438,0.09796704152483904,0.09796704152483904
253.439,0.06716415247432339,0.06716415247432339
253.44,0.034229098453759876,0.034229098453759876
253.441,0.0035560927677686927,0.0035560927677686927
253.442,0.02310401756167446,-0.02310401756167446
253.443,0.046233411409414726,-0.046233411409414726
253.444,0.06727174135150737,-0.06727174135150737
253.445,0.08709221427914693,-0.08709221427914693
253.446,0.10490281058322926,-0.10490281058322926
253.447,0.11804250880350375,-0.11804250880350375
253.448,0.12276537339074989,-0.12276537339074989
253.449,0.1157030492968697,-0.1157030492968697
253.45,0.09542125662146594,-0.09542125662146594
253.451,0.06343917470838145,-0.06343917470838145
253.452,0.024275585342409367,-0.024275585342409367
253.453,0.015554254361429987,0.015554254361429987
253.454,0.04927790245446917,0.04927790245446917
253.455,0.07175410659296655,0.07175410659296655
253.456,0.08086370451377922,0.08086370451377922
253.457,0.0779307473479256,0.0779307473479256
253.458,0.06704350746975729,0.06704350746975729
253.459,0.05352931162579089,0.05352931162579089
253.46,0.042125637608531497,0.042125637608531497
253.461,0.03548182052520854,0.03548182052520854
253.462,0.03349270165042317,0.03349270165042317
253.463,0.03365996403812921,0.03365996403812921
253.464,0.032310877663915605,0.032310877663915605
253.465,0.026208120826237913,0.026208120826237913
253.466,0.01396020807382925,0.01396020807382925
253.467,0.0032717180464845175,-0.0032717180464845175
253.468,0.022014868538834387,-0.022014868538834387
253.469,0.03757974885883264,-0.03757974885883264
253.47,0.04561931845517797,-0.04561931845517797
253.471,0.043609770470121045,-0.043609770470121045
253.472,0.03174840086908981,-0.03174840086908981
253.473,0.01297328049719293,-0.01297328049719293
253.474,0.007887845986464193,0.007887845986464193
253.475,0.025542284198314613,0.025542284198314613
253.476,0.03575430946336455,0.03575430946336455
253.477,0.0364747083693413,0.0364747083693413
253.478,0.02823839327664146,0.02823839327664146
253.479,0.013746078319919697,0.013746078319919697
253.48,0.0031830585030584446,-0.0031830585030584446
253.481,0.018905141403582904,-0.018905141403582904
253.482,0.031049821992782944,-0.031049821992782944
253.483,0.03907068076226372,-0.03907068076226372
253.484,0.04409739766561416,-0.04409739766561416
253.485,0.048181728472522556,-0.048181728472522556
253.486,0.05323124054450834,-0.05323124054450834
253.487,0.06002222770910526,-0.06002222770910526
253.488,0.06764884799323057,-0.06764884799323057
253.489,0.07361495986671807,-0.07361495986671807
253.49,0.07455972149367762,-0.07455972149367762
253.491,0.06739704187985762,-0.06739704187985762
253.492,0.05050772089589228,-0.05050772089589228
253.493,0.02459369030055958,-0.02459369030055958
253.494,0.007106047519393144,0.007106047519393144
253.495,0.03935557747353324,0.03935557747353324
253.496,0.0661141549576365,0.0661141549576365
253.497,0.08207812781505308,0.08207812781505308
253.498,0.08415304977103388,0.08415304977103388
253.499,0.07243349722069015,0.07243349722069015
253.5,0.05038361968413452,0.05038361968413452
253.501,0.02411728680505787,0.02411728680505787
253.502,0.0009199801342592018,0.0009199801342592018
253.503,0.012629296261105094,-0.012629296261105094
253.504,0.012448856778093709,-0.012448856778093709
253.505,0.0018316057627962845,0.0018316057627962845
253.506,0.026591580239286428,0.026591580239286428
253.507,0.05499587590026134,0.05499587590026134
253.508,0.07866482729855107,0.07866482729855107
253.509,0.08982507882502033,0.08982507882502033
253.51,0.08337833188609944,0.08337833188609944
253.511,0.05832675482505101,0.05832675482505101
253.512,0.01815271394015805,0.01815271394015805
253.513,0.029971148826469673,-0.029971148826469673
253.514,0.0769430657921506,-0.0769430657921506
253.515,0.11399187268091904,-0.11399187268091904
253.516,0.1348186344880734,-0.1348186344880734
253.517,0.13703574221608472,-0.13703574221608472
253.518,0.1225217940188239,-0.1225217940188239
253.519,0.09662567129350608,-0.09662567129350608
253.52,0.06648656553026244,-0.06648656553026244
253.521,0.03898688056109034,-0.03898688056109034
253.522,0.018945335058704438,-0.018945335058704438
253.523,0.008061537310577904,-0.008061537310577904
253.524,0.004873344523497747,-0.004873344523497747
253.525,0.005666128217067579,-0.005666128217067579
253.526,0.005982804987289092,-0.005982804987289092
253.527,0.0022173137356049644,-0.0022173137356049644
253.528,0.007218359968474974,0.007218359968474974
253.529,0.021491782305546048,0.021491782305546048
253.53,0.03777844132495489,0.03777844132495489
253.531,0.0523104850473044,0.0523104850473044
253.532,0.0616480026606796,0.0616480026606796
253.533,0.06373565009266713,0.06373565009266713
253.534,0.05842049977527197,0.05842049977527197
253.535,0.047322617774634645,0.047322617774634645
253.536,0.033183766729338426,0.033183766729338426
253.537,0.0189853486270275,0.0189853486270275
253.538,0.007167945501840078,0.007167945501840078
253.539,0.0008042315079122009,-0.0008042315079122009
253.54,0.004464742297165314,-0.004464742297165314
253.541,0.004064899757857288,-0.004064899757857288
253.542,0.0002176260865196511,-0.0002176260865196511
253.543,0.006312282103754008,0.006312282103754008
253.544,0.014562455685072972,0.014562455685072972
253.545,0.02313341467247354,0.02313341467247354
253.546,0.029963541870958732,0.029963541870958732
253.547,0.03237547351445058,0.03237547351445058
253.548,0.027566152637380492,0.027566152637380492
253.549,0.013517327336532547,0.013517327336532547
253.55,0.0099279706738572,-0.0099279706738572
253.551,0.04024395970582206,-0.04024395970582206
253.552,0.07209242882339983,-0.07209242882339983
253.553,0.09815267235656133,-0.09815267235656133
253.554,0.11086315942077274,-0.11086315942077274
253.555,0.10466746223948942,-0.10466746223948942
253.556,0.07808777381746279,-0.07808777381746279
253.557,0.03488732132313188,-0.03488732132313188
253.558,0.016219452058084505,0.016219452058084505
253.559,0.06343141553480436,0.06343141553480436
253.56,0.0949068793668868,0.0949068793668868
253.561,0.10215783283427182,0.10215783283427182
253.562,0.08275542523615664,0.08275542523615664
253.563,0.04143584130472555,0.04143584130472555
253.564,0.010864143252048652,-0.010864143252048652
253.565,0.059883617134870004,-0.059883617134870004
253.566,0.09204834033017462,-0.09204834033017462
253.567,0.09843588086371524,-0.09843588086371524
253.568,0.07747471299240771,-0.07747471299240771
253.569,0.03550857791530604,-0.03550857791530604
253.57,0.014999075508828064,0.014999075508828064
253.571,0.05911155545386082,0.05911155545386082
253.572,0.0838197255687223,0.0838197255687223
253.573,0.08185403793438994,0.08185403793438994
253.574,0.053744311901617214,0.053744311901617214
253.575,0.007514897449769853,0.007514897449769853
253.576,0.04385226685890853,-0.04385226685890853
253.577,0.08635791645300672,-0.08635791645300672
253.578,0.10907856253532067,-0.10907856253532067
253.579,0.10714877798064137,-0.10714877798064137
253.58,0.08276180057146143,-0.08276180057146143
253.581,0.04397927327358042,-0.04397927327358042
253.582,0.0018476206705907439,-0.0018476206705907439
253.583,0.03316380083334325,0.03316380083334325
253.584,0.054224037551030335,0.054224037551030335
253.585,0.05975463427553773,0.05975463427553773
253.586,0.05318442318412764,0.05318442318412764
253.587,0.04107788814133029,0.04107788814133029
253.588,0.030402120774511765,0.030402120774511765
253.589,0.02594035267618522,0.02594035267618522
253.59,0.028743591612584662,0.028743591612584662
253.591,0.0360927074870363,0.0360927074870363
253.592,0.042881092140491184,0.042881092140491184
253.593,0.04382614753725633,0.04382614753725633
253.594,0.0356505941004186,0.0356505941004186
253.595,0.01842668422885274,0.01842668422885274
253.596,0.004383798352431967,-0.004383798352431967
253.597,0.027166252123676293,-0.027166252123676293
253.598,0.04417315094713947,-0.04417315094713947
253.599,0.05156294681893403,-0.05156294681893403
253.6,0.04870960166649696,-0.04870960166649696
253.601,0.03832158531798946,-0.03832158531798946
253.602,0.02535547665276594,-0.02535547665276594
253.603,0.015148391814425288,-0.015148391814425288
253.604,0.01146662212144256,-0.01146662212144256
253.605,0.015180959025699381,-0.015180959025699381
253.606,0.024034716533637757,-0.024034716533637757
253.607,0.03356384366654275,-0.03356384366654275
253.608,0.03881092776140227,-0.03881092776140227
253.609,0.03619709733968968,-0.03619709733968968
253.61,0.024873867929108284,-0.024873867929108284
253.611,0.00707918300293886,-0.00707918300293886
253.612,0.012611322159745253,0.012611322159745253
253.613,0.028851569527284848,0.028851569527284848
253.614,0.0373426579403906,0.0373426579403906
253.615,0.03626061841438544,0.03626061841438544
253.616,0.026809872738391638,0.026809872738391638
253.617,0.012737961775105777,0.012737961775105777
253.618,0.0009880981023774327,-0.0009880981023774327
253.619,0.009863911610703435,-0.009863911610703435
253.62,0.011307714722133433,-0.011307714722133433
253.621,0.005421788903540503,-0.005421788903540503
253.622,0.005160434463741925,0.005160434463741925
253.623,0.016239933796059702,0.016239933796059702
253.624,0.02346823199189818,0.02346823199189818
253.625,0.02373369452384022,0.02373369452384022
253.626,0.01608967722200716,0.01608967722200716
253.627,0.001984270559957091,0.001984270559957091
253.628,0.015204056381720399,-0.015204056381720399
253.629,0.03111081542704197,-0.03111081542704197
253.63,0.04148868606677181,-0.04148868606677181
253.631,0.04316525747411415,-0.04316525747411415
253.632,0.03466323770627944,-0.03466323770627944
253.633,0.01643668824726552,-0.01643668824726552
253.634,0.009209921216864592,0.009209921216864592
253.635,0.03841343227960525,0.03841343227960525
253.636,0.06618229105395224,0.06618229105395224
253.637,0.08696294986321407,0.08696294986321407
253.638,0.09538846428160563,0.09538846428160563
253.639,0.08723632887046051,0.08723632887046051
253.64,0.060524666512290715,0.060524666512290715
253.641,0.01653263236815894,0.01653263236815894
253.642,0.03958978591555673,-0.03958978591555673
253.643,0.09898076715686288,-0.09898076715686288
253.644,0.1502311056988047,-0.1502311056988047
253.645,0.18153021209876696,-0.18153021209876696
253.646,0.18343677137788372,-0.18343677137788372
253.647,0.15162187440524766,-0.15162187440524766
253.648,0.08879183848314043,-0.08879183848314043
253.649,0.005091905229291149,-0.005091905229291149
253.65,0.08337156289087044,0.08337156289087044
253.651,0.15774984583492868,0.15774984583492868
253.652,0.20074403200565416,0.20074403200565416
253.653,0.20091805170037125,0.20091805170037125
253.654,0.15587256096247804,0.15587256096247804
253.655,0.07334672996900471,0.07334672996900471
253.656,0.030168834373837994,-0.030168834373837994
253.657,0.13305854947440066,-0.13305854947440066
253.658,0.21357422406790139,-0.21357422406790139
253.659,0.25492459679487434,-0.25492459679487434
253.66,0.24914853769958667,-0.24914853769958667
253.661,0.19878189902450594,-0.19878189902450594
253.662,0.1159270819596514,-0.1159270819596514
253.663,0.019034338715499866,-0.019034338715499866
253.664,0.0716979637851447,0.0716979637851447
253.665,0.13906876758785258,0.13906876758785258
253.666,0.17255584072645713,0.17255584072645713
253.667,0.1700800786623382,0.1700800786623382
253.668,0.13756694732508046,0.13756694732508046
253.669,0.08662402115607692,0.08662402115607692
253.67,0.03112091446389642,0.03112091446389642
253.671,0.016333533794184674,-0.016333533794184674
253.672,0.047108208642014926,-0.047108208642014926
253.673,0.05787957245364006,-0.05787957245364006
253.674,0.050442188061862514,-0.050442188061862514
253.675,0.030295154334830876,-0.030295154334830876
253.676,0.004584770026836438,-0.004584770026836438
253.677,0.019937684852004756,0.019937684852004756
253.678,0.03840608075564478,0.03840608075564478
253.679,0.04849696809178461,0.04849696809178461
253.68,0.05026703749291728,0.05026703749291728
253.681,0.04541764786239999,0.04541764786239999
253.682,0.03634729555082883,0.03634729555082883
253.683,0.025331398884147482,0.025331398884147482
253.684,0.014043506954183771,0.014043506954183771
253.685,0.0034633192131690027,0.0034633192131690027
253.686,0.005930406395942889,-0.005930406395942889
253.687,0.013862935960433531,-0.013862935960433531
253.688,0.020038451370590682,-0.020038451370590682
253.689,0.024089935260960815,-0.024089935260960815
253.69,0.025705248481197818,-0.025705248481197818
253.691,0.024842777864842458,-0.024842777864842458
253.692,0.021909002906382757,-0.021909002906382757
253.693,0.017787529520244538,-0.017787529520244538
253.694,0.013673170413050384,-0.013673170413050384
253.695,0.01074778064863402,-0.01074778064863402
253.696,0.009804105356181925,-0.009804105356181925
253.697,0.010954070988155928,-0.010954070988155928
253.698,0.01353811581516895,-0.01353811581516895
253.699,0.016289283312582836,-0.016289283312582836
253.7,0.017721053454767932,-0.017721053454767932
253.701,0.01662909669940671,-0.01662909669940671
253.702,0.012549962156589212,-0.012549962156589212
253.703,0.006020126950775362,-0.006020126950775362
253.704,0.0014711833352734072,0.0014711833352734072
253.705,0.007854829152379006,0.007854829152379006
253.706,0.011098806672921624,0.011098806672921624
253.707,0.009902147270496764,0.009902147270496764
253.708,0.004253861253660229,0.004253861253660229
253.709,0.004340506313433967,-0.004340506313433967
253.71,0.01308633356140354,-0.01308633356140354
253.711,0.0185803178078513,-0.0185803178078513
253.712,0.017803143192003712,-0.017803143192003712
253.713,0.009166539880704039,-0.009166539880704039
253.714,0.006699430636829096,0.006699430636829096
253.715,0.026702184510424942,0.026702184510424942
253.716,0.045747080757097214,0.045747080757097214
253.717,0.05787502529133404,0.05787502529133404
253.718,0.05784141327597303,0.05784141327597303
253.719,0.04273449841934629,0.04273449841934629
253.72,0.013164469914022536,0.013164469914022536
253.721,0.026379047241126274,-0.026379047241126274
253.722,0.06820714050461707,-0.06820714050461707
253.723,0.1030742805411321,-0.1030742805411321
253.724,0.12241911155291141,-0.12241911155291141
253.725,0.12062962539560862,-0.12062962539560862
253.726,0.0967015760609663,-0.0967015760609663
253.727,0.05478461443525284,-0.05478461443525284
253.728,0.0033956486981210343,-0.0033956486981210343
253.729,0.046552106300385754,0.046552106300385754
253.73,0.08441014114964807,0.08441014114964807
253.731,0.10243543407041766,0.10243543407041766
253.732,0.09768623046636993,0.09768623046636993
253.733,0.07264725185781051,0.07264725185781051
253.734,0.034417382375189653,0.034417382375189653
253.735,0.007295005514360908,-0.007295005514360908
253.736,0.04278355082696661,-0.04278355082696661
253.737,0.06481284789708253,-0.06481284789708253
253.738,0.07025831076133604,-0.07025831076133604
253.739,0.060498646219136476,-0.060498646219136476
253.74,0.04052973208758326,-0.04052973208758326
253.741,0.017151173700023614,-0.017151173700023614
253.742,0.003165463620722564,0.003165463620722564
253.743,0.016062141568283783,0.016062141568283783
253.744,0.020225211998916137,0.020225211998916137
253.745,0.017261652186651766,0.017261652186651766
253.746,0.010673324070968215,0.010673324070968215
253.747,0.004360619943355015,0.004360619943355015
253.748,0.0012031395708334003,0.0012031395708334003
253.749,0.0021893000677759566,0.0021893000677759566
253.75,0.006336300224424551,0.006336300224424551
253.751,0.011345356862090261,0.011345356862090261
253.752,0.014681763979915718,0.014681763979915718
253.753,0.0146423231015258,0.0146423231015258
253.754,0.011011341789021856,0.011011341789021856
253.755,0.005086918704139798,0.005086918704139798
253.756,0.000891997886722895,-0.000891997886722895
253.757,0.004664917251515965,-0.004664917251515965
253.758,0.004846886462144595,-0.004846886462144595
253.759,0.001462706427710847,-0.001462706427710847
253.76,0.004068668584440438,0.004068668584440438
253.761,0.009470988277223258,0.009470988277223258
253.762,0.012446897195340645,0.012446897195340645
253.763,0.011491911281243716,0.011491911281243716
253.764,0.006391376593142262,0.006391376593142262
253.765,0.001758385017980757,-0.001758385017980757
253.766,0.010976423359486454,-0.010976423359486454
253.767,0.019079433136797275,-0.019079433136797275
253.768,0.024350840268956397,-0.024350840268956397
253.769,0.025960617652923124,-0.025960617652923124
253.77,0.024022812825200135,-0.024022812825200135
253.771,0.019334880085856487,-0.019334880085856487
253.772,0.012966653137712947,-0.012966653137712947
253.773,0.005906555870755059,-0.005906555870755059
253.774,0.0010845326818420542,0.0010845326818420542
253.775,0.007385802104038719,0.007385802104038719
253.776,0.012301903519641666,0.012301903519641666
253.777,0.014904872252300638,0.014904872252300638
253.778,0.014098812762039614,0.014098812762039614
253.779,0.008964359187146442,0.008964359187146442
253.78,0.0007153783250025691,-0.0007153783250025691
253.781,0.013976284832133867,-0.013976284832133867
253.782,0.028510804190950534,-0.028510804190950534
253.783,0.04100731269122304,-0.04100731269122304
253.784,0.047990832289462215,-0.047990832289462215
253.785,0.04694267555204312,-0.04694267555204312
253.786,0.03731044619772306,-0.03731044619772306
253.787,0.02098885950477758,-0.02098885950477758
253.788,0.001989046074816536,-0.001989046074816536
253.789,0.01471275253081994,0.01471275253081994
253.79,0.024838050581334592,0.024838050581334592
253.791,0.026428458771677654,0.026428458771677654
253.792,0.020811882254077707,0.020811882254077707
253.793,0.012459478594891493,0.012459478594891493
253.794,0.007633838154565975,0.007633838154565975
253.795,0.012162485276275836,0.012162485276275836
253.796,0.029032464057344054,0.029032464057344054
253.797,0.05665147081714084,0.05665147081714084
253.798,0.08848352170221152,0.08848352170221152
253.799,0.11436478746768652,0.11436478746768652
253.8,0.12325706795920666,0.12325706795920666
253.801,0.10668238624444037,0.10668238624444037
253.802,0.061783148530402565,0.061783148530402565
253.803,0.007013983831063664,-0.007013983831063664
253.804,0.08837604460257087,-0.08837604460257087
253.805,0.16651714221940794,-0.16651714221940794
253.806,0.22510566015933153,-0.22510566015933153
253.807,0.25152019809274395,-0.25152019809274395
253.808,0.24020251356739786,-0.24020251356739786
253.809,0.194103342857178,-0.194103342857178
253.81,0.12378663555021019,-0.12378663555021019
253.811,0.044469354607495015,-0.044469354607495015
253.812,0.028101268276783387,0.028101268276783387
253.813,0.0816945143660952,0.0816945143660952
253.814,0.11038614186076279,0.11038614186076279
253.815,0.11533832721892012,0.11533832721892012
253.816,0.10346835609749117,0.10346835609749117
253.817,0.08456425874893769,0.08456425874893769
253.818,0.06785819255219039,0.06785819255219039
253.819,0.059174389097997215,0.059174389097997215
253.82,0.05950777828773779,0.05950777828773779
253.821,0.0653648507507325,0.0653648507507325
253.822,0.07059698926021807,0.07059698926021807
253.823,0.06898307619329458,0.06898307619329458
253.824,0.05662444538123257,0.05662444538123257
253.825,0.03335024017550681,0.03335024017550681
253.826,0.002728933997541816,0.002728933997541816
253.827,0.02921071572103806,-0.02921071572103806
253.828,0.05601094178910848,-0.05601094178910848
253.829,0.07281384279360203,-0.07281384279360203
253.83,0.0776964291158766,-0.0776964291158766
253.831,0.07192122022077829,-0.07192122022077829
253.832,0.05912630493348103,-0.05912630493348103
253.833,0.04385019388705591,-0.04385019388705591
253.834,0.029983975897421078,-0.029983975897421078
253.835,0.019707251834803485,-0.019707251834803485
253.836,0.013225900138419178,-0.013225900138419178
253.837,0.009293215837275604,-0.009293215837275604
253.838,0.006196122813640681,-0.006196122813640681
253.839,0.002737757482741965,-0.002737757482741965
253.84,0.001204346140657897,0.001204346140657897
253.841,0.004749818907339831,0.004749818907339831
253.842,0.006634485106215893,0.006634485106215893
253.843,0.006054831319614262,0.006054831319614262
253.844,0.0033209237893507826,0.0033209237893507826
253.845,1.3389428739296605e-05,-1.3389428739296605e-05
253.846,0.0016453779061470497,-0.0016453779061470497
253.847,0.0005304649245150284,0.0005304649245150284
253.848,0.007408427533537765,0.007408427533537765
253.849,0.01802802938545356,0.01802802938545356
253.85,0.029613939909386433,0.029613939909386433
253.851,0.03835296285677092,0.03835296285677092
253.852,0.040668528435006124,0.040668528435006124
253.853,0.03454173265353955,0.03454173265353955
253.854,0.020383716885447267,0.020383716885447267
253.855,0.0011088389580755642,0.0011088389580755642
253.856,0.018659295499076856,-0.018659295499076856
253.857,0.034000914393481296,-0.034000914393481296
253.858,0.04125348607287216,-0.04125348607287216
253.859,0.039168377372123864,-0.039168377372123864
253.86,0.02927061755934013,-0.02927061755934013
253.861,0.015303364672414221,-0.015303364672414221
253.862,0.0019609331549023112,-0.0019609331549023112
253.863,0.006641500926330313,0.006641500926330313
253.864,0.00823513226162631,0.00823513226162631
253.865,0.0029877322199123313,0.0029877322199123313
253.866,0.006740888731400108,-0.006740888731400108
253.867,0.017335119694426804,-0.017335119694426804
253.868,0.025176080456238537,-0.025176080456238537
253.869,0.02775416990376156,-0.02775416990376156
253.87,0.02427822025325943,-0.02427822025325943
253.871,0.0156389543892268,-0.0156389543892268
253.872,0.003840365606340157,-0.003840365606340157
253.873,0.008799708955045782,0.008799708955045782
253.874,0.020330423988711654,0.020330423988711654
253.875,0.02948350184421411,0.02948350184421411
253.876,0.035578365876566265,0.035578365876566265
253.877,0.0381788911877019,0.0381788911877019
253.878,0.03678240534561916,0.03678240534561916
253.879,0.03079606371434429,0.03079606371434429
253.88,0.019894484398762957,0.019894484398762957
253.881,0.0046261036744530415,0.0046261036744530415
253.882,0.013051182345671042,-0.013051182345671042
253.883,0.029676874551545884,-0.029676874551545884
253.884,0.040883700966049874,-0.040883700966049874
253.885,0.042657689736917526,-0.042657689736917526
253.886,0.032920484789015214,-0.032920484789015214
253.887,0.012860789349239177,-0.012860789349239177
253.888,0.012590464908271537,0.012590464908271537
253.889,0.035535331857762475,0.035535331857762475
253.89,0.04712205882553744,0.04712205882553744
253.891,0.04031409894432447,0.04031409894432447
253.892,0.012571877005140397,0.012571877005140397
253.893,0.03249752704312847,-0.03249752704312847
253.894,0.0852413821259359,-0.0852413821259359
253.895,0.1320226927985112,-0.1320226927985112
253.896,0.1588125880456116,-0.1588125880456116
253.897,0.1553276196718647,-0.1553276196718647
253.898,0.11845186571042887,-0.11845186571042887
253.899,0.05380831246397755,-0.05380831246397755
253.9,0.0251474800681446,0.0251474800681446
253.901,0.10039318300068878,0.10039318300068878
253.902,0.1541000404943873,0.1541000404943873
253.903,0.17352074338182066,0.17352074338182066
253.904,0.15455348740035757,0.15455348740035757
253.905,0.10290339175206875,0.10290339175206875
253.906,0.03248055261012839,0.03248055261012839
253.907,0.03848923593309006,-0.03848923593309006
253.908,0.09247742062621356,-0.09247742062621356
253.909,0.11730639286020694,-0.11730639286020694
253.91,0.10910791397423192,-0.10910791397423192
253.911,0.07280738394225539,-0.07280738394225539
253.912,0.020133856256821514,-0.020133856256821514
253.913,0.03410022338623686,0.03410022338623686
253.914,0.07623296540973112,0.07623296540973112
253.915,0.09722144215752215,0.09722144215752215
253.916,0.09440973710261091,0.09440973710261091
253.917,0.0712754413309522,0.0712754413309522
253.918,0.035496050172456384,0.035496050172456384
253.919,0.0038350080001030573,-0.0038350080001030573
253.92,0.03884866564905831,-0.03884866564905831
253.921,0.06459029662069771,-0.06459029662069771
253.922,0.07939559504936577,-0.07939559504936577
253.923,0.08410593363796481,-0.08410593363796481
253.924,0.08067597453059039,-0.08067597453059039
253.925,0.07087042644591601,-0.07087042644591601
253.926,0.05560378934991872,-0.05560378934991872
253.927,0.03512509081756665,-0.03512509081756665
253.928,0.009842946538556108,-0.009842946538556108
253.929,0.0187077589530098,0.0187077589530098
253.93,0.04732168457354402,0.04732168457354402
253.931,0.07138110832522493,0.07138110832522493
253.932,0.08594155945659887,0.08594155945659887
253.933,0.08729296396195285,0.08729296396195285
253.934,0.07440024857432248,0.07440024857432248
253.935,0.049620177640613106,0.049620177640613106
253.936,0.018330944104195224,0.018330944104195224
253.937,0.012490127278310226,-0.012490127278310226
253.938,0.03629978893479713,-0.03629978893479713
253.939,0.048937944833324254,-0.048937944833324254
253.94,0.049798190747156856,-0.049798190747156856
253.941,0.04178827573766075,-0.04178827573766075
253.942,0.030081450674306898,-0.030081450674306898
253.943,0.02010292195291441,-0.02010292195291441
253.944,0.015483546236082946,-0.015483546236082946
253.945,0.01673478386086691,-0.01673478386086691
253.946,0.021141798000308243,-0.021141798000308243
253.947,0.02392631039147508,-0.02392631039147508
253.948,0.020259466814387395,-0.020259466814387395
253.949,0.007381326575941816,-0.007381326575941816
253.95,0.013971079352880666,0.013971079352880666
253.951,0.03938742573617593,0.03938742573617593
253.952,0.061973349765199526,0.061973349765199526
253.953,0.07452473248325275,0.07452473248325275
253.954,0.07194339312902609,0.07194339312902609
253.955,0.05305118214597959,0.05305118214597959
253.956,0.02116073466700996,0.02116073466700996
253.957,0.016808625327610627,-0.016808625327610627
253.958,0.05237637820396446,-0.05237637820396446
253.959,0.07801504213910349,-0.07801504213910349
253.96,0.08928831622433175,-0.08928831622433175
253.961,0.08591444508326707,-0.08591444508326707
253.962,0.0714442264963262,-0.0714442264963262
253.963,0.0517308095394402,-0.0517308095394402
253.964,0.03278003878919078,-0.03278003878919078
253.965,0.018760532107874317,-0.018760532107874317
253.966,0.010859540439833726,-0.010859540439833726
253.967,0.007335297797860796,-0.007335297797860796
253.968,0.004667120069513309,-0.004667120069513309
253.969,0.000692605531833923,0.000692605531833923
253.97,0.01066188840434834,0.01066188840434834
253.971,0.02460300370510482,0.02460300370510482
253.972,0.03946556953583236,0.03946556953583236
253.973,0.050923190449470246,0.050923190449470246
253.974,0.05505169969551993,0.05505169969551993
253.975,0.049897791643727096,0.049897791643727096
253.976,0.03633524736557758,0.03633524736557758
253.977,0.01787947094315423,0.01787947094315423
253.978,0.0004758719759083707,-0.0004758719759083707
253.979,0.013971632735552575,-0.013971632735552575
253.98,0.01971542844264773,-0.01971542844264773
253.981,0.017637278408585977,-0.017637278408585977
253.982,0.010425621474600355,-0.010425621474600355
253.983,0.0024762608920454454,-0.0024762608920454454
253.984,0.0017552588377574008,0.0017552588377574008
253.985,0.0006021725253599897,-0.0006021725253599897
253.986,0.009782035152055557,-0.009782035152055557
253.987,0.023280641123016088,-0.023280641123016088
253.988,0.03672403572815375,-0.03672403572815375
253.989,0.04537009761375643,-0.04537009761375643
253.99,0.045701495611517484,-0.045701495611517484
253.991,0.036556083676626994,-0.036556083676626994
253.992,0.019431833685671585,-0.019431833685671585
253.993,0.0020844896014335923,0.0020844896014335923
253.994,0.02350226304552061,0.02350226304552061
253.995,0.040764270457573026,0.040764270457573026
253.996,0.051259707461110304,0.051259707461110304
253.997,0.05420077854996852,0.05420077854996852
253.998,0.050322862158349135,0.050322862158349135
253.999,0.04113701966759553,0.04113701966759553
254.0,0.028123042593625636,0.028123042593625636
254.001,0.012241288719727628,0.012241288719727628
254.002,0.00602897815631398,-0.00602897815631398
254.003,0.026174930654394468,-0.026174930654394468
254.004,0.04694632474738414,-0.04694632474738414
254.005,0.06586507968017008,-0.06586507968017008
254.006,0.07929234633149829,-0.07929234633149829
254.007,0.08318117742573039,-0.08318117742573039
254.008,0.07435043747248016,-0.07435043747248016
254.009,0.051861372291785446,-0.051861372291785446
254.01,0.017967262400174877,-0.017967262400174877
254.011,0.021806913581702503,0.021806913581702503
254.012,0.05963273000760494,0.05963273000760494
254.013,0.08721591605035073,0.08721591605035073
254.014,0.09800232633827721,0.09800232633827721
254.015,0.08908137919590997,0.08908137919590997
254.016,0.06216674763150998,0.06216674763150998
254.017,0.023297426920779962,0.023297426920779962
254.018,0.01870439765190479,-0.01870439765190479
254.019,0.054588433732650654,-0.054588433732650654
254.02,0.07715124077474944,-0.07715124077474944
254.021,0.08309439537692553,-0.08309439537692553
254.022,0.07371966952148012,-0.07371966952148012
254.023,0.054276584370870795,-0.054276584370870795
254.024,0.03219184677752718,-0.03219184677752718
254.025,0.014743677800531985,-0.014743677800531985
254.026,0.0068935626703848785,-0.0068935626703848785
254.027,0.009913083198801687,-0.009913083198801687
254.028,0.021177367772390876,-0.021177367772390876
254.029,0.035131545408414344,-0.035131545408414344
254.03,0.04509047964251056,-0.04509047964251056
254.031,0.04530913036102269,-0.04530913036102269
254.032,0.03271903605449,-0.03271903605449
254.033,0.007862698475158747,-0.007862698475158747
254.034,0.025184975121198994,0.025184975121198994
254.035,0.059828019843468416,0.059828019843468416
254.036,0.08857559240332602,0.08857559240332602
254.037,0.10483958220165479,0.10483958220165479
254.038,0.10446449775367461,0.10446449775367461
254.039,0.08666160135161505,0.08666160135161505
254.04,0.054189102239179165,0.054189102239179165
254.041,0.012795598357832949,0.012795598357832949
254.042,0.029915632296465544,-0.029915632296465544
254.043,0.06595750145617185,-0.06595750145617185
254.044,0.08848802136879275,-0.08848802136879275
254.045,0.09312874301769714,-0.09312874301769714
254.046,0.07884295072499425,-0.07884295072499425
254.047,0.04820756780480828,-0.04820756780480828
254.048,0.007002095832972177,-0.007002095832972177
254.049,0.03684741973925876,0.03684741973925876
254.05,0.07480134332317467,0.07480134332317467
254.051,0.09942699946209199,0.09942699946209199
254.052,0.10594027321375687,0.10594027321375687
254.053,0.09320344954898174,0.09320344954898174
254.054,0.06391411537026692,0.06391411537026692
254.055,0.02390736653019898,0.02390736653019898
254.056,0.019274192754526354,-0.019274192754526354
254.057,0.058177787022979155,-0.058177787022979155
254.058,0.08712168484785665,-0.08712168484785665
254.059,0.10329799174112753,-0.10329799174112753
254.06,0.10700108385834306,-0.10700108385834306
254.061,0.1009532355428665,-0.1009532355428665
254.062,0.08898470089635768,-0.08898470089635768
254.063,0.07453392599030151,-0.07453392599030151
254.064,0.059489840503408,-0.059489840503408
254.065,0.04377645311891609,-0.04377645311891609
254.066,0.02581584886918098,-0.02581584886918098
254.067,0.0036869910068252354,-0.0036869910068252354
254.068,0.02346430211087669,0.02346430211087669
254.069,0.054318514969446285,0.054318514969446285
254.07,0.08504544861222207,0.08504544861222207
254.071,0.10994315725463921,0.10994315725463921
254.072,0.1229124465900635,0.1229124465900635
254.073,0.11931552088186592,0.11931552088186592
254.074,0.0976041131712948,0.0976041131712948
254.075,0.06014984720357486,0.06014984720357486
254.076,0.012956914570469324,0.012956914570469324
254.077,0.035697950075596396,-0.035697950075596396
254.078,0.07729667033583643,-0.07729667033583643
254.079,0.10515750683798297,-0.10515750683798297
254.08,0.1159238028410019,-0.1159238028410019
254.081,0.1100342198705393,-0.1100342198705393
254.082,0.09109410546538199,-0.09109410546538199
254.083,0.0644357174230119,-0.0644357174230119
254.084,0.03541100712898215,-0.03541100712898215
254.085,0.008014817037772959,-0.008014817037772959
254.086,0.015726868964814456,0.015726868964814456
254.087,0.035485094666548145,0.035485094666548145
254.088,0.05170223280949959,0.05170223280949959
254.089,0.06449026601523289,0.06449026601523289
254.09,0.07288470780483292,0.07288470780483292
254.091,0.07482487128716087,0.07482487128716087
254.092,0.0679172726539079,0.0679172726539079
254.093,0.0506937280116011,0.0506937280116011
254.094,0.02383535695440453,0.02383535695440453
254.095,0.00920268962121873,-0.00920268962121873
254.096,0.042540174330441105,-0.042540174330441105
254.097,0.06921438290141746,-0.06921438290141746
254.098,0.08314722686106202,-0.08314722686106202
254.099,0.08109125942539552,-0.08109125942539552
254.1,0.06385659706400504,-0.06385659706400504
254.101,0.03632427199851307,-0.03632427199851307
254.102,0.006149078314361844,-0.006149078314361844
254.103,0.018489654847663184,0.018489654847663184
254.104,0.03138042857487311,0.03138042857487311
254.105,0.030190999629180704,0.030190999629180704
254.106,0.017144776344356183,0.017144776344356183
254.107,0.001787990140631468,-0.001787990140631468
254.108,0.018932804211115317,-0.018932804211115317
254.109,0.027510876958423247,-0.027510876958423247
254.11,0.023922127203432897,-0.023922127203432897
254.111,0.008938962745469792,-0.008938962745469792
254.112,0.012591645472786794,0.012591645472786794
254.113,0.033429630694301604,0.033429630694301604
254.114,0.04642461888420235,0.04642461888420235
254.115,0.04694585320498734,0.04694585320498734
254.116,0.034430013786567626,0.034430013786567626
254.117,0.012529927415854791,0.012529927415854791
254.118,0.012164018128187126,-0.012164018128187126
254.119,0.03236496586892834,-0.03236496586892834
254.12,0.042504105394948866,-0.042504105394948866
254.121,0.0404858418673717,-0.0404858418673717
254.122,0.02819940806110588,-0.02819940806110588
254.123,0.010651509683674232,-0.010651509683674232
254.124,0.005928349182754866,0.005928349182754866
254.125,0.01630638911440596,0.01630638911440596
254.126,0.017989728310332298,0.017989728310332298
254.127,0.01189418417745558,0.01189418417745558
254.128,0.0017362597530159452,0.0017362597530159452
254.129,0.007580963831834486,-0.007580963831834486
254.13,0.011957811891058268,-0.011957811891058268
254.131,0.009709830230819172,-0.009709830230819172
254.132,0.00220175905998532,-0.00220175905998532
254.133,0.006723429621158683,0.006723429621158683
254.134,0.012295507044655762,0.012295507044655762
254.135,0.010757898579289549,0.010757898579289549
254.136,0.0009633240236610607,0.0009633240236610607
254.137,0.01498433003180455,-0.01498433003180455
254.138,0.03229961181374219,-0.03229961181374219
254.139,0.04510864711243623,-0.04510864711243623
254.14,0.048500534042590804,-0.048500534042590804
254.141,0.040300086829374915,-0.040300086829374915
254.142,0.021921116423949893,-0.021921116423949893
254.143,0.0020123675276371156,0.0020123675276371156
254.144,0.025148994822306037,0.025148994822306037
254.145,0.04147553836784734,0.04147553836784734
254.146,0.04723941833028067,0.04723941833028067
254.147,0.042059759465183255,0.042059759465183255
254.148,0.028854736949528892,0.028854736949528892
254.149,0.012639411751080631,0.012639411751080631
254.15,0.001349827126072567,-0.001349827126072567
254.151,0.009515344100989531,-0.009515344100989531
254.152,0.011072601794861026,-0.011072601794861026
254.153,0.00812908694839809,-0.00812908694839809
254.154,0.004663914592980989,-0.004663914592980989
254.155,0.004806815878004467,-0.004806815878004467
254.156,0.011068780092432395,-0.011068780092432395
254.157,0.02319047394647611,-0.02319047394647611
254.158,0.038045501315107644,-0.038045501315107644
254.159,0.05064823725021805,-0.05064823725021805
254.16,0.05591151776113168,-0.05591151776113168
254.161,0.05052412422162411,-0.05052412422162411
254.162,0.034270346417715314,-0.034270346417715314
254.163,0.010309828762277373,-0.010309828762277373
254.164,0.0156963080488286,0.0156963080488286
254.165,0.037320079001906814,0.037320079001906814
254.166,0.049368146211127284,0.049368146211127284
254.167,0.04946756669173702,0.04946756669173702
254.168,0.03870526791538209,0.03870526791538209
254.169,0.021126642223225245,0.021126642223225245
254.17,0.002296546288993895,0.002296546288993895
254.171,0.012555903079260688,-0.012555903079260688
254.172,0.020159900399063346,-0.020159900399063346
254.173,0.020048173648624767,-0.020048173648624767
254.174,0.014373431253799862,-0.014373431253799862
254.175,0.0068181111362510816,-0.0068181111362510816
254.176,0.0010379823579447223,-0.0010379823579447223
254.177,0.0007689731539490818,0.0007689731539490818
254.178,0.0013563221481822652,-0.0013563221481822652
254.179,0.0052726309594473,-0.0052726309594473
254.18,0.007719506645164631,-0.007719506645164631
254.181,0.005752506102621346,-0.005752506102621346
254.182,0.0019192839587436339,0.0019192839587436339
254.183,0.01420412868507892,0.01420412868507892
254.184,0.027790415452942696,0.027790415452942696
254.185,0.0381566379551288,0.0381566379551288
254.186,0.04107512986249384,0.04107512986249384
254.187,0.03407798277307905,0.03407798277307905
254.188,0.017368541797083692,0.017368541797083692
254.189,0.006138343650473166,-0.006138343650473166
254.19,0.031654206760084236,-0.031654206760084236
254.191,0.05393289432067161,-0.05393289432067161
254.192,0.06877048480929426,-0.06877048480929426
254.193,0.0740816142490951,-0.0740816142490951
254.194,0.07021267034676604,-0.07021267034676604
254.195,0.05943739314072605,-0.05943739314072605
254.196,0.04487670380231312,-0.04487670380231312
254.197,0.029283847569565924,-0.029283847569565924
254.198,0.014166840577067297,-0.014166840577067297
254.199,0.00042621801417608296,0.00042621801417608296
254.2,0.015401084888561956,0.015401084888561956
254.201,0.031621308368847245,0.031621308368847245
254.202,0.048854627160455744,0.048854627160455744
254.203,0.06513286136232321,0.06513286136232321
254.204,0.07685475580454404,0.07685475580454404
254.205,0.07968816043601312,0.07968816043601312
254.206,0.07002044679586161,0.07002044679586161
254.207,0.0464753289825095,0.0464753289825095
254.208,0.010946092568191679,0.010946092568191679
254.209,0.03128045412040781,-0.03128045412040781
254.21,0.07245519433125525,-0.07245519433125525
254.211,0.10415528676682362,-0.10415528676682362
254.212,0.11943978057368632,-0.11943978057368632
254.213,0.11473978823017439,-0.11473978823017439
254.214,0.09090883846726361,-0.09090883846726361
254.215,0.05310100650424587,-0.05310100650424587
254.216,0.00949345232520915,-0.00949345232520915
254.217,0.03078531480195612,0.03078531480195612
254.218,0.059928738523968184,0.059928738523968184
254.219,0.07328721975625374,0.07328721975625374
254.22,0.07027266734091331,0.07027266734091331
254.221,0.054131430210376585,0.054131430210376585
254.222,0.03072341694540115,0.03072341694540115
254.223,0.006725313442966341,0.006725313442966341
254.224,0.012186558952299253,-0.012186558952299253
254.225,0.022657570503117008,-0.022657570503117008
254.226,0.02415717101319459,-0.02415717101319459
254.227,0.01861525488406024,-0.01861525488406024
254.228,0.009411778670734505,-0.009411778670734505
254.229,0.00011218426250081404,-0.00011218426250081404
254.23,0.006626229484220092,0.006626229484220092
254.231,0.009658480912893008,0.009658480912893008
254.232,0.009347122869100666,0.009347122869100666
254.233,0.007046591616933773,0.007046591616933773
254.234,0.004336592893255498,0.004336592893255498
254.235,0.002320478648041968,0.002320478648041968
254.236,0.0012444936693740694,0.0012444936693740694
254.237,0.0005478404286032301,0.0005478404286032301
254.238,0.0007202788890192657,-0.0007202788890192657
254.239,0.0033180577326722416,-0.0033180577326722416
254.24,0.007318143346051631,-0.007318143346051631
254.241,0.011914387611440813,-0.011914387611440813
254.242,0.015615023649093729,-0.015615023649093729
254.243,0.01675576194753281,-0.01675576194753281
254.244,0.014140470359112034,-0.014140470359112034
254.245,0.007564582164087841,-0.007564582164087841
254.246,0.0019843891033435312,0.0019843891033435312
254.247,0.012538821791420629,0.012538821791420629
254.248,0.02171469471714471,0.02171469471714471
254.249,0.027436189910406528,0.027436189910406528
254.25,0.028567743153497194,0.028567743153497194
254.251,0.025228231890110253,0.025228231890110253
254.252,0.018671973077979187,0.018671973077979187
254.253,0.01077504437071819,0.01077504437071819
254.254,0.0033091850395954303,0.0033091850395954303
254.255,0.0027320784896506245,-0.0027320784896506245
254.256,0.007500148540459439,-0.007500148540459439
254.257,0.012197124872696974,-0.012197124872696974
254.258,0.01852706910722124,-0.01852706910722124
254.259,0.027864978479633984,-0.027864978479633984
254.26,0.04043001548136127,-0.04043001548136127
254.261,0.0547711796822663,-0.0547711796822663
254.262,0.06779117623232189,-0.06779117623232189
254.263,0.07537065732437287,-0.07537065732437287
254.264,0.07346067718437754,-0.07346067718437754
254.265,0.059348022011621926,-0.059348022011621926
254.266,0.03271961097740239,-0.03271961097740239
254.267,0.003813757987271016,0.003813757987271016
254.268,0.044934541685627716,0.044934541685627716
254.269,0.08357190460750896,0.08357190460750896
254.27,0.11237759489202448,0.11237759489202448
254.271,0.1253588425093286,0.1253588425093286
254.272,0.11925391860505008,0.11925391860505008
254.273,0.09430305306722309,0.09430305306722309
254.274,0.05422915253015326,0.05422915253015326
254.275,0.0054504290847765535,0.0054504290847765535
254.276,0.044259842751077416,-0.044259842751077416
254.277,0.08732606087690153,-0.08732606087690153
254.278,0.1177683848134452,-0.1177683848134452
254.279,0.13215033416003363,-0.13215033416003363
254.28,0.129920444121577,-0.129920444121577
254.281,0.11315557929512465,-0.11315557929512465
254.282,0.08585116199367315,-0.08585116199367315
254.283,0.05298127856976986,-0.05298127856976986
254.284,0.019557745056595244,-0.019557745056595244
254.285,0.0101360825212784,0.0101360825212784
254.286,0.03304493401667141,0.03304493401667141
254.287,0.04756441519502541,0.04756441519502541
254.288,0.053530796373671086,0.053530796373671086
254.289,0.052039366883752436,0.052039366883752436
254.29,0.04514236344530276,0.04514236344530276
254.291,0.03545768703541441,0.03545768703541441
254.292,0.025710460161745052,0.025710460161745052
254.293,0.018241711335666988,0.018241711335666988
254.294,0.014548334162540977,0.014548334162540977
254.295,0.014949017547515986,0.014949017547515986
254.296,0.018479695724236134,0.018479695724236134
254.297,0.023092303420610083,0.023092303420610083
254.298,0.02616027898741935,0.02616027898741935
254.299,0.025200119908905805,0.025200119908905805
254.3,0.018631824653072115,0.018631824653072115
254.301,0.006357421934497731,0.006357421934497731
254.302,0.010039146014809375,-0.010039146014809375
254.303,0.027572824468458546,-0.027572824468458546
254.304,0.04257892913889283,-0.04257892913889283
254.305,0.05168991386277322,-0.05168991386277322
254.306,0.052783852451172564,-0.052783852451172564
254.307,0.04560916026826878,-0.04560916026826878
254.308,0.03187641969066968,-0.03187641969066968
254.309,0.014770770666896471,-0.014770770666896471
254.31,0.001973671488986417,0.001973671488986417
254.311,0.015146125146231926,0.015146125146231926
254.312,0.022929765917786504,0.022929765917786504
254.313,0.02528269310193365,0.02528269310193365
254.314,0.023704030768403772,0.023704030768403772
254.315,0.020472521271421407,0.020472521271421407
254.316,0.01763427516665872,0.01763427516665872
254.317,0.01611386870284126,0.01611386870284126
254.318,0.015289601155777044,0.015289601155777044
254.319,0.013215296286013922,0.013215296286013922
254.32,0.007438596371389661,0.007438596371389661
254.321,0.0038605776238730405,-0.0038605776238730405
254.322,0.020825874817451906,-0.020825874817451906
254.323,0.041384711061745016,-0.041384711061745016
254.324,0.061469704944156156,-0.061469704944156156
254.325,0.07600306955495195,-0.07600306955495195
254.326,0.08037376981437194,-0.08037376981437194
254.327,0.07194393309224212,-0.07194393309224212
254.328,0.05107823686572455,-0.05107823686572455
254.329,0.021320000172427855,-0.021320000172427855
254.33,0.011396887766293329,0.011396887766293329
254.331,0.04029629630958276,0.04029629630958276
254.332,0.05960665754773631,0.05960665754773631
254.333,0.06613346711925794,0.06613346711925794
254.334,0.06006241429535164,0.06006241429535164
254.335,0.044742306632469475,0.044742306632469475
254.336,0.025527700059245984,0.025527700059245984
254.337,0.008067183217170149,0.008067183217170149
254.338,0.003399725875448345,-0.003399725875448345
254.339,0.007187138728748765,-0.007187138728748765
254.34,0.004397791804458651,-0.004397791804458651
254.341,0.0017863395174835262,0.0017863395174835262
254.342,0.0074688181907447415,0.0074688181907447415
254.343,0.009551154572307707,0.009551154572307707
254.344,0.00684738761002146,0.00684738761002146
254.345,0.00041111825413864267,0.00041111825413864267
254.346,0.007021588683515656,-0.007021588683515656
254.347,0.012244468274544507,-0.012244468274544507
254.348,0.012978428721981627,-0.012978428721981627
254.349,0.008914498709296725,-0.008914498709296725
254.35,0.0019909912617087633,-0.0019909912617087633
254.351,0.004225538344377666,0.004225538344377666
254.352,0.00585267189178551,0.00585267189178551
254.353,0.00022975682517234475,0.00022975682517234475
254.354,0.012887021790807252,-0.012887021790807252
254.355,0.03093497835170178,-0.03093497835170178
254.356,0.04914777994669539,-0.04914777994669539
254.357,0.061987125479545324,-0.061987125479545324
254.358,0.06493786284812841,-0.06493786284812841
254.359,0.05605713988868499,-0.05605713988868499
254.36,0.03673594386796297,-0.03673594386796297
254.361,0.011390614989807202,-0.011390614989807202
254.362,0.013835711203229906,0.013835711203229906
254.363,0.03294202098791499,0.03294202098791499
254.364,0.0418908617267435,0.0418908617267435
254.365,0.03977816128102618,0.03977816128102618
254.366,0.028969096141610695,0.028969096141610695
254.367,0.014170945309384564,0.014170945309384564
254.368,0.0007757295088681726,0.0007757295088681726
254.369,0.006950026236461904,-0.006950026236461904
254.37,0.007208515604515964,-0.007208515604515964
254.371,0.0011000317028818651,-0.0011000317028818651
254.372,0.007981720702425532,0.007981720702425532
254.373,0.015744181901046872,0.015744181901046872
254.374,0.018662282800608443,0.018662282800608443
254.375,0.0153108459702056,0.0153108459702056
254.376,0.0068852472861955505,0.0068852472861955505
254.377,0.0032709163218527237,-0.0032709163218527237
254.378,0.010953581309595006,-0.010953581309595006
254.379,0.012730407718034797,-0.012730407718034797
254.38,0.007322181600236788,-0.007322181600236788
254.381,0.0037735972462722422,0.0037735972462722422
254.382,0.016655520665450396,0.016655520665450396
254.383,0.02627309002151912,0.02627309002151912
254.384,0.028136704988651173,0.028136704988651173
254.385,0.01989390699562521,0.01989390699562521
254.386,0.0022273651603335054,0.0022273651603335054
254.387,0.021236038878264085,-0.021236038878264085
254.388,0.04497574556537465,-0.04497574556537465
254.389,0.06323210846921012,-0.06323210846921012
254.39,0.0717102549331674,-0.0717102549331674
254.391,0.0687735497974743,-0.0687735497974743
254.392,0.05575459281613582,-0.05575459281613582
254.393,0.03632245819185553,-0.03632245819185553
254.394,0.015167647446060695,-0.015167647446060695
254.395,0.003512169752628802,0.003512169752628802
254.396,0.017197205212773348,0.017197205212773348
254.397,0.02551507532572983,0.02551507532572983
254.398,0.029882572005989427,0.029882572005989427
254.399,0.03251235981574507,0.03251235981574507
254.4,0.03520294629776988,0.03520294629776988
254.401,0.03839715358911455,0.03839715358911455
254.402,0.040881220442256616,0.040881220442256616
254.403,0.04024738708922437,0.04024738708922437
254.404,0.033949543214590205,0.033949543214590205
254.405,0.02055122561351541,0.02055122561351541
254.406,0.0006813409736134979,0.0006813409736134979
254.407,0.022694150268627533,-0.022694150268627533
254.408,0.04483958107686559,-0.04483958107686559
254.409,0.0605140864615632,-0.0605140864615632
254.41,0.06553913903219633,-0.06553913903219633
254.411,0.05815586226294045,-0.05815586226294045
254.412,0.03971456178623456,-0.03971456178623456
254.413,0.014450287314237809,-0.014450287314237809
254.414,0.01160708139009703,0.01160708139009703
254.415,0.03226154526071978,0.03226154526071978
254.416,0.042822644148414746,0.042822644148414746
254.417,0.04131795714554953,0.04131795714554953
254.418,0.02889903968432761,0.02889903968432761
254.419,0.009353611479215207,0.009353611479215207
254.42,0.012085859807505317,-0.012085859807505317
254.421,0.030243035083865277,-0.030243035083865277
254.422,0.0413453562993189,-0.0413453562993189
254.423,0.04383711772718446,-0.04383711772718446
254.424,0.038472156147564274,-0.038472156147564274
254.425,0.027739172479856355,-0.027739172479856355
254.426,0.014874276169644762,-0.014874276169644762
254.427,0.0028171837838386615,-0.0028171837838386615
254.428,0.006555242585055243,0.006555242585055243
254.429,0.012713348662402701,0.012713348662402701
254.43,0.016255039602377508,0.016255039602377508
254.431,0.018331307148933274,0.018331307148933274
254.432,0.019969369829056838,0.019969369829056838
254.433,0.021553169978026476,0.021553169978026476
254.434,0.022639117919941665,0.022639117919941665
254.435,0.022150193146506236,0.022150193146506236
254.436,0.018854385320920652,0.018854385320920652
254.437,0.011940325588473133,0.011940325588473133
254.438,0.001480634476105136,0.001480634476105136
254.439,0.011377698840465467,-0.011377698840465467
254.44,0.024559985429951747,-0.024559985429951747
254.441,0.03550340920999817,-0.03550340920999817
254.442,0.0417608091328977,-0.0417608091328977
254.443,0.04160184677248213,-0.04160184677248213
254.444,0.03445762560440713,-0.03445762560440713
254.445,0.021106810932261633,-0.021106810932261633
254.446,0.003571060867847531,-0.003571060867847531
254.447,0.015246472141769996,0.015246472141769996
254.448,0.032098303116632865,0.032098303116632865
254.449,0.04399993384807588,0.04399993384807588
254.45,0.048797743778141944,0.048797743778141944
254.451,0.04559771931073908,0.04559771931073908
254.452,0.03497458377903406,0.03497458377903406
254.453,0.0189091738270184,0.0189091738270184
254.454,0.00044140716378704425,0.00044140716378704425
254.455,0.016922307107684165,-0.016922307107684165
254.456,0.02994994315245092,-0.02994994315245092
254.457,0.036423347548785956,-0.036423347548785956
254.458,0.035698746526980796,-0.035698746526980796
254.459,0.02892471736787805,-0.02892471736787805
254.46,0.018818314990013407,-0.018818314990013407
254.461,0.009006886154001137,-0.009006886154001137
254.462,0.0030676454876708004,-0.0030676454876708004
254.463,0.0035025109690838274,-0.0035025109690838274
254.464,0.010934481253644046,-0.010934481253644046
254.465,0.023779303722723633,-0.023779303722723633
254.466,0.03853140529364363,-0.03853140529364363
254.467,0.05063261512923578,-0.05063261512923578
254.468,0.05571446249314094,-0.05571446249314094
254.469,0.0508757925774741,-0.0508757925774741
254.47,0.03562247443261901,-0.03562247443261901
254.471,0.012173538582041732,-0.012173538582041732
254.472,0.014988585385090625,0.014988585385090625
254.473,0.04022582586054457,0.04022582586054457
254.474,0.05821194303893584,0.05821194303893584
254.475,0.06534457443305963,0.06534457443305963
254.476,0.06069289083709761,0.06069289083709761
254.477,0.04620279133044769,0.04620279133044769
254.478,0.026099229288955028,0.026099229288955028
254.479,0.005663498181877946,0.005663498181877946
254.48,0.010251511005519798,-0.010251511005519798
254.481,0.018530421840424638,-0.018530421840424638
254.482,0.018549916067617578,-0.018549916067617578
254.483,0.01217275231550008,-0.01217275231550008
254.484,0.003007825677853626,-0.003007825677853626
254.485,0.004817650281772945,0.004817650281772945
254.486,0.007988339975765424,0.007988339975765424
254.487,0.005029099564081596,0.005029099564081596
254.488,0.0032689851085906385,-0.0032689851085906385
254.489,0.014134688656620265,-0.014134688656620265
254.49,0.02370867202039395,-0.02370867202039395
254.491,0.028259887852260412,-0.028259887852260412
254.492,0.025360515432452657,-0.025360515432452657
254.493,0.014680268678483488,-0.014680268678483488
254.494,0.001816120685983913,0.001816120685983913
254.495,0.020307575629932018,0.020307575629932018
254.496,0.03605492221648321,0.03605492221648321
254.497,0.044576816640538475,0.044576816640538475
254.498,0.042756721223730976,0.042756721223730976
254.499,0.029613725553539805,0.029613725553539805
254.5,0.006572987471855862,0.006572987471855862
254.501,0.022797213184890586,-0.022797213184890586
254.502,0.05349269656962519,-0.05349269656962519
254.503,0.08005085587567351,-0.08005085587567351
254.504,0.09758922262109548,-0.09758922262109548
254.505,0.10270761340720425,-0.10270761340720425
254.506,0.09410128555378572,-0.09410128555378572
254.507,0.07279408542449939,-0.07279408542449939
254.508,0.04196517549875822,-0.04196517549875822
254.509,0.006403010510202534,-0.006403010510202534
254.51,0.028326752508171404,0.028326752508171404
254.511,0.0568679141719175,0.0568679141719175
254.512,0.07505034289559798,0.07505034289559798
254.513,0.08067789310717655,0.08067789310717655
254.514,0.07396359505969352,0.07396359505969352
254.515,0.05749827248002903,0.05749827248002903
254.516,0.03572344634232372,0.03572344634232372
254.517,0.013985963671436119,0.013985963671436119
254.518,0.002643294544264596,-0.002643294544264596
254.519,0.01053004759501297,-0.01053004759501297
254.52,0.008342114115444277,-0.008342114115444277
254.521,0.002603372718781971,0.002603372718781971
254.522,0.018619764455154897,0.018619764455154897
254.523,0.03451465405667209,0.03451465405667209
254.524,0.044844642284880276,0.044844642284880276
254.525,0.045261893569540135,0.045261893569540135
254.526,0.033622072424137395,0.033622072424137395
254.527,0.010578222111504498,0.010578222111504498
254.528,0.020487110611767556,-0.020487110611767556
254.529,0.054173031014055906,-0.054173031014055906
254.53,0.08423688217234782,-0.08423688217234782
254.531,0.10494849589039523,-0.10494849589039523
254.532,0.11230154396699132,-0.11230154396699132
254.533,0.10481083750562636,-0.10481083750562636
254.534,0.08373819169305141,-0.08373819169305141
254.535,0.05273336462128697,-0.05273336462128697
254.536,0.017011052915451463,-0.017011052915451463
254.537,0.017723066171562385,0.017723066171562385
254.538,0.046352555564982634,0.046352555564982634
254.539,0.06522006641635181,0.06522006641635181
254.54,0.07264184513891325,0.07264184513891325
254.541,0.06901262700307464,0.06901262700307464
254.542,0.056531938927519176,0.056531938927519176
254.543,0.03864542379036506,0.03864542379036506
254.544,0.01932774194136533,0.01932774194136533
254.545,0.002339360283963421,0.002339360283963421
254.546,0.009424047144488634,-0.009424047144488634
254.547,0.014395433776367317,-0.014395433776367317
254.548,0.012549520439141926,-0.012549520439141926
254.549,0.005335720333129568,-0.005335720333129568
254.55,0.00465952150398774,0.00465952150398774
254.551,0.014268127636868577,0.014268127636868577
254.552,0.020418028097530128,0.020418028097530128
254.553,0.020804598394017937,0.020804598394017937
254.554,0.01441558184614089,0.01441558184614089
254.555,0.0017875334809065446,0.0017875334809065446
254.556,0.015077456286863744,-0.015077456286863744
254.557,0.03313073866082672,-0.03313073866082672
254.558,0.04894529896465838,-0.04894529896465838
254.559,0.059479578506414055,-0.059479578506414055
254.56,0.06275249109686998,-0.06275249109686998
254.561,0.05826257937718182,-0.05826257937718182
254.562,0.047048039148254506,-0.047048039148254506
254.563,0.031378332347007265,-0.031378332347007265
254.564,0.014166024488852957,-0.014166024488852957
254.565,0.0017391483373609962,0.0017391483373609962
254.566,0.01418482076967087,0.01418482076967087
254.567,0.022116880355623758,0.022116880355623758
254.568,0.025656746674010078,0.025656746674010078
254.569,0.025860472673907342,0.025860472673907342
254.57,0.024254529774105915,0.024254529774105915
254.571,0.022300290038893555,0.022300290038893555
254.572,0.020948559072409223,0.020948559072409223
254.573,0.02040682322015419,0.02040682322015419
254.574,0.020169641780773517,0.020169641780773517
254.575,0.019280732589969762,0.019280732589969762
254.576,0.016729021209626938,0.016729021209626938
254.577,0.011848864326280628,0.011848864326280628
254.578,0.004603468342009087,0.004603468342009087
254.579,0.004326180840253491,-0.004326180840253491
254.58,0.01366299440012142,-0.01366299440012142
254.581,0.02182231178006222,-0.02182231178006222
254.582,0.027282429577870637,-0.027282429577870637
254.583,0.02893913487652311,-0.02893913487652311
254.584,0.026360638180147333,-0.026360638180147333
254.585,0.019892738780832975,-0.019892738780832975
254.586,0.010604063095466132,-0.010604063095466132
254.587,9.601915564028118e-05,-9.601915564028118e-05
254.588,0.009775740641639441,0.009775740641639441
254.589,0.017213784348189876,0.017213784348189876
254.59,0.020774305434435814,0.020774305434435814
254.591,0.01960418645511597,0.01960418645511597
254.592,0.013589694517039064,0.013589694517039064
254.593,0.0033974908446245955,0.0033974908446245955
254.594,0.009600623791431673,-0.009600623791431673
254.595,0.023515141746882517,-0.023515141746882517
254.596,0.036218630256630746,-0.036218630256630746
254.597,0.045680452337757416,-0.045680452337757416
254.598,0.050303591069348785,-0.050303591069348785
254.599,0.04920300653422183,-0.04920300653422183
254.6,0.04236968341312397,-0.04236968341312397
254.601,0.030683332689647846,-0.030683332689647846
254.602,0.01576666364126944,-0.01576666364126944
254.603,0.0002918806759222292,0.0002918806759222292
254.604,0.01529125633584183,0.01529125633584183
254.605,0.027275808094735732,0.027275808094735732
254.606,0.03482949710358185,0.03482949710358185
254.607,0.037256671365566874,0.037256671365566874
254.608,0.0346288250393223,0.0346288250393223
254.609,0.027707021512437535,0.027707021512437535
254.61,0.017772311623697412,0.017772311623697412
254.611,0.006406395768828066,0.006406395768828066
254.612,0.004738138665278724,-0.004738138665278724
254.613,0.014149910368394858,-0.014149910368394858
254.614,0.02063777915077447,-0.02063777915077447
254.615,0.023469542119104903,-0.023469542119104903
254.616,0.022463897771078045,-0.022463897771078045
254.617,0.01802484386892056,-0.01802484386892056
254.618,0.0111033173993067,-0.0111033173993067
254.619,0.0030728766996176438,-0.0030728766996176438
254.62,0.0044815411857139775,0.0044815411857139775
254.621,0.010041157829217884,0.010041157829217884
254.622,0.012451692292317684,0.012451692292317684
254.623,0.011178352097106492,0.011178352097106492
254.624,0.006450162488753408,0.006450162488753408
254.625,0.0007562038748869515,-0.0007562038748869515
254.626,0.00890656359995401,-0.00890656359995401
254.627,0.01624051465096399,-0.01624051465096399
254.628,0.021168712438092818,-0.021168712438092818
254.629,0.022636703903866184,-0.022636703903866184
254.63,0.02035928914474927,-0.02035928914474927
254.631,0.014861592376805288,-0.014861592376805288
254.632,0.007315821141675394,-0.007315821141675394
254.633,0.0007793540353060457,0.0007793540353060457
254.634,0.007984589866918634,0.007984589866918634
254.635,0.013260446762855427,0.013260446762855427
254.636,0.016167473202082006,0.016167473202082006
254.637,0.016874619883338493,0.016874619883338493
254.638,0.01598437350918336,0.01598437350918336
254.639,0.014239528299250015,0.014239528299250015
254.64,0.012212406781105134,0.012212406781105134
254.641,0.010081491578502133,0.010081491578502133
254.642,0.00757165703174123,0.00757165703174123
254.643,0.004081485292273701,0.004081485292273701
254.644,0.0010392666744543089,-0.0010392666744543089
254.645,0.008148765917155854,-0.008148765917155854
254.646,0.01701971568947014,-0.01701971568947014
254.647,0.02669592272670207,-0.02669592272670207
254.648,0.03556238284057467,-0.03556238284057467
254.649,0.04163406891607435,-0.04163406891607435
254.65,0.043006733710021505,-0.043006733710021505
254.651,0.03836427330111991,-0.03836427330111991
254.652,0.027414363886023252,-0.027414363886023252
254.653,0.01113320469263479,-0.01113320469263479
254.654,0.008260623431360248,0.008260623431360248
254.655,0.027622914925384823,0.027622914925384823
254.656,0.04344332308833154,0.04344332308833154
254.657,0.05254003899477233,0.05254003899477233
254.658,0.052744187027060185,0.052744187027060185
254.659,0.04342151618746448,0.04342151618746448
254.66,0.02570598483843911,0.02570598483843911
254.661,0.0023765720212396424,0.0023765720212396424
254.662,0.022615897914133654,-0.022615897914133654
254.663,0.04488689715104155,-0.04488689715104155
254.664,0.060473063126280535,-0.060473063126280535
254.665,0.0666230607091235,-0.0666230607091235
254.666,0.062351543725556846,-0.062351543725556846
254.667,0.04863193307724967,-0.04863193307724967
254.668,0.028183318955423697,-0.028183318955423697
254.669,0.004898954998204141,-0.004898954998204141
254.67,0.016954219401868365,0.016954219401868365
254.671,0.03358493119702399,0.03358493119702399
254.672,0.042389720241840845,0.042389720241840845
254.673,0.04238185579707432,0.04238185579707432
254.674,0.03426556131498759,0.03426556131498759
254.675,0.02017184104169778,0.02017184104169778
254.676,0.0031484180521876848,0.0031484180521876848
254.677,0.013459468694471455,-0.013459468694471455
254.678,0.026598050784241156,-0.026598050784241156
254.679,0.03395935066436351,-0.03395935066436351
254.68,0.03425269834477773,-0.03425269834477773
254.681,0.027300948113258783,-0.027300948113258783
254.682,0.014004108088994216,-0.014004108088994216
254.683,0.003782072296629968,0.003782072296629968
254.684,0.023426852805039644,0.023426852805039644
254.685,0.041771553468797906,0.041771553468797906
254.686,0.05547192020971825,0.05547192020971825
254.687,0.06145852803813168,0.06145852803813168
254.688,0.05749780746159083,0.05749780746159083
254.689,0.04277318550202258,0.04277318550202258
254.69,0.018344759513198694,0.018344759513198694
254.691,0.012682623080505828,-0.012682623080505828
254.692,0.045425079420940984,-0.045425079420940984
254.693,0.07397085124024061,-0.07397085124024061
254.694,0.09253285418825663,-0.09253285418825663
254.695,0.09677623907403154,-0.09677623907403154
254.696,0.08499429069612319,-0.08499429069612319
254.697,0.05879011954138125,-0.05879011954138125
254.698,0.0230100758297499,-0.0230100758297499
254.699,0.015145128279439701,0.015145128279439701
254.7,0.047679196460765016,0.047679196460765016
254.701,0.06766985422137073,0.06766985422137073
254.702,0.07097012385010659,0.07097012385010659
254.703,0.05727403205820902,0.05727403205820902
254.704,0.030230513019202432,0.030230513019202432
254.705,0.0034572862698144524,-0.0034572862698144524
254.706,0.0357256556107608,-0.0357256556107608
254.707,0.0591851193423969,-0.0591851193423969
254.708,0.0689409688452628,-0.0689409688452628
254.709,0.06370250624109475,-0.06370250624109475
254.71,0.045890127693810734,-0.045890127693810734
254.711,0.02074234965964561,-0.02074234965964561
254.712,0.0052846113238183,0.0052846113238183
254.713,0.02633357364169031,0.02633357364169031
254.714,0.03864271282871057,0.03864271282871057
254.715,0.04130450331979274,0.04130450331979274
254.716,0.036115091719683745,0.036115091719683745
254.717,0.026631669519609158,0.026631669519609158
254.718,0.01679660739976696,0.01679660739976696
254.719,0.009603429193652868,0.009603429193652868
254.72,0.006237007537069017,0.006237007537069017
254.721,0.005937526661207393,0.005937526661207393
254.722,0.006579703832115591,0.006579703832115591
254.723,0.005714117637449112,0.005714117637449112
254.724,0.0016684655542611448,0.0016684655542611448
254.725,0.005698702938778499,-0.005698702938778499
254.726,0.014862502373469755,-0.014862502373469755
254.727,0.02315674576246851,-0.02315674576246851
254.728,0.027762516757554145,-0.027762516757554145
254.729,0.026796682404562344,-0.026796682404562344
254.73,0.02010000811479029,-0.02010000811479029
254.731,0.009429354586947714,-0.009429354586947714
254.732,0.0020325636766900246,0.0020325636766900246
254.733,0.01069625092762716,0.01069625092762716
254.734,0.013771721486156352,0.013771721486156352
254.735,0.01024928719599738,0.01024928719599738
254.736,0.0013122077136040744,0.0013122077136040744
254.737,0.009974163075515796,-0.009974163075515796
254.738,0.01961126577021255,-0.01961126577021255
254.739,0.02395550383954037,-0.02395550383954037
254.74,0.020932187319799733,-0.020932187319799733
254.741,0.010782716938059655,-0.010782716938059655
254.742,0.003899238202277555,0.003899238202277555
254.743,0.018861365253501017,0.018861365253501017
254.744,0.029406533755121256,0.029406533755121256
254.745,0.03175898931171961,0.03175898931171961
254.746,0.024175088529877486,0.024175088529877486
254.747,0.0074773440600584,0.0074773440600584
254.748,0.01512859290616908,-0.01512859290616908
254.749,0.038879766858052056,-0.038879766858052056
254.75,0.0586695639214726,-0.0586695639214726
254.751,0.07029987409212857,-0.07029987409212857
254.752,0.07143650817003433,-0.07143650817003433
254.753,0.062041528119498146,-0.062041528119498146
254.754,0.04421858130203771,-0.04421858130203771
254.755,0.021569799254429145,-0.021569799254429145
254.756,0.0017219741573644143,0.0017219741573644143
254.757,0.021830756830075293,0.021830756830075293
254.758,0.036023416478073944,0.036023416478073944
254.759,0.04305851483339196,0.04305851483339196
254.76,0.04321646154272418,0.04321646154272418
254.761,0.03801876445233443,0.03801876445233443
254.762,0.029747919181671634,0.029747919181671634
254.763,0.020893246286590728,0.020893246286590728
254.764,0.013631423699983714,0.013631423699983714
254.765,0.009419958422544727,0.009419958422544727
254.766,0.008751906967874534,0.008751906967874534
254.767,0.01109743849674838,0.01109743849674838
254.768,0.015040066586294198,0.015040066586294198
254.769,0.01859520173738849,0.01859520173738849
254.77,0.01967013041602672,0.01967013041602672
254.771,0.01658871072695356,0.01658871072695356
254.772,0.008571042209801316,0.008571042209801316
254.773,0.003956060036184428,-0.003956060036184428
254.774,0.01932331671104981,-0.01932331671104981
254.775,0.03490670028553555,-0.03490670028553555
254.776,0.04770186919031083,-0.04770186919031083
254.777,0.05505787738074597,-0.05505787738074597
254.778,0.05537754796470962,-0.05537754796470962
254.779,0.04857927643705351,-0.04857927643705351
254.78,0.03616711521204352,-0.03616711521204352
254.781,0.020863328457117025,-0.020863328457117025
254.782,0.005889892128244756,-0.005889892128244756
254.783,0.005899706073138056,0.005899706073138056
254.784,0.012779767808762,0.012779767808762
254.785,0.01456803529421058,0.01456803529421058
254.786,0.01256489874874922,0.01256489874874922
254.787,0.009033256940095935,0.009033256940095935
254.788,0.006385588769758366,0.006385588769758366
254.789,0.0063433084073174495,0.0063433084073174495
254.79,0.009345979109258273,0.009345979109258273
254.791,0.014407732346233493,0.014407732346233493
254.792,0.019470261666269417,0.019470261666269417
254.793,0.022134986287305036,0.022134986287305036
254.794,0.020527912255912772,0.020527912255912772
254.795,0.014003919755184224,0.014003919755184224
254.796,0.0034495660925550897,0.0034495660925550897
254.797,0.008922056378580345,-0.008922056378580345
254.798,0.020219836257355905,-0.020219836257355905
254.799,0.02775272333019252,-0.02775272333019252
254.8,0.02984714675095257,-0.02984714675095257
254.801,0.026335867951100878,-0.026335867951100878
254.802,0.018563210321111523,-0.018563210321111523
254.803,0.008915553910086693,-0.008915553910086693
254.804,4.427174893040231e-05,-4.427174893040231e-05
254.805,0.005953288152447778,0.005953288152447778
254.806,0.008123375929197207,0.008123375929197207
254.807,0.0068315499725408735,0.0068315499725408735
254.808,0.003487765974042878,0.003487765974042878
254.809,6.018525817252929e-05,-6.018525817252929e-05
254.81,0.0022364557816164643,-0.0022364557816164643
254.811,0.0022954280028766316,-0.0022954280028766316
254.812,0.0005376100958318641,-0.0005376100958318641
254.813,0.0018788496104951147,0.0018788496104951147
254.814,0.0034462953681546615,0.0034462953681546615
254.815,0.0029384581956457545,0.0029384581956457545
254.816,7.157283739089859e-05,-7.157283739089859e-05
254.817,0.004995677604856974,-0.004995677604856974
254.818,0.01039405173997987,-0.01039405173997987
254.819,0.01445710209393758,-0.01445710209393758
254.82,0.015633030436490336,-0.015633030436490336
254.821,0.01317975167488028,-0.01317975167488028
254.822,0.007450411679620572,-0.007450411679620572
254.823,0.00018184074848770493,0.00018184074848770493
254.824,0.007728213979355969,0.007728213979355969
254.825,0.01317595963931506,0.01317595963931506
254.826,0.01506907577205796,0.01506907577205796
254.827,0.012894114924351996,0.012894114924351996
254.828,0.0071636541266300036,0.0071636541266300036
254.829,0.0008020177730511113,-0.0008020177730511113
254.83,0.009295109573494664,-0.009295109573494664
254.831,0.016686628109507495,-0.016686628109507495
254.832,0.02178725657611158,-0.02178725657611158
254.833,0.02400934012928957,-0.02400934012928957
254.834,0.0233221435466765,-0.0233221435466765
254.835,0.020070768818399976,-0.020070768818399976
254.836,0.014769880497043308,-0.014769880497043308
254.837,0.007973033432111531,-0.007973033432111531
254.838,0.00026446349202124964,-0.00026446349202124964
254.839,0.007652172863948925,0.007652172863948925
254.84,0.014852103853578047,0.014852103853578047
254.841,0.020176977910114635,0.020176977910114635
254.842,0.022382021021818854,0.022382021021818854
254.843,0.020442617534936813,0.020442617534936813
254.844,0.013938789528825213,0.013938789528825213
254.845,0.003378172149586689,0.003378172149586689
254.846,0.009689445818824138,-0.009689445818824138
254.847,0.0228614840700051,-0.0228614840700051
254.848,0.03337477180881154,-0.03337477180881154
254.849,0.03879026487833637,-0.03879026487833637
254.85,0.03767749665789244,-0.03767749665789244
254.851,0.030082716116186847,-0.030082716116186847
254.852,0.017613661554050863,-0.017613661554050863
254.853,0.0030833172107399553,-0.0030833172107399553
254.854,0.010208798627926452,0.010208798627926452
254.855,0.01936064152891892,0.01936064152891892
254.856,0.022658890917034213,0.022658890917034213
254.857,0.02003837690264576,0.02003837690264576
254.858,0.013065725287661811,0.013065725287661811
254.859,0.004445714253063171,0.004445714253063171
254.86,0.002805890232953856,-0.002805890232953856
254.861,0.006276922698973619,-0.006276922698973619
254.862,0.004887503305683327,-0.004887503305683327
254.863,0.0007843275907053471,0.0007843275907053471
254.864,0.008675482068466245,0.008675482068466245
254.865,0.015855441776526424,0.015855441776526424
254.866,0.019403815516736644,0.019403815516736644
254.867,0.017289185424816944,0.017289185424816944
254.868,0.008994473856533514,0.008994473856533514
254.869,0.004287811019629051,-0.004287811019629051
254.87,0.019940137087070764,-0.019940137087070764
254.871,0.03459688340385214,-0.03459688340385214
254.872,0.0450186995732641,-0.0450186995732641
254.873,0.04892061673190662,-0.04892061673190662
254.874,0.045531156063319145,-0.045531156063319145
254.875,0.03574091727483808,-0.03574091727483808
254.876,0.021815256600015376,-0.021815256600015376
254.877,0.006763385306208125,-0.006763385306208125
254.878,0.006455994429959144,0.006455994429959144
254.879,0.015676091828612737,0.015676091828612737
254.88,0.020016002792074383,0.020016002792074383
254.881,0.020004542948680593,0.020004542948680593
254.882,0.017312333471039,0.017312333471039
254.883,0.014174436503643362,0.014174436503643362
254.884,0.012666479134706865,0.012666479134706865
254.885,0.014035011874413916,0.014035011874413916
254.886,0.018268871343738002,0.018268871343738002
254.887,0.024035977659015995,0.024035977659015995
254.888,0.029014258912144042,0.029014258912144042
254.889,0.03053957019001352,0.03053957019001352
254.89,0.02640415801295881,0.02640415801295881
254.891,0.015590183037116123,0.015590183037116123
254.892,0.0012709967413140344,-0.0012709967413140344
254.893,0.02186002960271305,-0.02186002960271305
254.894,0.042590914102470845,-0.042590914102470845
254.895,0.05940813832191061,-0.05940813832191061
254.896,0.06876689712939787,-0.06876689712939787
254.897,0.06854223220072209,-0.06854223220072209
254.898,0.0586188710428075,-0.0586188710428075
254.899,0.040989437584165844,-0.040989437584165844
254.9,0.019316984321444353,-0.019316984321444353
254.901,0.0019357154759096495,0.0019357154759096495
254.902,0.018584679294024298,0.018584679294024298
254.903,0.027723136872325194,0.027723136872325194
254.904,0.028370762268373095,0.028370762268373095
254.905,0.021601680781131005,0.021601680781131005
254.906,0.010127575507839826,0.010127575507839826
254.907,0.0025317272170126692,-0.0025317272170126692
254.908,0.013041214719235139,-0.013041214719235139
254.909,0.019116936196168277,-0.019116936196168277
254.91,0.020022192594284838,-0.020022192594284838
254.911,0.016570570388171446,-0.016570570388171446
254.912,0.010668114611228408,-0.010668114611228408
254.913,0.00456795501311269,-0.00456795501311269
254.914,9.257352579816747e-05,-9.257352579816747e-05
254.915,0.0019236678832121878,0.0019236678832121878
254.916,0.0018035622954744035,0.0018035622954744035
254.917,0.0007762323139477445,0.0007762323139477445
254.918,0.00041750590273292865,0.00041750590273292865
254.919,0.001992942755218996,0.001992942755218996
254.92,0.005940357853643441,0.005940357853643441
254.921,0.011672200000458988,0.011672200000458988
254.922,0.017760957182602066,0.017760957182602066
254.923,0.02243455373790959,0.02243455373790959
254.924,0.024201004904967904,0.024201004904967904
254.925,0.022379238660979572,0.022379238660979572
254.926,0.01734946599006215,0.01734946599006215
254.927,0.010437547054355845,0.010437547054355845
254.928,0.0034769203582205588,0.0034769203582205588
254.929,0.0017968414474498484,-0.0017968414474498484
254.93,0.004308517587871319,-0.004308517587871319
254.931,0.003971475493708132,-0.003971475493708132
254.932,0.0016753042138869523,-0.0016753042138869523
254.933,0.001054026556318588,0.001054026556318588
254.934,0.002596997143799129,0.002596997143799129
254.935,0.0017972136812478556,0.0017972136812478556
254.936,0.001654296320129811,-0.001654296320129811
254.937,0.00712660987794167,-0.00712660987794167
254.938,0.01326323726347245,-0.01326323726347245
254.939,0.018414584040607807,-0.018414584040607807
254.94,0.021133481658775377,-0.021133481658775377
254.941,0.02057084806045706,-0.02057084806045706
254.942,0.01665812667312727,-0.01665812667312727
254.943,0.010048152055904369,-0.010048152055904369
254.944,0.0018725799045860025,-0.0018725799045860025
254.945,0.006570524370008712,0.006570524370008712
254.946,0.014079706154269234,0.014079706154269234
254.947,0.019687019124378313,0.019687019124378313
254.948,0.022661908180372947,0.022661908180372947
254.949,0.022441229806361873,0.022441229806361873
254.95,0.018578051272294616,0.018578051272294616
254.951,0.010788103007768113,0.010788103007768113
254.952,0.0008828531704266895,-0.0008828531704266895
254.953,0.015821359411580582,-0.015821359411580582
254.954,0.03264859949200971,-0.03264859949200971
254.955,0.049190169354974334,-0.049190169354974334
254.956,0.06270282482323453,-0.06270282482323453
254.957,0.07036408890005519,-0.07036408890005519
254.958,0.06992963243346806,-0.06992963243346806
254.959,0.06038268737440633,-0.06038268737440633
254.96,0.04237218250654062,-0.04237218250654062
254.961,0.0182770303480162,-0.0182770303480162
254.962,0.008165837774016804,0.008165837774016804
254.963,0.03260326589010143,0.03260326589010143
254.964,0.050995909599483635,0.050995909599483635
254.965,0.060492469559672024,0.060492469559672024
254.966,0.06001618789873464,0.06001618789873464
254.967,0.05041511602283366,0.05041511602283366
254.968,0.03415511708227448,0.03415511708227448
254.969,0.01466421685153052,0.01466421685153052
254.97,0.004472872611261169,-0.004472872611261169
254.971,0.020247494091094942,-0.020247494091094942
254.972,0.030710697086591243,-0.030710697086591243
254.973,0.03512718250639035,-0.03512718250639035
254.974,0.03382810921603352,-0.03382810921603352
254.975,0.027875826526780334,-0.027875826526780334
254.976,0.018687006768276948,-0.018687006768276948
254.977,0.007737255654228337,-0.007737255654228337
254.978,0.0035941240591479406,0.0035941240591479406
254.979,0.014055917497609594,0.014055917497609594
254.98,0.02250454232291954,0.02250454232291954
254.981,0.0279151776141906,0.0279151776141906
254.982,0.029476741658204908,0.029476741658204908
254.983,0.026763960663850783,0.026763960663850783
254.984,0.01992156163659109,0.01992156163659109
254.985,0.009766041192418085,0.009766041192418085
254.986,0.002274924348680152,-0.002274924348680152
254.987,0.014410011915705456,-0.014410011915705456
254.988,0.02486870678165176,-0.02486870678165176
254.989,0.032309825711973716,-0.032309825711973716
254.99,0.03611811376314722,-0.03611811376314722
254.991,0.036482497536975966,-0.036482497536975966
254.992,0.03422387045954156,-0.03422387045954156
254.993,0.03043245144590112,-0.03043245144590112
254.994,0.02604903034113093,-0.02604903034113093
254.995,0.021550065520431705,-0.021550065520431705
254.996,0.016860546680949495,-0.016860546680949495
254.997,0.011531510910899323,-0.011531510910899323
254.998,0.005112679726280822,-0.005112679726280822
254.999,0.0024340531031692425,0.0024340531031692425
255.0,0.010462670300069643,0.010462670300069643
255.001,0.017651723379893847,0.017651723379893847
255.002,0.022330358855533472,0.022330358855533472
255.003,0.023032860978729586,0.023032860978729586
255.004,0.019091533202561184,0.019091533202561184
255.005,0.011041441996417323,0.011041441996417323
255.006,0.0006579293984807499,0.0006579293984807499
255.007,0.009433094458951685,-0.009433094458951685
255.008,0.0164809036825444,-0.0164809036825444
255.009,0.018451298888339962,-0.018451298888339962
255.01,0.01470454071562688,-0.01470454071562688
255.011,0.006268506690341735,-0.006268506690341735
255.012,0.004408883330790259,0.004408883330790259
255.013,0.014171321452444596,0.014171321452444596
255.014,0.020112678546963414,0.020112678546963414
255.015,0.020474076285319054,0.020474076285319054
255.016,0.015183482555839456,0.015183482555839456
255.017,0.005856499549217187,0.005856499549217187
255.018,0.004743807913945575,-0.004743807913945575
255.019,0.013607812050698831,-0.013607812050698831
255.02,0.018438667963752153,-0.018438667963752153
255.021,0.018349268072261005,-0.018349268072261005
255.022,0.014068038193854049,-0.014068038193854049
255.023,0.007595666805535473,-0.007595666805535473
255.024,0.0014446884316376973,-0.0014446884316376973
255.025,0.002264029139072976,0.002264029139072976
255.026,0.002529206713324017,0.002529206713324017
255.027,0.00022924819853997747,-0.00022924819853997747
255.028,0.004390163522946189,-0.004390163522946189
255.029,0.007780752000421942,-0.007780752000421942
255.03,0.008512792086790788,-0.008512792086790788
255.031,0.005700132467148511,-0.005700132467148511
255.032,0.00019908948310143337,0.00019908948310143337
255.033,0.0075318033034106335,0.0075318033034106335
255.034,0.014027129194565058,0.014027129194565058
255.035,0.017583561644349155,0.017583561644349155
255.036,0.0169766534119824,0.0169766534119824
255.037,0.012233217766308258,0.012233217766308258
255.038,0.0045467854940959285,0.0045467854940959285
255.039,0.004217657003393049,-0.004217657003393049
255.04,0.012228624993887993,-0.012228624993887993
255.041,0.018326211705381956,-0.018326211705381956
255.042,0.022346834856154407,-0.022346834856154407
255.043,0.02501275218974708,-0.02501275218974708
255.044,0.027436645027044793,-0.027436645027044793
255.045,0.030446316423321296,-0.030446316423321296
255.046,0.03401250177467441,-0.03401250177467441
255.047,0.03703255845251119,-0.03703255845251119
255.048,0.03759305303617344,-0.03759305303617344
255.049,0.033651161682043074,-0.033651161682043074
255.05,0.023905579763206175,-0.023905579763206175
255.051,0.008536205872658464,-0.008536205872658464
255.052,0.010484766384729616,0.010484766384729616
255.053,0.02967353102986836,0.02967353102986836
255.054,0.044869690482235214,0.044869690482235214
255.055,0.05239067053059676,0.05239067053059676
255.056,0.05014638104765279,0.05014638104765279
255.057,0.038349861423588205,0.038349861423588205
255.058,0.019578415450142606,0.019578415450142606
255.059,0.0018559906855920572,-0.0018559906855920572
255.06,0.02104694656549866,-0.02104694656549866
255.061,0.03380060509142124,-0.03380060509142124
255.062,0.03771462161713468,-0.03771462161713468
255.063,0.03271214800084643,-0.03271214800084643
255.064,0.020893269815225435,-0.020893269815225435
255.065,0.005785094381664191,-0.005785094381664191
255.066,0.00874385601682115,0.00874385601682115
255.067,0.019549617658347174,0.019549617658347174
255.068,0.024935229968613415,0.024935229968613415
255.069,0.024842345502768426,0.024842345502768426
255.07,0.02051498431717369,0.02051498431717369
255.071,0.013814458975821564,0.013814458975821564
255.072,0.006466216905954392,0.006466216905954392
255.073,0.00048466618918951987,-0.00048466618918951987
255.074,0.0068350211023076035,-0.0068350211023076035
255.075,0.012986587378580272,-0.012986587378580272
255.076,0.01944954186302439,-0.01944954186302439
255.077,0.02631955288470411,-0.02631955288470411
255.078,0.03296231411065398,-0.03296231411065398
255.079,0.03805034475746816,-0.03805034475746816
255.08,0.03995349015247274,-0.03995349015247274
255.081,0.037341996751180884,-0.037341996751180884
255.082,0.0297727123752346,-0.0297727123752346
255.083,0.018027287712370277,-0.018027287712370277
255.084,0.00405623453419357,-0.00405623453419357
255.085,0.009477398605096443,0.009477398605096443
255.086,0.019917423294514514,0.019917423294514514
255.087,0.02536432731555105,0.02536432731555105
255.088,0.025209392000440145,0.025209392000440145
255.089,0.020279187099772722,0.020279187099772722
255.09,0.01254761427264639,0.01254761427264639
255.091,0.004515734661086235,0.004515734661086235
255.092,0.001535149912796574,-0.001535149912796574
255.093,0.004179166659723621,-0.004179166659723621
255.094,0.0031805976791673407,-0.0031805976791673407
255.095,0.0005533608560399639,0.0005533608560399639
255.096,0.005354312833411257,0.005354312833411257
255.097,0.009358245329434967,0.009358245329434967
255.098,0.011060285398835967,0.011060285398835967
255.099,0.009689468196525386,0.009689468196525386
255.1,0.005314642362481026,0.005314642362481026
255.101,0.001305706189141831,-0.001305706189141831
255.102,0.009032439884073096,-0.009032439884073096
255.103,0.016678088994406037,-0.016678088994406037
255.104,0.02324457863268048,-0.02324457863268048
255.105,0.028009235442188474,-0.028009235442188474
255.106,0.03047767100620835,-0.03047767100620835
255.107,0.030280547878439146,-0.030280547878439146
255.108,0.0271090347761489,-0.0271090347761489
255.109,0.02075545424331815,-0.02075545424331815
255.11,0.011265061067566418,-0.011265061067566418
255.111,0.0008608948775830072,0.0008608948775830072
255.112,0.014512642585912783,0.014512642585912783
255.113,0.027970654144398255,0.027970654144398255
255.114,0.039110631965615816,0.039110631965615816
255.115,0.04579559695645408,0.04579559695645408
255.116,0.046361919594527734,0.046361919594527734
255.117,0.04006102868815242,0.04006102868815242
255.118,0.027320629108249728,0.027320629108249728
255.119,0.009739090831564878,0.009739090831564878
255.12,0.010193176774068724,-0.010193176774068724
255.121,0.02956971352439286,-0.02956971352439286
255.122,0.04561105718480429,-0.04561105718480429
255.123,0.05613525657363172,-0.05613525657363172
255.124,0.059853119056546444,-0.059853119056546444
255.125,0.05645206921313628,-0.05645206921313628
255.126,0.0465020316630691,-0.0465020316630691
255.127,0.031262774306657914,-0.031262774306657914
255.128,0.012479016770226004,-0.012479016770226004
255.129,0.0077815343512208646,0.0077815343512208646
255.13,0.027244109664597005,0.027244109664597005
255.131,0.043540824164696845,0.043540824164696845
255.132,0.05438545028014419,0.05438545028014419
255.133,0.05785087204208628,0.05785087204208628
255.134,0.05273676585418419,0.05273676585418419
255.135,0.038949442500103126,0.038949442500103126
255.136,0.01776827593572916,0.01776827593572916
255.137,0.008131330582211382,-0.008131330582211382
255.138,0.03498012362664138,-0.03498012362664138
255.139,0.05853334930930876,-0.05853334930930876
255.14,0.07489178786609818,-0.07489178786609818
255.141,0.08133037732357895,-0.08133037732357895
255.142,0.07691239081889023,-0.07691239081889023
255.143,0.06270949785712898,-0.06270949785712898
255.144,0.04155082259753706,-0.04155082259753706
255.145,0.017356857520230418,-0.017356857520230418
255.146,0.0057653700572306565,0.0057653700572306565
255.147,0.02442065768724433,0.02442065768724433
255.148,0.03657824316635061,0.03657824316635061
255.149,0.04181849804706639,0.04181849804706639
255.15,0.04113977375717903,0.04113977375717903
255.151,0.0364234088669797,0.0364234088669797
255.152,0.029749811770785062,0.029749811770785062
255.153,0.02278706231114902,0.02278706231114902
255.154,0.01642940642352264,0.01642940642352264
255.155,0.010764783979786197,0.010764783979786197
255.156,0.005334105073525386,0.005334105073525386
255.157,0.0004491877608819861,-0.0004491877608819861
255.158,0.006892008995288745,-0.006892008995288745
255.159,0.01377751807368488,-0.01377751807368488
255.16,0.020361219191908808,-0.020361219191908808
255.161,0.025589725131797914,-0.025589725131797914
255.162,0.028444030549119592,-0.028444030549119592
255.163,0.028270968681802455,-0.028270968681802455
255.164,0.024981826829557185,-0.024981826829557185
255.165,0.01905648002173943,-0.01905648002173943
255.166,0.011369561067515077,-0.011369561067515077
255.167,0.0029211476775181655,-0.0029211476775181655
255.168,0.005416452687309281,0.005416452687309281
255.169,0.013041239350540135,0.013041239350540135
255.17,0.019612780361239812,0.019612780361239812
255.171,0.02491930966316569,0.02491930966316569
255.172,0.02870130409672833,0.02870130409672833
255.173,0.030530081426807465,0.030530081426807465
255.174,0.02981546768289034,0.02981546768289034
255.175,0.02596004826348519,0.02596004826348519
255.176,0.018612051856916834,0.018612051856916834
255.177,0.007921117929689414,0.007921117929689414
255.178,0.005309376577977809,-0.005309376577977809
255.179,0.019648270966496018,-0.019648270966496018
255.18,0.03325388864141143,-0.03325388864141143
255.181,0.04422719438234679,-0.04422719438234679
255.182,0.050996607029131225,-0.050996607029131225
255.183,0.052619711378454004,-0.052619711378454004
255.184,0.04891857934969035,-0.04891857934969035
255.185,0.04042622215284708,-0.04042622215284708
255.186,0.028187871221679095,-0.028187871221679095
255.187,0.013506476465879214,-0.013506476465879214
255.188,0.0022704703749214517,0.0022704703749214517
255.189,0.017858076914144982,0.017858076914144982
255.19,0.032028810829775045,0.032028810829775045
255.191,0.04354793885054864,0.04354793885054864
255.192,0.051137330189840124,0.051137330189840124
255.193,0.05354891613950841,0.05354891613950841
255.194,0.049781915174802016,0.049781915174802016
255.195,0.0394072460793089,0.0394072460793089
255.196,0.02289653323225993,0.02289653323225993
255.197,0.0018201392681316264,0.0018201392681316264
255.198,0.021203870351021226,-0.021203870351021226
255.199,0.042861042414092165,-0.042861042414092165
255.2,0.05974716044536443,-0.05974716044536443
255.201,0.06909240516504234,-0.06909240516504234
255.202,0.06940957978939699,-0.06940957978939699
255.203,0.06087678080895054,-0.06087678080895054
255.204,0.04533084563935097,-0.04533084563935097
255.205,0.025856973436047093,-0.025856973436047093
255.206,0.006077642125516647,-0.006077642125516647
255.207,0.01066788917718342,0.01066788917718342
255.208,0.022032408282141258,0.022032408282141258
255.209,0.027074838255784606,0.027074838255784606
255.21,0.026289213381339493,0.026289213381339493
255.211,0.02127455440929693,0.02127455440929693
255.212,0.014173696871583319,0.014173696871583319
255.213,0.007064849401793527,0.007064849401793527
255.214,0.0014838089799968923,0.0014838089799968923
255.215,0.0018066409860381105,-0.0018066409860381105
255.216,0.0027762745838050273,-0.0027762745838050273
255.217,0.001882599634291715,-0.001882599634291715
255.218,0.0002535394790206258,0.0002535394790206258
255.219,0.003118539701969958,0.003118539701969958
255.22,0.006428890677751875,0.006428890677751875
255.221,0.010081763966915513,0.010081763966915513
255.222,0.013980647263489132,0.013980647263489132
255.223,0.01783139980710069,0.01783139980710069
255.224,0.021012624157289883,0.021012624157289883
255.225,0.02259280987416279,0.02259280987416279
255.226,0.02150926257444552,0.02150926257444552
255.227,0.016862572100154294,0.016862572100154294
255.228,0.008237072185945493,0.008237072185945493
255.229,0.0040539783396775775,-0.0040539783396775775
255.23,0.018878481901748345,-0.018878481901748345
255.231,0.03438647869634448,-0.03438647869634448
255.232,0.048286488619139756,-0.048286488619139756
255.233,0.058239738892740145,-0.058239738892740145
255.234,0.062292036302923126,-0.062292036302923126
255.235,0.05926109307313954,-0.05926109307313954
255.236,0.04901064032624891,-0.04901064032624891
255.237,0.032563534911573155,-0.032563534911573155
255.238,0.012028011129719407,-0.012028011129719407
255.239,0.00966738598193495,0.00966738598193495
255.24,0.02921125417487147,0.02921125417487147
255.241,0.043471435235237,0.043471435235237
255.242,0.050100064489442486,0.050100064489442486
255.243,0.04806774182870455,0.04806774182870455
255.244,0.03799595490214425,0.03799595490214425
255.245,0.022169888068022114,0.022169888068022114
255.246,0.00416622998329097,0.00416622998329097
255.247,0.011880478399141303,-0.011880478399141303
255.248,0.022242715637051047,-0.022242715637051047
255.249,0.024572803201054594,-0.024572803201054594
255.25,0.018616165396246442,-0.018616165396246442
255.251,0.006428103681538788,-0.006428103681538788
255.252,0.008032257876284588,0.008032257876284588
255.253,0.019888497396896465,0.019888497396896465
255.254,0.024690563270299837,0.024690563270299837
255.255,0.019756472813771353,0.019756472813771353
255.256,0.005112875208103329,0.005112875208103329
255.257,0.016283921195643924,-0.016283921195643924
255.258,0.03917551136015529,-0.03917551136015529
255.259,0.05735836093725666,-0.05735836093725666
255.26,0.06541806424030217,-0.06541806424030217
255.261,0.060347193278635025,-0.060347193278635025
255.262,0.04255529824575088,-0.04255529824575088
255.263,0.015935267432202527,-0.015935267432202527
255.264,0.013080423105800376,0.013080423105800376
255.265,0.03723608463779571,0.03723608463779571
255.266,0.050460326657640886,0.050460326657640886
255.267,0.04957895959260705,0.04957895959260705
255.268,0.035221151999152545,0.035221151999152545
255.269,0.011640428938400005,0.011640428938400005
255.27,0.014503785977437067,-0.014503785977437067
255.271,0.036044298687330834,-0.036044298687330834
255.272,0.047319156170607224,-0.047319156170607224
255.273,0.04570415820672402,-0.04570415820672402
255.274,0.03222311871726602,-0.03222311871726602
255.275,0.011082648982226884,-0.011082648982226884
255.276,0.011690933197655573,0.011690933197655573
255.277,0.03006730419687753,0.03006730419687753
255.278,0.03971442693129257,0.03971442693129257
255.279,0.03908227424792643,0.03908227424792643
255.28,0.029580239347585247,0.029580239347585247
255.281,0.014859022810078226,0.014859022810078226
255.282,0.0005122733089567566,-0.0005122733089567566
255.283,0.012511932517342172,-0.012511932517342172
255.284,0.01880071669715,-0.01880071669715
255.285,0.01919611387224396,-0.01919611387224396
255.286,0.015397929209185035,-0.015397929209185035
255.287,0.010131796599685328,-0.010131796599685328
255.288,0.006057016072034127,-0.006057016072034127
255.289,0.004833840765542163,-0.004833840765542163
255.29,0.006654739904871976,-0.006654739904871976
255.291,0.01035504126062159,-0.01035504126062159
255.292,0.01400382558061497,-0.01400382558061497
255.293,0.015713930559695388,-0.015713930559695388
255.294,0.014354985803730957,-0.014354985803730957
255.295,0.009918115980184883,-0.009918115980184883
255.296,0.003433287618973435,-0.003433287618973435
255.297,0.0034825194269296755,0.0034825194269296755
255.298,0.009234773554392062,0.009234773554392062
255.299,0.012765934264510115,0.012765934264510115
255.3,0.013784451348957116,0.013784451348957116
255.301,0.012652338110045402,0.012652338110045402
255.302,0.010025097409767314,0.010025097409767314
255.303,0.006440132772868257,0.006440132772868257
255.304,0.002063087812643083,0.002063087812643083
255.305,0.003278849394048877,-0.003278849394048877
255.306,0.009787501058332704,-0.009787501058332704
255.307,0.017258644829567182,-0.017258644829567182
255.308,0.024750356988268662,-0.024750356988268662
255.309,0.030563377132750147,-0.030563377132750147
