Czas,AbsSum,Sum
25.471,0.16456750680268206,-0.16456750680268206
25.472,0.12052047827332135,-0.12052047827332135
25.473000000000003,0.056357332776882374,-0.056357332776882374
25.474,0.016314872929642954,0.016314872929642954
25.475,0.0844974467174846,0.0844974467174846
25.476000000000003,0.13692757713066217,0.13692757713066217
25.477,0.1665977249905206,0.1665977249905206
25.478,0.17199363524118905,0.17199363524118905
25.479000000000003,0.15678417406279355,0.15678417406279355
25.48,0.12816803005306743,0.12816803005306743
25.481,0.09446936882991408,0.09446936882991408
25.482000000000003,0.0627583129394429,0.0627583129394429
25.483,0.03720344987750046,0.03720344987750046
25.484,0.018576526853606223,0.018576526853606223
25.485000000000003,0.004927564010014374,0.004927564010014374
25.486,0.006931678315418188,-0.006931678315418188
25.487,0.01973331309513815,-0.01973331309513815
25.488000000000003,0.03446618220861686,-0.03446618220861686
25.489,0.04992516725070095,-0.04992516725070095
25.49,0.06320253816242605,-0.06320253816242605
25.491000000000003,0.07088555528122742,-0.07088555528122742
25.492,0.07048310197643315,-0.07048310197643315
25.493,0.06154102188540933,-0.06154102188540933
25.494000000000003,0.046035056733710666,-0.046035056733710666
25.495,0.027899147725912288,-0.027899147725912288
25.496,0.011856670053149498,-0.011856670053149498
25.497000000000003,0.0019638645173213343,-0.0019638645173213343
25.498,0.00036685208924536195,-0.00036685208924536195
25.499,0.0066893576132189825,-0.0066893576132189825
25.5,0.01824270874221401,-0.01824270874221401
25.501,0.030965404437796162,-0.030965404437796162
25.502,0.04075640125614188,-0.04075640125614188
25.503,0.04474623210462414,-0.04474623210462414
25.504,0.042089674542750144,-0.042089674542750144
25.505000000000003,0.034043138421313124,-0.034043138421313124
25.506,0.023342192986733235,-0.023342192986733235
25.507,0.013130403921901235,-0.013130403921901235
25.508000000000003,0.005830050517312446,-0.005830050517312446
25.509,0.002345037848373366,-0.002345037848373366
25.51,0.0018529500961904644,-0.0018529500961904644
25.511000000000003,0.002228578899883593,-0.002228578899883593
25.512,0.0009226286642151083,-0.0009226286642151083
25.513,0.004028561242606088,0.004028561242606088
25.514000000000003,0.013216757370268395,0.013216757370268395
25.515,0.025562142906507823,0.025562142906507823
25.516,0.03858781942598655,0.03858781942598655
25.517000000000003,0.04916058250447719,0.04916058250447719
25.518,0.05444147821885559,0.05444147821885559
25.519,0.05273487001241883,0.05273487001241883
25.520000000000003,0.04397570855715305,0.04397570855715305
25.521,0.02972676526808815,0.02972676526808815
25.522,0.012720638134466,0.012720638134466
25.523000000000003,0.0038811249206299747,-0.0038811249206299747
25.524,0.017270386368213986,-0.017270386368213986
25.525,0.025590142658808324,-0.025590142658808324
25.526000000000003,0.028206828371944548,-0.028206828371944548
25.527,0.025635248372147812,-0.025635248372147812
25.528,0.019202624261996704,-0.019202624261996704
25.529000000000003,0.010601248405587294,-0.010601248405587294
25.53,0.0014820336021079683,-0.0014820336021079683
25.531,0.006807731729786326,0.006807731729786326
25.532,0.013314006700412495,0.013314006700412495
25.533,0.017433713309304988,0.017433713309304988
25.534,0.01881964138952208,0.01881964138952208
25.535,0.017309626571735404,0.017309626571735404
25.536,0.012922192567478508,0.012922192567478508
25.537000000000003,0.005912751354973045,0.005912751354973045
25.538,0.0031542893033876807,-0.0031542893033876807
25.539,0.013375572141675285,-0.013375572141675285
25.540000000000003,0.02356359436456612,-0.02356359436456612
25.541,0.03239367378912694,-0.03239367378912694
25.542,0.03861227903641906,-0.03861227903641906
25.543000000000003,0.04125128177388104,-0.04125128177388104
25.544,0.039790928873939424,-0.039790928873939424
25.545,0.03423415413023134,-0.03423415413023134
25.546000000000003,0.02508580719679876,-0.02508580719679876
25.547,0.013258284345142313,-0.013258284345142313
25.548,6.131476861237495e-05,6.131476861237495e-05
25.549000000000003,0.013551304137509934,0.013551304137509934
25.55,0.025887466017703087,0.025887466017703087
25.551,0.03586826787309971,0.03586826787309971
25.552000000000003,0.04254084747784881,0.04254084747784881
25.553,0.04532687868487684,0.04532687868487684
25.554,0.044128384274741084,0.044128384274741084
25.555000000000003,0.03937565722341807,0.03937565722341807
25.556,0.03197617722760637,0.03197617722760637
25.557,0.023142964600326055,0.023142964600326055
25.558000000000003,0.014120807630800813,0.014120807630800813
25.559,0.005875465188367679,0.005875465188367679
25.56,0.0011562416908524886,-0.0011562416908524886
25.561000000000003,0.0071573323064340055,-0.0071573323064340055
25.562,0.012804805887624893,-0.012804805887624893
25.563,0.018941803563991888,-0.018941803563991888
25.564,0.026143446187969488,-0.026143446187969488
25.565,0.034329562723589335,-0.034329562723589335
25.566000000000003,0.04258447698549528,-0.04258447698549528
25.567,0.04928935286302927,-0.04928935286302927
25.568,0.052568401633391715,-0.052568401633391715
25.569000000000003,0.050929999821045624,-0.050929999821045624
25.57,0.04389176362227121,-0.04389176362227121
25.571,0.032353940074840715,-0.032353940074840715
25.572000000000003,0.018546084174209776,-0.018546084174209776
25.573,0.00550545742048858,-0.00550545742048858
25.574,0.0037894877996040854,0.0037894877996040854
25.575000000000003,0.007368426269372064,0.007368426269372064
25.576,0.0049803940530253055,0.0049803940530253055
25.577,0.0017032927830307187,-0.0017032927830307187
25.578000000000003,0.009512591559738492,-0.009512591559738492
25.579,0.01473914545957311,-0.01473914545957311
25.58,0.014350195330978144,-0.014350195330978144
25.581000000000003,0.007063009034989576,-0.007063009034989576
25.582,0.006093607842645232,0.006093607842645232
25.583,0.021953469769193656,0.021953469769193656
25.584000000000003,0.036108347065571866,0.036108347065571866
25.585,0.044264156219323336,0.044264156219323336
25.586,0.04362858770240452,0.04362858770240452
25.587000000000003,0.03387104678401531,0.03387104678401531
25.588,0.017322009362440216,0.017322009362440216
25.589,0.0016764680399975473,-0.0016764680399975473
25.590000000000003,0.018074844316728678,-0.018074844316728678
25.591,0.027656867366191662,-0.027656867366191662
25.592,0.02831333760671695,-0.02831333760671695
25.593000000000004,0.020630299551433695,-0.020630299551433695
25.594,0.0076028560034162584,-0.0076028560034162584
25.595,0.006417554437789352,0.006417554437789352
25.596,0.017173902767399607,0.017173902767399607
25.597,0.021851043128902292,0.021851043128902292
25.598000000000003,0.019861665094955683,0.019861665094955683
25.599,0.01281727824904011,0.01281727824904011
25.6,0.003725171272805916,0.003725171272805916
25.601000000000003,0.0042690643346972035,-0.0042690643346972035
25.602,0.00911195679568999,-0.00911195679568999
25.603,0.010578872695942487,-0.010578872695942487
25.604000000000003,0.01023834844027205,-0.01023834844027205
25.605,0.01065932465392505,-0.01065932465392505
25.606,0.014169180691349426,-0.014169180691349426
25.607000000000003,0.02165258613924581,-0.02165258613924581
25.608,0.031882011167355895,-0.031882011167355895
25.609,0.041684792559139594,-0.041684792559139594
25.610000000000003,0.0469425580789965,-0.0469425580789965
25.611,0.04409780848215883,-0.04409780848215883
25.612,0.03162886329298742,-0.03162886329298742
25.613000000000003,0.010931951777550242,-0.010931951777550242
25.614,0.013765735677469193,0.013765735677469193
25.615,0.03650509615749553,0.03650509615749553
25.616000000000003,0.05138393652017781,0.05138393652017781
25.617,0.05444750051690428,0.05444750051690428
25.618,0.045027028247568435,0.045027028247568435
25.619000000000003,0.026038749245424153,0.026038749245424153
25.62,0.0031023538999721545,0.0031023538999721545
25.621,0.017252738595363915,-0.017252738595363915
25.622000000000003,0.029697424857943577,-0.029697424857943577
25.623,0.031807078919922405,-0.031807078919922405
25.624,0.02476368568765519,-0.02476368568765519
25.625,0.01280048444885562,-0.01280048444885562
25.626,0.001573447424112584,-0.001573447424112584
25.627,0.003971316229808064,0.003971316229808064
25.628,0.0014740290102301934,0.0014740290102301934
25.629,0.007902895079374361,-0.007902895079374361
25.630000000000003,0.019841651653800252,-0.019841651653800252
25.631,0.028440078310789874,-0.028440078310789874
25.632,0.028450663448736924,-0.028450663448736924
25.633000000000003,0.01739294268655911,-0.01739294268655911
25.634,0.0032370997970503357,0.0032370997970503357
25.635,0.028140984619047238,0.028140984619047238
25.636000000000003,0.04977888094708782,0.04977888094708782
25.637,0.06082857251573737,0.06082857251573737
25.638,0.05671694030657415,0.05671694030657415
25.639000000000003,0.037342833626152316,0.037342833626152316
25.64,0.007361728542920831,0.007361728542920831
25.641,0.02511867426993819,-0.02511867426993819
25.642000000000003,0.051038451357128145,-0.051038451357128145
25.643,0.06326594986954803,-0.06326594986954803
25.644,0.05889406502965533,-0.05889406502965533
25.645000000000003,0.04016761715249073,-0.04016761715249073
25.646,0.013710766307437505,-0.013710766307437505
25.647,0.011701445289280521,0.011701445289280521
25.648000000000003,0.02808341158523997,0.02808341158523997
25.649,0.030896169168453724,0.030896169168453724
25.65,0.020514544968003312,0.020514544968003312
25.651000000000003,0.001998252264708844,0.001998252264708844
25.652,0.016759772600918654,-0.016759772600918654
25.653,0.027874704752948842,-0.027874704752948842
25.654000000000003,0.026320735524905325,-0.026320735524905325
25.655,0.011799088146423942,-0.011799088146423942
25.656,0.011039390533196247,0.011039390533196247
25.657,0.03411770551277127,0.03411770551277127
25.658,0.04870027688992695,0.04870027688992695
25.659,0.04846617489493399,0.04846617489493399
25.66,0.03183085266567853,0.03183085266567853
25.661,0.002701728345125387,0.002701728345125387
25.662000000000003,0.030623141791918274,-0.030623141791918274
25.663,0.058075512410008745,-0.058075512410008745
25.664,0.07109897795768017,-0.07109897795768017
25.665000000000003,0.06550142446901874,-0.06550142446901874
25.666,0.04291991093765857,-0.04291991093765857
25.667,0.01039622570149723,-0.01039622570149723
25.668000000000003,0.021812536654045367,0.021812536654045367
25.669,0.043478647733872666,0.043478647733872666
25.67,0.04764565015885225,0.04764565015885225
25.671000000000003,0.03281401551947849,0.03281401551947849
25.672,0.0033707938983582597,0.0033707938983582597
25.673,0.03185456045084101,-0.03185456045084101
25.674000000000003,0.06241223831221754,-0.06241223831221754
25.675,0.07949528832137853,-0.07949528832137853
25.676,0.07858356819971979,-0.07858356819971979
25.677000000000003,0.06063686344071173,-0.06063686344071173
25.678,0.0315036858033666,-0.0315036858033666
25.679,0.00019251344584003682,0.00019251344584003682
25.680000000000003,0.025936742936533586,0.025936742936533586
25.681,0.03999688466410367,0.03999688466410367
25.682,0.04101878504784917,0.04101878504784917
25.683000000000003,0.03206769148967625,0.03206769148967625
25.684,0.019183176257374646,0.019183176257374646
25.685,0.009013889804555975,0.009013889804555975
25.686000000000003,0.006387251964053986,0.006387251964053986
25.687,0.012655830988246741,0.012655830988246741
25.688,0.025360853023241203,0.025360853023241203
25.689,0.039276483042849364,0.039276483042849364
25.69,0.048415799424471606,0.048415799424471606
25.691000000000003,0.048257623858304344,0.048257623858304344
25.692,0.03739927540969035,0.03739927540969035
25.693,0.018065098070458196,0.018065098070458196
25.694000000000003,0.004681531385564375,-0.004681531385564375
25.695,0.024714767697702866,-0.024714767697702866
25.696,0.03696260129812112,-0.03696260129812112
25.697000000000003,0.03910886464677121,-0.03910886464677121
25.698,0.03228885093920708,-0.03228885093920708
25.699,0.020553097798776232,-0.020553097798776232
25.700000000000003,0.009312608831343883,-0.009312608831343883
25.701,0.003334493530707139,-0.003334493530707139
25.702,0.005006655788664771,-0.005006655788664771
25.703000000000003,0.013485009423088279,-0.013485009423088279
25.704,0.025017848343597437,-0.025017848343597437
25.705,0.034324363036054795,-0.034324363036054795
25.706000000000003,0.036535192666050875,-0.036535192666050875
25.707,0.029010185365357488,-0.029010185365357488
25.708,0.012396501161319518,-0.012396501161319518
25.709000000000003,0.009441575354665721,0.009441575354665721
25.71,0.03059765586680352,0.03059765586680352
25.711,0.045001211801245056,0.045001211801245056
25.712000000000003,0.0483619633976069,0.0483619633976069
25.713,0.03953124763563953,0.03953124763563953
25.714,0.02083947371278594,0.02083947371278594
25.715000000000003,0.0026777034597066374,-0.0026777034597066374
25.716,0.02487800363973902,-0.02487800363973902
25.717,0.04038376852968262,-0.04038376852968262
25.718000000000004,0.046104025537823,-0.046104025537823
25.719,0.0419297699977117,-0.0419297699977117
25.72,0.030426364077815515,-0.030426364077815515
25.721,0.015696365023727066,-0.015696365023727066
25.722,0.0018606972897837748,-0.0018606972897837748
25.723000000000003,0.008287114241924298,0.008287114241924298
25.724,0.013991498197835295,0.013991498197835295
25.725,0.01640066008097385,0.01640066008097385
25.726000000000003,0.0176962614813716,0.0176962614813716
25.727,0.01986380719051417,0.01986380719051417
25.728,0.02360409483458059,0.02360409483458059
25.729000000000003,0.027823355373991943,0.027823355373991943
25.73,0.029916383550996795,0.029916383550996795
25.731,0.02675553408073883,0.02675553408073883
25.732000000000003,0.016028303786480125,0.016028303786480125
25.733,0.002575438288223153,-0.002575438288223153
25.734,0.026787719630415374,-0.026787719630415374
25.735000000000003,0.05205491595969358,-0.05205491595969358
25.736,0.07265537378619791,-0.07265537378619791
25.737,0.08330888630794087,-0.08330888630794087
25.738000000000003,0.08076489229176553,-0.08076489229176553
25.739,0.06484949557624986,-0.06484949557624986
25.74,0.03862041574393804,-0.03862041574393804
25.741000000000003,0.00756636986230752,-0.00756636986230752
25.742,0.021904080214981914,0.021904080214981914
25.743,0.04421289118290539,0.04421289118290539
25.744000000000003,0.056061084153433915,0.056061084153433915
25.745,0.05714193606167517,0.05714193606167517
25.746,0.049930912613410205,0.049930912613410205
25.747000000000003,0.038663922022523556,0.038663922022523556
25.748,0.02786868083860683,0.02786868083860683
25.749,0.02093900457779685,0.02093900457779685
25.75,0.01920193345777066,0.01920193345777066
25.751,0.02174220642274638,0.02174220642274638
25.752,0.02598499822931344,0.02598499822931344
25.753,0.028787001780128607,0.028787001780128607
25.754,0.027631110398554926,0.027631110398554926
25.755000000000003,0.021508894570901438,0.021508894570901438
25.756,0.01120524168248882,0.01120524168248882
25.757,0.0010791949618232932,-0.0010791949618232932
25.758000000000003,0.012598735846189313,-0.012598735846189313
25.759,0.021092275671229843,-0.021092275671229843
25.76,0.02559412663445415,-0.02559412663445415
25.761000000000003,0.026737769137649692,-0.026737769137649692
25.762,0.02645106427862487,-0.02645106427862487
25.763,0.02715894814735398,-0.02715894814735398
25.764000000000003,0.030782359902327472,-0.030782359902327472
25.765,0.03789229175485476,-0.03789229175485476
25.766,0.047323894198296745,-0.047323894198296745
25.767000000000003,0.056398407508518544,-0.056398407508518544
25.768,0.06169517635610566,-0.06169517635610566
25.769,0.060131536497814886,-0.060131536497814886
25.770000000000003,0.05000537012400863,-0.05000537012400863
25.771,0.031665472259756244,-0.031665472259756244
25.772,0.0075924888635992005,-0.0075924888635992005
25.773000000000003,0.018142428406437094,0.018142428406437094
25.774,0.04088333911407438,0.04088333911407438
25.775,0.056564503808498756,0.056564503808498756
25.776000000000003,0.06271637563536414,0.06271637563536414
25.777,0.059024298982933265,0.059024298982933265
25.778,0.04730148614877461,0.04730148614877461
25.779000000000003,0.030911200276162898,0.030911200276162898
25.78,0.01382629990613804,0.01382629990613804
25.781,0.00039643322028470873,-0.00039643322028470873
25.782,0.00944586669763281,-0.00944586669763281
25.783,0.012684516049825234,-0.012684516049825234
25.784,0.011096505592064543,-0.011096505592064543
25.785,0.0068144259675554375,-0.0068144259675554375
25.786,0.0023921323030429154,-0.0023921323030429154
25.787000000000003,4.2280361827296e-05,-4.2280361827296e-05
25.788,0.0010447051554572928,-0.0010447051554572928
25.789,0.005465432292516059,-0.005465432292516059
25.790000000000003,0.012230324273311277,-0.012230324273311277
25.791,0.019500949438840176,-0.019500949438840176
25.792,0.025228175074192727,-0.025228175074192727
25.793000000000003,0.02772625964869113,-0.02772625964869113
25.794,0.02611976349715328,-0.02611976349715328
25.795,0.020559670135770203,-0.020559670135770203
25.796000000000003,0.012169188992891433,-0.012169188992891433
25.797,0.002747093950100088,-0.002747093950100088
25.798,0.005687820322425319,0.005687820322425319
25.799000000000003,0.011394231573282454,0.011394231573282454
25.8,0.013325226022978365,0.013325226022978365
25.801,0.011364343735225768,0.011364343735225768
25.802000000000003,0.006325245524399392,0.006325245524399392
25.803,0.00028240382491717675,-0.00028240382491717675
25.804,0.006659566608285261,-0.006659566608285261
25.805000000000003,0.011190350276156225,-0.011190350276156225
25.806,0.012854055802456688,-0.012854055802456688
25.807,0.011463614887506024,-0.011463614887506024
25.808000000000003,0.007662767868695242,-0.007662767868695242
25.809,0.002682123984763418,-0.002682123984763418
25.81,0.002073609289828804,0.002073609289828804
25.811000000000003,0.005480039575597617,0.005480039575597617
25.812,0.007043156011375951,0.007043156011375951
25.813,0.007025847946342534,0.007025847946342534
25.814,0.006299682516351712,0.006299682516351712
25.815,0.005961370521898379,0.005961370521898379
25.816000000000003,0.006838293172469756,0.006838293172469756
25.817,0.00905727701334147,0.00905727701334147
25.818,0.01184490742799249,0.01184490742799249
25.819000000000003,0.013662454037026928,0.013662454037026928
25.82,0.012670395643852084,0.012670395643852084
25.821,0.0073994935831973585,0.0073994935831973585
25.822000000000003,0.00258296303788752,-0.00258296303788752
25.823,0.016248332791239273,-0.016248332791239273
25.824,0.031106870256743413,-0.031106870256743413
25.825000000000003,0.043695735650519985,-0.043695735650519985
25.826,0.050462542566527824,-0.050462542566527824
25.827,0.048811846565833705,-0.048811846565833705
25.828000000000003,0.0380038549849282,-0.0380038549849282
25.829,0.019609672459698912,-0.019609672459698912
25.83,0.0026618071646182795,0.0026618071646182795
25.831000000000003,0.023772147156879697,0.023772147156879697
25.832,0.038610223067099936,0.038610223067099936
25.833,0.04336272765310922,0.04336272765310922
25.834000000000003,0.03660883450521113,0.03660883450521113
25.835,0.01981051110288723,0.01981051110288723
25.836,0.002967369640952011,-0.002967369640952011
25.837000000000003,0.026054778319635652,-0.026054778319635652
25.838,0.043630858748745505,-0.043630858748745505
25.839,0.051237317505449576,-0.051237317505449576
25.840000000000003,0.04693196345159012,-0.04693196345159012
25.841,0.03176437091938322,-0.03176437091938322
25.842,0.009448944262541281,-0.009448944262541281
25.843000000000004,0.01466149253214244,0.01466149253214244
25.844,0.03500391446791373,0.03500391446791373
25.845,0.04723298244607066,0.04723298244607066
25.846,0.04926047365882713,0.04926047365882713
25.847,0.04164266149224516,0.04164266149224516
25.848000000000003,0.02724628399782203,0.02724628399782203
25.849,0.010327722257181149,0.010327722257181149
25.85,0.004686192853024185,-0.004686192853024185
25.851000000000003,0.014365326442184356,-0.014365326442184356
25.852,0.017082350068095553,-0.017082350068095553
25.853,0.013273733305874003,-0.013273733305874003
25.854000000000003,0.00513673050840302,-0.00513673050840302
25.855,0.004102377293828896,0.004102377293828896
25.856,0.011113504786776751,0.011113504786776751
25.857000000000003,0.013322668724893516,0.013322668724893516
25.858,0.009497858015730776,0.009497858015730776
25.859,4.8662240930363865e-05,-4.8662240930363865e-05
25.860000000000003,0.013638372704814494,-0.013638372704814494
25.861,0.028689239107571374,-0.028689239107571374
25.862,0.04231750467112483,-0.04231750467112483
25.863000000000003,0.051929997321580434,-0.051929997321580434
25.864,0.055692135524711084,-0.055692135524711084
25.865,0.052807813836463824,-0.052807813836463824
25.866000000000003,0.04359624736877188,-0.04359624736877188
25.867,0.029385312650016093,-0.029385312650016093
25.868,0.012258567339265891,-0.012258567339265891
25.869000000000003,0.00530029688761835,0.00530029688761835
25.87,0.020817698605737123,0.020817698605737123
25.871,0.032239972033608844,0.032239972033608844
25.872000000000003,0.038278264301659704,0.038278264301659704
25.873,0.03862016784056688,0.03862016784056688
25.874,0.033951125229376045,0.033951125229376045
25.875,0.02576143635642647,0.02576143635642647
25.876,0.015966202493994164,0.015966202493994164
25.877,0.006422783893832218,0.006422783893832218
25.878,0.0015266185756731554,-0.0015266185756731554
25.879,0.007350461622449567,-0.007350461622449567
25.880000000000003,0.011360093896005896,-0.011360093896005896
25.881,0.014453131258482466,-0.014453131258482466
25.882,0.01763790230127349,-0.01763790230127349
25.883000000000003,0.021492822725378558,-0.021492822725378558
25.884,0.02575503940487578,-0.02575503940487578
25.885,0.029209331496502844,-0.029209331496502844
25.886000000000003,0.029961215171071975,-0.029961215171071975
25.887,0.02605059440979629,-0.02605059440979629
25.888,0.016234445675185727,-0.016234445675185727
25.889000000000003,0.0006837657306891787,-0.0006837657306891787
25.89,0.018664775982734083,0.018664775982734083
25.891,0.03827843156783195,0.03827843156783195
25.892000000000003,0.05374278212318928,0.05374278212318928
25.893,0.06086819668957144,0.06086819668957144
25.894,0.05689194740892911,0.05689194740892911
25.895000000000003,0.04141870184230623,0.04141870184230623
25.896,0.016790159893697254,0.016790159893697254
25.897,0.012276301186250449,-0.012276301186250449
25.898000000000003,0.03973116305092195,-0.03973116305092195
25.899,0.05966348719474257,-0.05966348719474257
25.9,0.06780493703296808,-0.06780493703296808
25.901000000000003,0.06264728533250719,-0.06264728533250719
25.902,0.0458521496705947,-0.0458521496705947
25.903,0.021827669476034317,-0.021827669476034317
25.904000000000003,0.003417547247579922,0.003417547247579922
25.905,0.023828177836310305,0.023828177836310305
25.906,0.03483605675961399,0.03483605675961399
25.907,0.03445896169637064,0.03445896169637064
25.908,0.02368079450496907,0.02368079450496907
25.909,0.006038938732514154,0.006038938732514154
25.91,0.013432536162403919,-0.013432536162403919
25.911,0.029584608978668547,-0.029584608978668547
25.912000000000003,0.03846999026084719,-0.03846999026084719
25.913,0.03824887290643908,-0.03824887290643908
25.914,0.02947662888715985,-0.02947662888715985
25.915000000000003,0.014752458015143799,-0.014752458015143799
25.916,0.002116514205778408,0.002116514205778408
25.917,0.017166357157545775,0.017166357157545775
25.918000000000003,0.02724636370006772,0.02724636370006772
25.919,0.030670534800300908,0.030670534800300908
25.92,0.027430027548485336,0.027430027548485336
25.921000000000003,0.01897916887332718,0.01897916887332718
25.922,0.007715640864236484,0.007715640864236484
25.923,0.003669021324699928,-0.003669021324699928
25.924000000000003,0.012795961960607283,-0.012795961960607283
25.925,0.018039084405147454,-0.018039084405147454
25.926,0.018744560464036386,-0.018744560464036386
25.927000000000003,0.015238531885604756,-0.015238531885604756
25.928,0.008670192537550192,-0.008670192537550192
25.929,0.0007473454218847042,-0.0007473454218847042
25.930000000000003,0.0065882738318319145,0.0065882738318319145
25.931,0.011512666143612904,0.011512666143612904
25.932,0.01266961845412684,0.01266961845412684
25.933000000000003,0.009480763735105535,0.009480763735105535
25.934,0.002359340224498574,0.002359340224498574
25.935,0.007240420079551835,-0.007240420079551835
25.936000000000003,0.01699653073533458,-0.01699653073533458
25.937,0.024133789656592408,-0.024133789656592408
25.938,0.026033592552892837,-0.026033592552892837
25.939,0.02092118546737054,-0.02092118546737054
25.94,0.008459567926866085,-0.008459567926866085
25.941000000000003,0.009930361305455992,0.009930361305455992
25.942,0.031157226923140158,0.031157226923140158
25.943,0.05099063872897758,0.05099063872897758
25.944000000000003,0.0649494180229937,0.0649494180229937
25.945,0.06934590835292509,0.06934590835292509
25.946,0.06222018177369537,0.06222018177369537
25.947000000000003,0.04390584957659005,0.04390584957659005
25.948,0.017054315028938838,0.017054315028938838
25.949,0.013914022195808728,-0.013914022195808728
25.950000000000003,0.04380478065294302,-0.04380478065294302
25.951,0.06783616685192662,-0.06783616685192662
25.952,0.0827046160118593,-0.0827046160118593
25.953000000000003,0.08724831590473692,-0.08724831590473692
25.954,0.0825399930888423,-0.0825399930888423
25.955,0.0714014183513324,-0.0714014183513324
25.956000000000003,0.05749399895495122,-0.05749399895495122
25.957,0.04425473407720382,-0.04425473407720382
25.958,0.03398148007323487,-0.03398148007323487
25.959000000000003,0.02731730425882739,-0.02731730425882739
25.96,0.023258933551438044,-0.023258933551438044
25.961,0.019657812085811743,-0.019657812085811743
25.962000000000003,0.014041203794908363,-0.014041203794908363
25.963,0.00449595222513699,-0.00449595222513699
25.964,0.009648585353145167,0.009648585353145167
25.965000000000003,0.02753112856426565,0.02753112856426565
25.966,0.04693208401867088,0.04693208401867088
25.967,0.06484264952115693,0.06484264952115693
25.968000000000004,0.07825155823997765,0.07825155823997765
25.969,0.0849183142001686,0.0849183142001686
25.97,0.08391743545168717,0.08391743545168717
25.971,0.07581411832321638,0.07581411832321638
25.972,0.0624424750347663,0.0624424750347663
25.973000000000003,0.04636955016304012,0.04636955016304012
25.974,0.03021019428517291,0.03021019428517291
25.975,0.015988817607652805,0.015988817607652805
25.976000000000003,0.0047189642959180045,0.0047189642959180045
25.977,0.003698813904658649,-0.003698813904658649
25.978,0.01025398318078996,-0.01025398318078996
25.979000000000003,0.01636127237040974,-0.01636127237040974
25.98,0.023300093040855563,-0.023300093040855563
25.981,0.031724126295609945,-0.031724126295609945
25.982000000000003,0.04138137021284194,-0.04138137021284194
25.983,0.05112228412458464,-0.05112228412458464
25.984,0.05919179264519081,-0.05919179264519081
25.985000000000003,0.06372173021925076,-0.06372173021925076
25.986,0.06328442702862813,-0.06328442702862813
25.987,0.0573499690315139,-0.0573499690315139
25.988000000000003,0.046514041602210066,-0.046514041602210066
25.989,0.032424249549795725,-0.032424249549795725
25.99,0.01741493858074461,-0.01741493858074461
25.991000000000003,0.00394237775882178,-0.00394237775882178
25.992,0.006028557849885319,0.006028557849885319
25.993,0.01151564963229168,0.01151564963229168
25.994000000000003,0.012745833636613746,0.012745833636613746
25.995,0.011044043483606325,0.011044043483606325
25.996,0.008405784677729011,0.008405784677729011
25.997000000000003,0.006867803561692254,0.006867803561692254
25.998,0.007855666608605594,0.007855666608605594
25.999,0.011702219053083773,0.011702219053083773
26.0,0.017489175024274273,0.017489175024274273
26.001,0.02327451308723627,0.02327451308723627
26.002,0.026655066776252623,0.026655066776252623
26.003,0.025509726906443042,0.025509726906443042
26.004,0.01870629019541936,0.01870629019541936
26.005000000000003,0.006555602418206741,0.006555602418206741
26.006,0.009136655632201562,-0.009136655632201562
26.007,0.025454747812351797,-0.025454747812351797
26.008000000000003,0.039097735096158104,-0.039097735096158104
26.009,0.04724182942682731,-0.04724182942682731
26.01,0.04829013010073424,-0.04829013010073424
26.011000000000003,0.042287449599846316,-0.042287449599846316
26.012,0.030874797853172486,-0.030874797853172486
26.013,0.016795604200292247,-0.016795604200292247
26.014000000000003,0.0031018074723663247,-0.0031018074723663247
26.015,0.0077001922616670715,0.0077001922616670715
26.016,0.01430566885404816,0.01430566885404816
26.017000000000003,0.01687412799548116,0.01687412799548116
26.018,0.01682649105113132,0.01682649105113132
26.019,0.01625155786905763,0.01625155786905763
26.020000000000003,0.01711890168334107,0.01711890168334107
26.021,0.02055472829608429,0.02055472829608429
26.022,0.026414466927332958,0.026414466927332958
26.023000000000003,0.033288396598068815,0.033288396598068815
26.024,0.03893605128330124,0.03893605128330124
26.025,0.041006995025163695,0.041006995025163695
26.026000000000003,0.03781437675123933,0.03781437675123933
26.027,0.02891253871840016,0.02891253871840016
26.028,0.015295027018267016,0.015295027018267016
26.029000000000003,0.0008472990502425004,-0.0008472990502425004
26.03,0.016727374542331197,-0.016727374542331197
26.031,0.02972878558310188,-0.02972878558310188
26.032,0.03809632075530789,-0.03809632075530789
26.033,0.04133829336496264,-0.04133829336496264
26.034,0.0402262204458822,-0.0402262204458822
26.035,0.03640932468734159,-0.03640932468734159
26.036,0.0317841253864759,-0.0317841253864759
26.037000000000003,0.027833624608306407,-0.027833624608306407
26.038,0.02515353899265982,-0.02515353899265982
26.039,0.023315641494181527,-0.023315641494181527
26.040000000000003,0.02110423841710063,-0.02110423841710063
26.041,0.017039131597996304,-0.017039131597996304
26.042,0.010006690670217644,-0.010006690670217644
26.043000000000003,0.00021177570083485975,0.00021177570083485975
26.044,0.012689893579942213,0.012689893579942213
26.045,0.02547029613297669,0.02547029613297669
26.046000000000003,0.03601487271249204,0.03601487271249204
26.047,0.041861016004246965,0.041861016004246965
26.048,0.04129407838789256,0.04129407838789256
26.049000000000003,0.03384512793815775,0.03384512793815775
26.05,0.0204775990852768,0.0204775990852768
26.051,0.003417095201311504,0.003417095201311504
26.052000000000003,0.014323385629907204,-0.014323385629907204
26.053,0.029593715976032886,-0.029593715976032886
26.054,0.039767349098337235,-0.039767349098337235
26.055000000000003,0.04325806939288901,-0.04325806939288901
26.056,0.03978733894156683,-0.03978733894156683
26.057,0.030366014090680404,-0.030366014090680404
26.058000000000003,0.017022606001100504,-0.017022606001100504
26.059,0.002360490094870382,-0.002360490094870382
26.06,0.010950575661503148,0.010950575661503148
26.061000000000003,0.020647326406646016,0.020647326406646016
26.062,0.02523254040071965,0.02523254040071965
26.063,0.02417597826634843,0.02417597826634843
26.064,0.017943163248377303,0.017943163248377303
26.065,0.007863874786341318,0.007863874786341318
26.066000000000003,0.004129770190484883,-0.004129770190484883
26.067,0.015853261759717352,-0.015853261759717352
26.068,0.025255851636013738,-0.025255851636013738
26.069000000000003,0.03078414587374423,-0.03078414587374423
26.07,0.03166197015922978,-0.03166197015922978
26.071,0.02803142341593312,-0.02803142341593312
26.072000000000003,0.02091808104427606,-0.02091808104427606
26.073,0.012013823711884197,-0.012013823711884197
26.074,0.0033096102828855667,-0.0033096102828855667
26.075000000000003,0.003350968618939909,0.003350968618939909
26.076,0.006699376426754444,0.006699376426754444
26.077,0.006347265840097149,0.006347265840097149
26.078000000000003,0.002885998175027771,0.002885998175027771
26.079,0.0022573211585631414,-0.0022573211585631414
26.08,0.0071851574295435094,-0.0071851574295435094
26.081000000000003,0.01003442898293816,-0.01003442898293816
26.082,0.009496473165118147,-0.009496473165118147
26.083,0.005215085583218371,-0.005215085583218371
26.084000000000003,0.002050972237765958,0.002050972237765958
26.085,0.010559118628534536,0.010559118628534536
26.086,0.017991252137075975,0.017991252137075975
26.087000000000003,0.02204787156268284,0.02204787156268284
26.088,0.02108165650771565,0.02108165650771565
26.089,0.014604718539977801,0.014604718539977801
26.090000000000003,0.0035270299771443803,0.0035270299771443803
26.091,0.009954230239031525,-0.009954230239031525
26.092,0.022807742491524174,-0.022807742491524174
26.093000000000004,0.03186670297866734,-0.03186670297866734
26.094,0.0346063959986046,-0.0346063959986046
26.095,0.029803997770853186,-0.029803997770853186
26.096,0.017904006430791264,-0.017904006430791264
26.097,0.0009805213387493739,-0.0009805213387493739
26.098000000000003,0.01771198956964848,0.01771198956964848
26.099,0.03449966630763224,0.03449966630763224
26.1,0.04617499576813078,0.04617499576813078
26.101000000000003,0.05077893885294649,0.05077893885294649
26.102,0.048069551090107465,0.048069551090107465
26.103,0.0395439920051881,0.0395439920051881
26.104000000000003,0.027997947990387573,0.027997947990387573
26.105,0.01673340218758601,0.01673340218758601
26.106,0.008627031900971138,0.008627031900971138
26.107000000000003,0.00531707566290418,0.00531707566290418
26.108,0.006740413022007896,0.006740413022007896
26.109,0.011158012530820383,0.011158012530820383
26.110000000000003,0.015670138569157555,0.015670138569157555
26.111,0.017081173959543117,0.017081173959543117
26.112,0.012869310376570242,0.012869310376570242
26.113000000000003,0.0019811138565164477,0.0019811138565164477
26.114,0.014782203116431969,-0.014782203116431969
26.115,0.03490296936386528,-0.03490296936386528
26.116000000000003,0.054772543980407096,-0.054772543980407096
26.117,0.07062336234880684,-0.07062336234880684
26.118,0.07949710465250637,-0.07949710465250637
26.119000000000003,0.07997091441783599,-0.07997091441783599
26.12,0.07244072799700163,-0.07244072799700163
26.121,0.05889849665649616,-0.05889849665649616
26.122000000000003,0.04229462747171164,-0.04229462747171164
26.123,0.02569898620233635,-0.02569898620233635
26.124,0.01152454205743303,-0.01152454205743303
26.125,0.001042013688179022,-0.001042013688179022
26.126,0.00569464332124392,0.00569464332124392
26.127,0.009535352794065144,0.009535352794065144
26.128,0.01168561973128801,0.01168561973128801
26.129,0.013144628932198144,0.013144628932198144
26.130000000000003,0.014339615927256855,0.014339615927256855
26.131,0.015078729580029204,0.015078729580029204
26.132,0.01481439625332337,0.01481439625332337
26.133000000000003,0.013085025291295072,0.013085025291295072
26.134,0.009931340746021755,0.009931340746021755
26.135,0.0060921952908761234,0.0060921952908761234
26.136000000000003,0.002871387150146454,0.002871387150146454
26.137,0.0017002647859076792,0.0017002647859076792
26.138,0.0035507205378588758,0.0035507205378588758
26.139000000000003,0.008429028555532847,0.008429028555532847
26.14,0.015170748595353167,0.015170748595353167
26.141,0.021659591689926927,0.021659591689926927
26.142000000000003,0.02544054953631658,0.02544054953631658
26.143,0.024544012592894404,0.024544012592894404
26.144,0.018240694556292736,0.018240694556292736
26.145000000000003,0.007446793513485428,0.007446793513485428
26.146,0.005398565165342983,-0.005398565165342983
26.147,0.016986868168067937,-0.016986868168067937
26.148000000000003,0.02414012967941026,-0.02414012967941026
26.149,0.024838362138767556,-0.024838362138767556
26.15,0.018926206351004837,-0.018926206351004837
26.151000000000003,0.00824144168464569,-0.00824144168464569
26.152,0.0039062743760358565,0.0039062743760358565
26.153,0.013758805616741254,0.013758805616741254
26.154000000000003,0.018309800877101656,0.018309800877101656
26.155,0.016284145611209055,0.016284145611209055
26.156,0.008560792706913345,0.008560792706913345
26.157,0.0021176151586252967,-0.0021176151586252967
26.158,0.012066692082599806,-0.012066692082599806
26.159,0.017915470153355595,-0.017915470153355595
26.16,0.017776349200047004,-0.017776349200047004
26.161,0.011931395136538514,-0.011931395136538514
26.162000000000003,0.002792516508291931,-0.002792516508291931
26.163,0.005866017498031617,0.005866017498031617
26.164,0.010159358325999124,0.010159358325999124
26.165000000000003,0.0074192557111489865,0.0074192557111489865
26.166,0.002841633187062098,-0.002841633187062098
26.167,0.018649233431109358,-0.018649233431109358
26.168000000000003,0.03606786073500845,-0.03606786073500845
26.169,0.050321513553703734,-0.050321513553703734
26.17,0.057177793442133584,-0.057177793442133584
26.171000000000003,0.054157487249613,-0.054157487249613
26.172,0.04120066513086129,-0.04120066513086129
26.173,0.020607559040019985,-0.020607559040019985
26.174000000000003,0.0036873089816402693,0.0036873089816402693
26.175,0.027239528284685344,0.027239528284685344
26.176,0.0462404458498773,0.0462404458498773
26.177000000000003,0.05833122661651413,0.05833122661651413
26.178,0.06287524931252442,0.06287524931252442
26.179,0.06068326868340712,0.06068326868340712
26.180000000000003,0.05337565401313871,0.05337565401313871
26.181,0.04267326729149534,0.04267326729149534
26.182,0.029898210739959907,0.029898210739959907
26.183000000000003,0.015847888473413896,0.015847888473413896
26.184,0.0010310067114802646,0.0010310067114802646
26.185,0.01390678555982594,-0.01390678555982594
26.186000000000003,0.02782274303539556,-0.02782274303539556
26.187,0.03900929954183907,-0.03900929954183907
26.188,0.04551748471407302,-0.04551748471407302
26.189,0.04579272757910391,-0.04579272757910391
26.19,0.039388953926966064,-0.039388953926966064
26.191000000000003,0.027458258609031505,-0.027458258609031505
26.192,0.012764171176265937,-0.012764171176265937
26.193,0.0008761049412775446,0.0008761049412775446
26.194000000000003,0.0096057407346255,0.0096057407346255
26.195,0.010699611461287395,0.010699611461287395
26.196,0.00350590921964522,0.00350590921964522
26.197000000000003,0.010182285390459067,-0.010182285390459067
26.198,0.026494206511973206,-0.026494206511973206
26.199,0.040515428233149575,-0.040515428233149575
26.200000000000003,0.04768976686520299,-0.04768976686520299
26.201,0.04515720943436141,-0.04515720943436141
26.202,0.03260611815462833,-0.03260611815462833
26.203000000000003,0.01237037693271037,-0.01237037693271037
26.204,0.011253893510412949,0.011253893510412949
26.205,0.03324521034521499,0.03324521034521499
26.206000000000003,0.04924631031845461,0.04924631031845461
26.207,0.056668615045219806,0.056668615045219806
26.208,0.05518451474856034,0.05518451474856034
26.209000000000003,0.04649765372145498,0.04649765372145498
26.21,0.033527240172224415,0.033527240172224415
26.211,0.019330430810083676,0.019330430810083676
26.212000000000003,0.006153137678008402,0.006153137678008402
26.213,0.005074738670785117,-0.005074738670785117
26.214,0.014666592211630247,-0.014666592211630247
26.215000000000003,0.02361707935339208,-0.02361707935339208
26.216,0.03281627489775052,-0.03281627489775052
26.217,0.04237530676076784,-0.04237530676076784
26.218000000000004,0.0513389152349113,-0.0513389152349113
26.219,0.05789769007411294,-0.05789769007411294
26.22,0.06001186220379351,-0.06001186220379351
26.221,0.05619701736499494,-0.05619701736499494
26.222,0.04616090103434656,-0.04616090103434656
26.223000000000003,0.031041072556806992,-0.031041072556806992
26.224,0.013149902105373035,-0.013149902105373035
26.225,0.0046760831833254635,0.0046760831833254635
26.226000000000003,0.019875923539716567,0.019875923539716567
26.227,0.030815835105861833,0.030815835105861833
26.228,0.03706268681138147,0.03706268681138147
26.229000000000003,0.03920652804638025,0.03920652804638025
26.23,0.03834305765155355,0.03834305765155355
26.231,0.03546273391944044,0.03546273391944044
26.232000000000003,0.03102529572359325,0.03102529572359325
26.233,0.024912141290422518,0.024912141290422518
26.234,0.016777623823261534,0.016777623823261534
26.235000000000003,0.00663315042120205,0.00663315042120205
26.236,0.0046264237195562385,-0.0046264237195562385
26.237,0.015049666497737868,-0.015049666497737868
26.238000000000003,0.02197923101228416,-0.02197923101228416
26.239,0.022883536452478315,-0.022883536452478315
26.24,0.016405885507287166,-0.016405885507287166
26.241000000000003,0.0032291448988480687,-0.0032291448988480687
26.242,0.013637252111452058,0.013637252111452058
26.243,0.029373865395335708,0.029373865395335708
26.244000000000003,0.03862027218735231,0.03862027218735231
26.245,0.03715434478774582,0.03715434478774582
26.246,0.02344320113193943,0.02344320113193943
26.247000000000003,0.0004921737455209074,-0.0004921737455209074
26.248,0.029276058457419096,-0.029276058457419096
26.249,0.05548626874603957,-0.05548626874603957
26.25,0.07174043174264821,-0.07174043174264821
26.251,0.07293820638506554,-0.07293820638506554
26.252,0.057939908643093396,-0.057939908643093396
26.253,0.03010373758062812,-0.03010373758062812
26.254,0.003550804226972515,0.003550804226972515
26.255000000000003,0.034344822930967744,0.034344822930967744
26.256,0.05450843888845425,0.05450843888845425
26.257,0.05951139194509225,0.05951139194509225
26.258000000000003,0.049406779516385946,0.049406779516385946
26.259,0.028743882103882346,0.028743882103882346
26.26,0.005064653785808115,0.005064653785808115
26.261000000000003,0.013539861137666365,-0.013539861137666365
26.262,0.02102664080888228,-0.02102664080888228
26.263,0.015311565150566975,-0.015311565150566975
26.264000000000003,0.0011217257001039371,0.0011217257001039371
26.265,0.02210283162462434,0.02210283162462434
26.266,0.03984377363738356,0.03984377363738356
26.267000000000003,0.047507136007194584,0.047507136007194584
26.268,0.04142751809523526,0.04142751809523526
26.269,0.022266177799528775,0.022266177799528775
26.270000000000003,0.005258262637199418,-0.005258262637199418
26.271,0.03394400074513937,-0.03394400074513937
26.272,0.05643790328482634,-0.05643790328482634
26.273000000000003,0.0675405335564796,-0.0675405335564796
26.274,0.06572970884451534,-0.06572970884451534
26.275,0.05342929191917578,-0.05342929191917578
26.276000000000003,0.03598217058965414,-0.03598217058965414
26.277,0.019719759974971995,-0.019719759974971995
26.278,0.009808151110290875,-0.009808151110290875
26.279000000000003,0.00859978014883167,-0.00859978014883167
26.28,0.015019923879091568,-0.015019923879091568
26.281,0.025145494720053008,-0.025145494720053008
26.282,0.03372250293814172,-0.03372250293814172
26.283,0.0360606049380523,-0.0360606049380523
26.284,0.02964059915124495,-0.02964059915124495
26.285,0.014901227830321662,-0.014901227830321662
26.286,0.005019147016981362,0.005019147016981362
26.287000000000003,0.025437350969524486,0.025437350969524486
26.288,0.04172429172215031,0.04172429172215031
26.289,0.050765158818951495,0.050765158818951495
26.290000000000003,0.05178016934209806,0.05178016934209806
26.291,0.04626173228515906,0.04626173228515906
26.292,0.03711631774014501,0.03711631774014501
26.293000000000003,0.027384809097994456,0.027384809097994456
26.294,0.019051827280882838,0.019051827280882838
26.295,0.012397529973075194,0.012397529973075194
26.296000000000003,0.006121469737100593,0.006121469737100593
26.297,0.0018357660686761923,-0.0018357660686761923
26.298,0.013116951656554354,-0.013116951656554354
26.299000000000003,0.027898299122464,-0.027898299122464
26.3,0.04439836560626409,-0.04439836560626409
26.301,0.059169171161338574,-0.059169171161338574
26.302000000000003,0.06809856504836531,-0.06809856504836531
26.303,0.06778284736051132,-0.06778284736051132
26.304,0.05678200445107873,-0.05678200445107873
26.305000000000003,0.036300054581733354,-0.036300054581733354
26.306,0.010028831416013406,-0.010028831416013406
26.307,0.01681579750591089,0.01681579750591089
26.308000000000003,0.03895515711746089,0.03895515711746089
26.309,0.05252471375490719,0.05252471375490719
26.31,0.05608270973068041,0.05608270973068041
26.311000000000003,0.05083217009339558,0.05083217009339558
26.312,0.040010879740958405,0.040010879740958405
26.313,0.027686319108683577,0.027686319108683577
26.314,0.017385356762836368,0.017385356762836368
26.315,0.011026607090476093,0.011026607090476093
26.316000000000003,0.008497986773777111,0.008497986773777111
26.317,0.007982433541002365,0.007982433541002365
26.318,0.00686924993502358,0.00686924993502358
26.319000000000003,0.0028917572089952603,0.0028917572089952603
26.32,0.004929097943926375,-0.004929097943926375
26.321,0.015864647259751452,-0.015864647259751452
26.322000000000003,0.027707371335017994,-0.027707371335017994
26.323,0.03753513040471257,-0.03753513040471257
26.324,0.042710779550387934,-0.042710779550387934
26.325000000000003,0.04174874159037312,-0.04174874159037312
26.326,0.03474922841308559,-0.03474922841308559
26.327,0.023275859218044315,-0.023275859218044315
26.328000000000003,0.00976383552932869,-0.00976383552932869
26.329,0.003286962897969703,0.003286962897969703
26.33,0.014017763645028714,0.014017763645028714
26.331000000000003,0.021562246541038332,0.021562246541038332
26.332,0.02594893006569432,0.02594893006569432
26.333,0.027649832871598612,0.027649832871598612
26.334000000000003,0.027015564277884208,0.027015564277884208
26.335,0.023879713249146173,0.023879713249146173
26.336,0.017538936520262505,0.017538936520262505
26.337000000000003,0.00714944415351737,0.00714944415351737
26.338,0.0076088098049760244,-0.0076088098049760244
26.339,0.025885814439943644,-0.025885814439943644
26.340000000000003,0.04534543287050785,-0.04534543287050785
26.341,0.06239213535552124,-0.06239213535552124
26.342,0.0729586850594296,-0.0729586850594296
26.343000000000004,0.07365361898053147,-0.07365361898053147
26.344,0.06290545613915666,-0.06290545613915666
26.345,0.041700578851367576,-0.041700578851367576
26.346,0.01361591773328652,-0.01361591773328652
26.347,0.015933668855373284,0.015933668855373284
26.348000000000003,0.04105241572635321,0.04105241572635321
26.349,0.05693114834896229,0.05693114834896229
26.35,0.061142715126404346,0.061142715126404346
26.351000000000003,0.05425369272986602,0.05425369272986602
26.352,0.03955157509806018,0.03955157509806018
26.353,0.021969166746808044,0.021969166746808044
26.354000000000003,0.006547811612049648,0.006547811612049648
26.355,0.003069467947347415,-0.003069467947347415
26.356,0.005636053679955899,-0.005636053679955899
26.357000000000003,0.0024827090560493037,-0.0024827090560493037
26.358,0.003154907076430513,0.003154907076430513
26.359,0.007416357662615614,0.007416357662615614
26.360000000000003,0.007260395541152986,0.007260395541152986
26.361,0.0015810068430828217,0.0015810068430828217
26.362,0.008379415896519582,-0.008379415896519582
26.363000000000003,0.019453655250829427,-0.019453655250829427
26.364,0.027660462272416475,-0.027660462272416475
26.365,0.02962237451654448,-0.02962237451654448
26.366000000000003,0.023808843932933144,-0.023808843932933144
26.367,0.011182784743684837,-0.011182784743684837
26.368,0.004972089333826979,0.004972089333826979
26.369000000000003,0.019994880682251193,0.019994880682251193
26.37,0.02926156892084575,0.02926156892084575
26.371,0.029617751426024297,0.029617751426024297
26.372000000000003,0.02037545965942833,0.02037545965942833
26.373,0.0035628290982048227,0.0035628290982048227
26.374,0.01664472346339374,-0.01664472346339374
26.375,0.03512633335123938,-0.03512633335123938
26.376,0.04727372924370721,-0.04727372924370721
26.377,0.05026136499434131,-0.05026136499434131
26.378,0.04375776557706079,-0.04375776557706079
26.379,0.029892043526068335,-0.029892043526068335
26.380000000000003,0.012522893222233766,-0.012522893222233766
26.381,0.003936029233442051,0.003936029233442051
26.382,0.0157633124069001,0.0157633124069001
26.383000000000003,0.0208817820987377,0.0208817820987377
26.384,0.019262154525601094,0.019262154525601094
26.385,0.012708073886579907,0.012708073886579907
26.386000000000003,0.004141757531523238,0.004141757531523238
26.387,0.003353280468098463,-0.003353280468098463
26.388,0.007428732513125702,-0.007428732513125702
26.389000000000003,0.00705268950841742,-0.00705268950841742
26.39,0.002642128417567058,-0.002642128417567058
26.391,0.00423818786975505,0.00423818786975505
26.392000000000003,0.011468136110116767,0.011468136110116767
26.393,0.01704482160575682,0.01704482160575682
26.394,0.01962797433216723,0.01962797433216723
26.395000000000003,0.018817135829302334,0.018817135829302334
26.396,0.015119752651179041,0.015119752651179041
26.397,0.009667399194590587,0.009667399194590587
26.398000000000003,0.00380306000884012,0.00380306000884012
26.399,0.0013199854202993189,-0.0013199854202993189
26.4,0.00501543226679424,-0.00501543226679424
26.401000000000003,0.007162528686214142,-0.007162528686214142
26.402,0.008133976545516397,-0.008133976545516397
26.403,0.00860815147057803,-0.00860815147057803
26.404000000000003,0.00933975823265587,-0.00933975823265587
26.405,0.01095436976812525,-0.01095436976812525
26.406,0.01380590571056095,-0.01380590571056095
26.407,0.017906507821972673,-0.017906507821972673
26.408,0.022917957771325104,-0.022917957771325104
26.409,0.028188400905716282,-0.028188400905716282
26.41,0.03282506005086061,-0.03282506005086061
26.411,0.03580419834455373,-0.03580419834455373
26.412000000000003,0.03612387930835159,-0.03612387930835159
26.413,0.03299692319323544,-0.03299692319323544
26.414,0.026061767498674282,-0.026061767498674282
26.415000000000003,0.015565721819181144,-0.015565721819181144
26.416,0.002460319535036448,-0.002460319535036448
26.417,0.011647156293991712,0.011647156293991712
26.418000000000003,0.02471392855136778,0.02471392855136778
26.419,0.03463493407466789,0.03463493407466789
26.42,0.039697949876003724,0.039697949876003724
26.421000000000003,0.03900992846946627,0.03900992846946627
26.422,0.03277294651233609,0.03277294651233609
26.423,0.022314411476340723,0.022314411476340723
26.424000000000003,0.009836043034398667,0.009836043034398667
26.425,0.002075711666420288,-0.002075711666420288
26.426,0.011061856276694981,-0.011061856276694981
26.427000000000003,0.015564884307440963,-0.015564884307440963
26.428,0.015204243000839113,-0.015204243000839113
26.429,0.01084145940511716,-0.01084145940511716
26.430000000000003,0.004308367563077065,-0.004308367563077065
26.431,0.0021305486519513916,0.0021305486519513916
26.432,0.006430176493339879,0.006430176493339879
26.433000000000003,0.007341846290032539,0.007341846290032539
26.434,0.004744583316230067,0.004744583316230067
26.435,0.0003691128287259815,-0.0003691128287259815
26.436000000000003,0.006248732156162395,-0.006248732156162395
26.437,0.010972845447943746,-0.010972845447943746
26.438,0.013084166806848208,-0.013084166806848208
26.439,0.012070506262690461,-0.012070506262690461
26.44,0.008534400626492356,-0.008534400626492356
26.441000000000003,0.003990371423029937,-0.003990371423029937
26.442,0.0003475115632940451,-0.0003475115632940451
26.443,0.0007605521579887586,0.0007605521579887586
26.444000000000003,0.001419745673824413,-0.001419745673824413
26.445,0.006428580059263833,-0.006428580059263833
26.446,0.012656990550984681,-0.012656990550984681
26.447000000000003,0.017810815501384414,-0.017810815501384414
26.448,0.019645350779878834,-0.019645350779878834
26.449,0.01674574799994244,-0.01674574799994244
26.450000000000003,0.009099781638474025,-0.009099781638474025
26.451,0.0017385935341693859,0.0017385935341693859
26.452,0.012977035706733142,0.012977035706733142
26.453000000000003,0.021333816359810465,0.021333816359810465
26.454,0.0239997584222833,0.0239997584222833
26.455,0.019525635639851435,0.019525635639851435
26.456000000000003,0.008355351624907748,0.008355351624907748
26.457,0.007178345287824239,-0.007178345287824239
26.458,0.023420322343223554,-0.023420322343223554
26.459000000000003,0.036373289672790965,-0.036373289672790965
26.46,0.04280986373824558,-0.04280986373824558
26.461,0.04118439782175287,-0.04118439782175287
26.462000000000003,0.0320646879196933,-0.0320646879196933
26.463,0.017945163535354913,-0.017945163535354913
26.464,0.002492019254016764,-0.002492019254016764
26.465000000000003,0.010551620129640726,0.010551620129640726
26.466,0.018462864210792906,0.018462864210792906
26.467,0.02029628267473882,0.02029628267473882
26.468000000000004,0.017063394110745422,0.017063394110745422
26.469,0.011279329677017058,0.011279329677017058
26.47,0.006025492509804664,0.006025492509804664
26.471,0.0038366175698709704,0.0038366175698709704
26.472,0.0057829222895042776,0.0057829222895042776
26.473000000000003,0.01106022914686089,0.01106022914686089
26.474,0.01723875216727966,0.01723875216727966
26.475,0.02110491797608205,0.02110491797608205
26.476000000000003,0.01982953886255112,0.01982953886255112
26.477,0.012076326668994275,0.012076326668994275
26.478,0.0013311396705447676,-0.0013311396705447676
26.479000000000003,0.01743563995898123,-0.01743563995898123
26.48,0.03189941723104195,-0.03189941723104195
26.481,0.04028028094047553,-0.04028028094047553
26.482000000000003,0.039446190729577335,-0.039446190729577335
26.483,0.02868044528166691,-0.02868044528166691
26.484,0.010107756395353107,-0.010107756395353107
26.485000000000003,0.011729447481155564,0.011729447481155564
26.486,0.031055039028101694,0.031055039028101694
26.487,0.042473731659795844,0.042473731659795844
26.488000000000003,0.042542070527637366,0.042542070527637366
26.489,0.03082107676048551,0.03082107676048551
26.49,0.010081641426600063,0.010081641426600063
26.491000000000003,0.014416596555708261,-0.014416596555708261
26.492,0.03637459605283888,-0.03637459605283888
26.493,0.05021292133274802,-0.05021292133274802
26.494000000000003,0.052626821530938894,-0.052626821530938894
26.495,0.04348342305134456,-0.04348342305134456
26.496,0.025803100916524935,-0.025803100916524935
26.497000000000003,0.004839395405219604,-0.004839395405219604
26.498,0.013462655352734387,0.013462655352734387
26.499,0.024171309270950347,0.024171309270950347
26.5,0.024738405625639892,0.024738405625639892
26.501,0.015646882488266067,0.015646882488266067
26.502,0.00016901850610828717,0.00016901850610828717
26.503,0.016666355934236043,-0.016666355934236043
26.504,0.029572136451837094,-0.029572136451837094
26.505000000000003,0.03451792942088616,-0.03451792942088616
26.506,0.029826623672986385,-0.029826623672986385
26.507,0.016558279126962394,-0.016558279126962394
26.508000000000003,0.0018925196467103333,0.0018925196467103333
26.509,0.02082908063116662,0.02082908063116662
26.51,0.0355861745044701,0.0355861745044701
26.511000000000003,0.042770610068198156,0.042770610068198156
26.512,0.041068288300611266,0.041068288300611266
26.513,0.031426174736748136,0.031426174736748136
26.514000000000003,0.016611027110427168,0.016611027110427168
26.515,0.0003238473603031089,0.0003238473603031089
26.516,0.013841337600926096,-0.013841337600926096
26.517000000000003,0.023290382866539727,-0.023290382866539727
26.518,0.026944470090819683,-0.026944470090819683
26.519,0.025282887520262864,-0.025282887520262864
26.520000000000003,0.0199647810518786,-0.0199647810518786
26.521,0.013195600628422177,-0.013195600628422177
26.522,0.007054459822387615,-0.007054459822387615
26.523000000000003,0.002977739489802289,-0.002977739489802289
26.524,0.0015174296413023036,-0.0015174296413023036
26.525,0.002391232609783245,-0.002391232609783245
26.526000000000003,0.004750755170897181,-0.004750755170897181
26.527,0.007541710230305254,-0.007541710230305254
26.528,0.009827338676948072,-0.009827338676948072
26.529000000000003,0.010986539160467546,-0.010986539160467546
26.53,0.010760943992662031,-0.010760943992662031
26.531,0.009184712028688313,-0.009184712028688313
26.532,0.006465863273018901,-0.006465863273018901
26.533,0.002888893318195529,-0.002888893318195529
26.534,0.0012204784997427165,0.0012204784997427165
26.535,0.005470766547801098,0.005470766547801098
26.536,0.009360328857145106,0.009360328857145106
26.537000000000003,0.012268743909540802,0.012268743909540802
26.538,0.013526677251373576,0.013526677251373576
26.539,0.012570891223405933,0.012570891223405933
26.540000000000003,0.009146835374066686,0.009146835374066686
26.541,0.0034876289950742656,0.0034876289950742656
26.542,0.0036096298187001663,-0.0036096298187001663
26.543000000000003,0.010865756827289075,-0.010865756827289075
26.544,0.016766389855706776,-0.016766389855706776
26.545,0.019923013249363408,-0.019923013249363408
26.546000000000003,0.019450979909025667,-0.019450979909025667
26.547,0.015250199978421475,-0.015250199978421475
26.548,0.008094112584879243,-0.008094112584879243
26.549000000000003,0.0005147572500205921,0.0005147572500205921
26.55,0.008694811618388032,0.008694811618388032
26.551,0.014648953778253038,0.014648953778253038
26.552000000000003,0.01711213003494061,0.01711213003494061
26.553,0.01565523062586749,0.01565523062586749
26.554,0.010759548009116271,0.010759548009116271
26.555000000000003,0.003644828680800849,0.003644828680800849
26.556,0.004091964986828955,-0.004091964986828955
26.557,0.010914426698256374,-0.010914426698256374
26.558000000000003,0.015728830903331104,-0.015728830903331104
26.559,0.018101174107988505,-0.018101174107988505
26.56,0.018256722100459366,-0.018256722100459366
26.561000000000003,0.016881795090640916,-0.016881795090640916
26.562,0.014810700375170738,-0.014810700375170738
26.563,0.012713982741648366,-0.012713982741648366
26.564,0.010896751072673627,-0.010896751072673627
26.565,0.009270889488274259,-0.009270889488274259
26.566000000000003,0.007498520415252452,-0.007498520415252452
26.567,0.005239724367091303,-0.005239724367091303
26.568,0.002398267787531938,-0.002398267787531938
26.569000000000003,0.0007405977479955084,0.0007405977479955084
26.57,0.0035457020284448415,0.0035457020284448415
26.571,0.005247444819914016,0.005247444819914016
26.572000000000003,0.005246314149160991,0.005246314149160991
26.573,0.0034052540574223134,0.0034052540574223134
26.574,0.000204126984917119,0.000204126984917119
26.575000000000003,0.003323951672118075,-0.003323951672118075
26.576,0.005879093325010132,-0.005879093325010132
26.577,0.006324328290310488,-0.006324328290310488
26.578000000000003,0.004116091114329201,-0.004116091114329201
26.579,0.00042349278768338827,0.00042349278768338827
26.58,0.006111694021058156,0.006111694021058156
26.581000000000003,0.01121975083316884,0.01121975083316884
26.582,0.0140213990754543,0.0140213990754543
26.583,0.013407832494222172,0.013407832494222172
26.584000000000003,0.009359066130948168,0.009359066130948168
26.585,0.0030882603024131594,0.0030882603024131594
26.586,0.003231377853270323,-0.003231377853270323
26.587000000000003,0.007113648518772608,-0.007113648518772608
26.588,0.006604098653070101,-0.006604098653070101
26.589,0.0010594877788013823,-0.0010594877788013823
26.590000000000003,0.0084082047784515,0.0084082047784515
26.591,0.019011638735689784,0.019011638735689784
26.592,0.026928701990319936,0.026928701990319936
26.593000000000004,0.02836313000680324,0.02836313000680324
26.594,0.020736446692128263,0.020736446692128263
26.595,0.003654073911508293,0.003654073911508293
26.596,0.020672638123965692,-0.020672638123965692
26.597,0.04772528659537112,-0.04772528659537112
26.598000000000003,0.07166891844791601,-0.07166891844791601
26.599,0.08679462752762768,-0.08679462752762768
26.6,0.08902542914725842,-0.08902542914725842
26.601000000000003,0.077057486922399,-0.077057486922399
26.602,0.052796848508089966,-0.052796848508089966
26.603,0.020945239789059822,-0.020945239789059822
26.604000000000003,0.012168164614779098,0.012168164614779098
26.605,0.0401912829601041,0.0401912829601041
26.606,0.05834161205148258,0.05834161205148258
26.607000000000003,0.06453910513407313,0.06453910513407313
26.608,0.05976581154942262,0.05976581154942262
26.609,0.047566366127297144,0.047566366127297144
26.610000000000003,0.032856326757972676,0.032856326757972676
26.611,0.020406605567888203,0.020406605567888203
26.612,0.013460612892055579,0.013460612892055579
26.613000000000003,0.012889855210509671,0.012889855210509671
26.614,0.01712038245448788,0.01712038245448788
26.615,0.022821365152682738,0.022821365152682738
26.616000000000003,0.026113585964882446,0.026113585964882446
26.617,0.023902076865213395,0.023902076865213395
26.618,0.014910055058519056,0.014910055058519056
26.619000000000003,9.698806613589461e-05,9.698806613589461e-05
26.62,0.017653529443306892,-0.017653529443306892
26.621,0.0344561206170545,-0.0344561206170545
26.622000000000003,0.04664522293061579,-0.04664522293061579
26.623,0.05189707486055528,-0.05189707486055528
26.624,0.049894551334356496,-0.049894551334356496
26.625000000000004,0.04233232779238871,-0.04233232779238871
26.626,0.032276972153015504,-0.032276972153015504
26.627,0.023105078034135307,-0.023105078034135307
26.628,0.017375549242440336,-0.017375549242440336
26.629,0.01600788964969324,-0.01600788964969324
26.630000000000003,0.01803333093671844,-0.01803333093671844
26.631,0.02099518621966101,-0.02099518621966101
26.632,0.02186133370967336,-0.02186133370967336
26.633000000000003,0.018144317677631694,-0.018144317677631694
26.634,0.008856824042182687,-0.008856824042182687
26.635,0.005016606168484872,0.005016606168484872
26.636000000000003,0.02069455932358233,0.02069455932358233
26.637,0.03437464133180401,0.03437464133180401
26.638,0.04237025845486242,0.04237025845486242
26.639000000000003,0.0422505021062054,0.0422505021062054
26.64,0.03362141514985861,0.03362141514985861
26.641,0.018297908405872754,0.018297908405872754
26.642000000000003,0.00019371250114375016,-0.00019371250114375016
26.643,0.017632483132503762,-0.017632483132503762
26.644,0.03032517322343775,-0.03032517322343775
26.645000000000003,0.036155299399909246,-0.036155299399909246
26.646,0.03513293818364027,-0.03513293818364027
26.647,0.029274949504964454,-0.029274949504964454
26.648000000000003,0.021854614353101987,-0.021854614353101987
26.649,0.016258001005242773,-0.016258001005242773
26.65,0.014809859678173165,-0.014809859678173165
26.651000000000003,0.017945071550928282,-0.017945071550928282
26.652,0.023997647994549842,-0.023997647994549842
26.653,0.029689039533617567,-0.029689039533617567
26.654000000000003,0.031178821634487153,-0.031178821634487153
26.655,0.02536067578804524,-0.02536067578804524
26.656,0.011000935919397992,-0.011000935919397992
26.657,0.010646316459358207,0.010646316459358207
26.658,0.03596348536526084,0.03596348536526084
26.659,0.059828791097831235,0.059828791097831235
26.66,0.0769817363875267,0.0769817363875267
26.661,0.08350430129298037,0.08350430129298037
26.662000000000003,0.07797945413313645,0.07797945413313645
26.663,0.061971074143074345,0.061971074143074345
26.664,0.03966071143331762,0.03966071143331762
26.665000000000003,0.016722058666925443,0.016722058666925443
26.666,0.0012584408389402224,-0.0012584408389402224
26.667,0.010364955223340688,-0.010364955223340688
26.668000000000003,0.009478242197184183,-0.009478242197184183
26.669,0.0006075058307525305,-0.0006075058307525305
26.67,0.011682268339362478,0.011682268339362478
26.671000000000003,0.021595155854152726,0.021595155854152726
26.672,0.02380713406095425,0.02380713406095425
26.673,0.015058184069287162,0.015058184069287162
26.674000000000003,0.004827059901908015,-0.004827059901908015
26.675,0.03278711734919293,-0.03278711734919293
26.676,0.06328517310767112,-0.06328517310767112
26.677000000000003,0.08976427128754838,-0.08976427128754838
26.678,0.10637649679530148,-0.10637649679530148
26.679,0.10949202956681214,-0.10949202956681214
26.680000000000003,0.09856658269028595,-0.09856658269028595
26.681,0.07614241581418124,-0.07614241581418124
26.682,0.04701797584708167,-0.04701797584708167
26.683000000000003,0.016864293587225965,-0.016864293587225965
26.684,0.009281572017374007,0.009281572017374007
26.685,0.028199559345401415,0.028199559345401415
26.686000000000003,0.03902127001074951,0.03902127001074951
26.687,0.0430092610553392,0.0430092610553392
26.688,0.04271631829236466,0.04271631829236466
26.689,0.040848773401877425,0.040848773401877425
26.69,0.03923361178821816,0.03923361178821816
26.691000000000003,0.03823051414835632,0.03823051414835632
26.692,0.036760535653896476,0.036760535653896476
26.693,0.03290275057082659,0.03290275057082659
26.694000000000003,0.02481474859040733,0.02481474859040733
26.695,0.011628388888986763,0.011628388888986763
26.696,0.0060075403300687835,-0.0060075403300687835
26.697000000000003,0.02593098947102701,-0.02593098947102701
26.698,0.045009614747911986,-0.045009614747911986
26.699,0.06002266859296446,-0.06002266859296446
26.700000000000003,0.06856394046683201,-0.06856394046683201
26.701,0.06964762769657495,-0.06964762769657495
26.702,0.06381505377821706,-0.06381505377821706
26.703000000000003,0.05272932007460007,-0.05272932007460007
26.704,0.03843723329323234,-0.03843723329323234
26.705,0.022601468339236153,-0.022601468339236153
26.706000000000003,0.006013718563167791,-0.006013718563167791
26.707,0.01141328274512099,0.01141328274512099
26.708,0.030170250029100565,0.030170250029100565
26.709000000000003,0.05038970762345807,0.05038970762345807
26.71,0.07112882244027907,0.07112882244027907
26.711,0.0900370760615754,0.0900370760615754
26.712000000000003,0.10362474328907068,0.10362474328907068
26.713,0.1081287124486261,0.1081287124486261
26.714,0.10073455869472214,0.10073455869472214
26.715000000000003,0.08074601914989388,0.08074601914989388
26.716,0.050262650742287196,0.050262650742287196
26.717,0.0140547765521859,0.0140547765521859
26.718000000000004,0.021423239960485563,-0.021423239960485563
26.719,0.049646558731351154,-0.049646558731351154
26.72,0.06579126386462364,-0.06579126386462364
26.721,0.06810609868005724,-0.06810609868005724
26.722,0.05842353829887326,-0.05842353829887326
26.723000000000003,0.0416073381457891,-0.0416073381457891
26.724,0.02407281561221608,-0.02407281561221608
26.725,0.011824114094936111,-0.011824114094936111
26.726000000000003,0.008623766402900745,-0.008623766402900745
26.727,0.014881419996845224,-0.014881419996845224
26.728,0.027624247544592917,-0.027624247544592917
26.729000000000003,0.041561932769126786,-0.041561932769126786
26.73,0.050899254166769436,-0.050899254166769436
26.731,0.05130026769150009,-0.05130026769150009
26.732000000000003,0.04135558525171967,-0.04135558525171967
26.733,0.023068452361703295,-0.023068452361703295
26.734,0.0012029271189600843,-0.0012029271189600843
26.735000000000003,0.018281174332184014,0.018281174332184014
26.736,0.03017581329911545,0.03017581329911545
26.737,0.031697536795390446,0.031697536795390446
26.738000000000003,0.023325105720672923,0.023325105720672923
26.739,0.008528790225919902,0.008528790225919902
26.74,0.007502137782860352,-0.007502137782860352
26.741000000000003,0.019685290217999807,-0.019685290217999807
26.742,0.024789291612746678,-0.024789291612746678
26.743,0.02249352204893773,-0.02249352204893773
26.744000000000003,0.015400972139614777,-0.015400972139614777
26.745,0.008006148010370473,-0.008006148010370473
26.746,0.004982521506931792,-0.004982521506931792
26.747000000000003,0.009389383965070386,-0.009389383965070386
26.748,0.02142518727889775,-0.02142518727889775
26.749,0.03816498682309821,-0.03816498682309821
26.750000000000004,0.0543800278354154,-0.0543800278354154
26.751,0.06416612813296885,-0.06416612813296885
26.752,0.06283286732943993,-0.06283286732943993
26.753,0.04842168078991682,-0.04842168078991682
26.754,0.022354639928734876,-0.022354639928734876
26.755000000000003,0.01098213131208814,0.01098213131208814
26.756,0.04555303774497821,0.04555303774497821
26.757,0.0754207796744868,0.0754207796744868
26.758000000000003,0.0963333227676153,0.0963333227676153
26.759,0.10663683497980392,0.10663683497980392
26.76,0.10725896621469277,0.10725896621469277
26.761000000000003,0.10084612971481088,0.10084612971481088
26.762,0.09043657680547712,0.09043657680547712
26.763,0.0782016796720919,0.0782016796720919
26.764000000000003,0.06473897416142327,0.06473897416142327
26.765,0.049172825072723025,0.049172825072723025
26.766,0.02999749939633567,0.02999749939633567
26.767000000000003,0.006302118152564207,0.006302118152564207
26.768,0.021142849685190424,-0.021142849685190424
26.769,0.04942155588710406,-0.04942155588710406
26.770000000000003,0.07389331634346341,-0.07389331634346341
26.771,0.08943075058547167,-0.08943075058547167
26.772,0.09209065806743466,-0.09209065806743466
26.773000000000003,0.08064236873672981,-0.08064236873672981
26.774,0.057387886068965055,-0.057387886068965055
26.775,0.027920185321433144,-0.027920185321433144
26.776000000000003,0.00018858095254192797,0.00018858095254192797
26.777,0.019415512586134165,0.019415512586134165
26.778,0.024424887176340837,0.024424887176340837
26.779000000000003,0.013651218404868493,0.013651218404868493
26.78,0.010175836301841268,-0.010175836301841268
26.781,0.04074086825272727,-0.04074086825272727
26.782,0.06987756638812948,-0.06987756638812948
26.783,0.08980421885125833,-0.08980421885125833
26.784,0.09519049019668013,-0.09519049019668013
26.785,0.08445653939848297,-0.08445653939848297
26.786,0.059962411739542865,-0.059962411739542865
26.787000000000003,0.0270995560083801,-0.0270995560083801
26.788,0.007371030143665136,0.007371030143665136
26.789,0.03718464875789862,0.03718464875789862
26.790000000000003,0.058075615195923636,0.058075615195923636
26.791,0.06851332971637825,0.06851332971637825
26.792,0.06954740355527922,0.06954740355527922
26.793000000000003,0.06393191982606106,0.06393191982606106
26.794,0.054909593454878225,0.054909593454878225
26.795,0.04510000304805728,0.04510000304805728
26.796000000000003,0.035843649328678895,0.035843649328678895
26.797,0.027151215454787492,0.027151215454787492
26.798,0.01817563459595606,0.01817563459595606
26.799000000000003,0.007947841065890637,0.007947841065890637
26.8,0.003946681744030345,-0.003946681744030345
26.801,0.017011806087302905,-0.017011806087302905
26.802000000000003,0.02991370617747957,-0.02991370617747957
26.803,0.04091304366957793,-0.04091304366957793
26.804,0.048452306208841445,-0.048452306208841445
26.805000000000003,0.05165189012484139,-0.05165189012484139
26.806,0.050527252986181326,-0.050527252986181326
26.807,0.04586843811403574,-0.04586843811403574
26.808000000000003,0.03886596280565946,-0.03886596280565946
26.809,0.03066470749254102,-0.03066470749254102
26.81,0.022042424498197488,-0.022042424498197488
26.811000000000003,0.013339510491520379,-0.013339510491520379
26.812,0.00464454254085489,-0.00464454254085489
26.813,0.0038805966907347056,0.0038805966907347056
26.814,0.011719194864039828,0.011719194864039828
26.815,0.01792902000514207,0.01792902000514207
26.816000000000003,0.021356366255976145,0.021356366255976145
26.817,0.02107644988844659,0.02107644988844659
26.818,0.01688637238425561,0.01688637238425561
26.819000000000003,0.009629009460902171,0.009629009460902171
26.82,0.0011704196851070048,0.0011704196851070048
26.821,0.006022699614851246,-0.006022699614851246
26.822000000000003,0.009601004560793935,-0.009601004560793935
26.823,0.008111287199230155,-0.008111287199230155
26.824,0.001553125311738457,-0.001553125311738457
26.825000000000003,0.008511361891303082,0.008511361891303082
26.826,0.019370707238394846,0.019370707238394846
26.827,0.027988873142233084,0.027988873142233084
26.828000000000003,0.031973355251861735,0.031973355251861735
26.829,0.03035276478616855,0.03035276478616855
26.83,0.02388456327142996,0.02388456327142996
26.831000000000003,0.014772992297938492,0.014772992297938492
26.832,0.00588633978357378,0.00588633978357378
26.833,0.00025408144359284623,-0.00025408144359284623
26.834000000000003,0.0023519331402367394,-0.0023519331402367394
26.835,0.0007604421685425411,-0.0007604421685425411
26.836,0.0027074811003791055,0.0027074811003791055
26.837000000000003,0.005522393113026158,0.005522393113026158
26.838,0.0054683767087517765,0.0054683767087517765
26.839,0.0015812971755699845,0.0015812971755699845
26.840000000000003,0.00535964427395097,-0.00535964427395097
26.841,0.012987563209426622,-0.012987563209426622
26.842,0.01811974579682729,-0.01811974579682729
26.843000000000004,0.01788876017400276,-0.01788876017400276
26.844,0.010837715977846996,-0.010837715977846996
26.845,0.002414102678097274,0.002414102678097274
26.846,0.01918621907010265,0.01918621907010265
26.847,0.03544853954582128,0.03544853954582128
26.848000000000003,0.047001446855383655,0.047001446855383655
26.849,0.05073057267047587,0.05073057267047587
26.85,0.045514836156193894,0.045514836156193894
26.851000000000003,0.032487481770941073,0.032487481770941073
26.852,0.014576731320067537,0.014576731320067537
26.853,0.004495962360881123,-0.004495962360881123
26.854000000000003,0.021396454742871662,-0.021396454742871662
26.855,0.034120320116865055,-0.034120320116865055
26.856,0.042377798643266185,-0.042377798643266185
26.857000000000003,0.04731418001513643,-0.04731418001513643
26.858,0.050707329185335825,-0.050707329185335825
26.859,0.053977886448023926,-0.053977886448023926
26.860000000000003,0.057414911328422136,-0.057414911328422136
26.861,0.05993503389115751,-0.05993503389115751
26.862,0.05948702267165362,-0.05948702267165362
26.863000000000003,0.05396167576312261,-0.05396167576312261
26.864,0.04226250094031636,-0.04226250094031636
26.865,0.025112964862407217,-0.025112964862407217
26.866000000000003,0.005253704712831153,-0.005253704712831153
26.867,0.013106559555187802,0.013106559555187802
26.868,0.025453130177137462,0.025453130177137462
26.869000000000003,0.028374958209809842,0.028374958209809842
26.87,0.020746401632033562,0.020746401632033562
26.871,0.004260869659244326,0.004260869659244326
26.872000000000003,0.01689909469555062,-0.01689909469555062
26.873,0.03718498200486575,-0.03718498200486575
26.874,0.05125986353326362,-0.05125986353326362
26.875000000000004,0.05553331182101362,-0.05553331182101362
26.876,0.04916446937217378,-0.04916446937217378
26.877,0.03421598634086742,-0.03421598634086742
26.878,0.014919293413880097,-0.014919293413880097
26.879,0.0036992759894867167,0.0036992759894867167
26.880000000000003,0.0173792752196833,0.0173792752196833
26.881,0.023872161686959492,0.023872161686959492
26.882,0.023488280231370284,0.023488280231370284
26.883000000000003,0.018801292411198434,0.018801292411198434
26.884,0.013646119680465807,0.013646119680465807
26.885,0.01176964903302058,0.01176964903302058
26.886000000000003,0.01558739069105175,0.01558739069105175
26.887,0.025438073442777043,0.025438073442777043
26.888,0.03954020477641862,0.03954020477641862
26.889000000000003,0.05461066620636723,0.05461066620636723
26.89,0.06689211388490746,0.06689211388490746
26.891,0.07322470152970806,0.07322470152970806
26.892000000000003,0.07181998438226689,0.07181998438226689
26.893,0.06253312808961797,0.06253312808961797
26.894,0.04662557794930189,0.04662557794930189
26.895000000000003,0.02618859908975435,0.02618859908975435
26.896,0.003494232866849467,0.003494232866849467
26.897,0.019475520579364636,-0.019475520579364636
26.898000000000003,0.04118355089440229,-0.04118355089440229
26.899,0.06039761571564117,-0.06039761571564117
26.9,0.07591370269033171,-0.07591370269033171
26.901000000000003,0.08635987272317558,-0.08635987272317558
26.902,0.09025454032324975,-0.09025454032324975
26.903,0.08636642486741308,-0.08636642486741308
26.904000000000003,0.07426628563143589,-0.07426628563143589
26.905,0.054840075418588485,-0.054840075418588485
26.906,0.03050364859162813,-0.03050364859162813
26.907,0.004940204576848073,-0.004940204576848073
26.908,0.017651000085516344,0.017651000085516344
26.909,0.03361281636424751,0.03361281636424751
26.91,0.04086865552150787,0.04086865552150787
26.911,0.03957916063364131,0.03957916063364131
26.912000000000003,0.032151661839538104,0.032151661839538104
26.913,0.022540183230279398,0.022540183230279398
26.914,0.015016648987238312,0.015016648987238312
26.915000000000003,0.012790935724909414,0.012790935724909414
26.916,0.016934761770933004,0.016934761770933004
26.917,0.025987431705355224,0.025987431705355224
26.918000000000003,0.036408819967369555,0.036408819967369555
26.919,0.04376420531255332,0.04376420531255332
26.92,0.0442710286175918,0.0442710286175918
26.921000000000003,0.03619832465460693,0.03619832465460693
26.922,0.020637794730400172,0.020637794730400172
26.923,0.0013576116549627315,0.0013576116549627315
26.924000000000003,0.016253782608819156,-0.016253782608819156
26.925,0.02684333040645348,-0.02684333040645348
26.926,0.026829136610095894,-0.026829136610095894
26.927000000000003,0.015654705374518185,-0.015654705374518185
26.928,0.003858597675205022,0.003858597675205022
26.929,0.02619965073042585,0.02619965073042585
26.930000000000003,0.04470437711176167,0.04470437711176167
26.931,0.05347724296154377,0.05347724296154377
26.932,0.049108755394252634,0.049108755394252634
26.933000000000003,0.031663505671297054,0.031663505671297054
26.934,0.004643322258509164,0.004643322258509164
26.935,0.026048553843477373,-0.026048553843477373
26.936000000000003,0.05380805928538557,-0.05380805928538557
26.937,0.07316480181824447,-0.07316480181824447
26.938,0.08119513290958003,-0.08119513290958003
26.939,0.07810954528210323,-0.07810954528210323
26.94,0.06688307625211087,-0.06688307625211087
26.941000000000003,0.052100575861296905,-0.052100575861296905
26.942,0.03842368652266104,-0.03842368652266104
26.943,0.029180478207680105,-0.029180478207680105
26.944000000000003,0.025507961995906436,-0.025507961995906436
26.945,0.026273112085930084,-0.026273112085930084
26.946,0.028733023689529902,-0.028733023689529902
26.947000000000003,0.02965930860678445,-0.02965930860678445
26.948,0.026521499196231035,-0.026521499196231035
26.949,0.018335997738476606,-0.018335997738476606
26.950000000000003,0.005928467903007162,-0.005928467903007162
26.951,0.008426864106981347,0.008426864106981347
26.952,0.021815217547159982,0.021815217547159982
26.953000000000003,0.03162385587016625,0.03162385587016625
26.954,0.03628731724602452,0.03628731724602452
26.955,0.03560110728177146,0.03560110728177146
26.956000000000003,0.0305430489645504,0.0305430489645504
26.957,0.022724452980434462,0.022724452980434462
26.958,0.013719562923204975,0.013719562923204975
26.959000000000003,0.00454820904873654,0.00454820904873654
26.96,0.00449218954220143,-0.00449218954220143
26.961,0.013600209142761832,-0.013600209142761832
26.962000000000003,0.022969314265873453,-0.022969314265873453
26.963,0.032247801299905565,-0.032247801299905565
26.964,0.04021902412269007,-0.04021902412269007
26.965000000000003,0.0448826346669412,-0.0448826346669412
26.966,0.04396511458592811,-0.04396511458592811
26.967,0.03571678728764527,-0.03571678728764527
26.968000000000004,0.01972560954338154,-0.01972560954338154
26.969,0.002556700164363379,0.002556700164363379
26.97,0.02780724956596381,0.02780724956596381
26.971,0.051414674533366345,0.051414674533366345
26.972,0.06852984682831575,0.06852984682831575
26.973000000000003,0.07530020372648161,0.07530020372648161
26.974,0.06992778069199734,0.06992778069199734
26.975,0.053229246566566024,0.053229246566566024
26.976000000000003,0.02851755304984427,0.02851755304984427
26.977,0.0008245093598242548,0.0008245093598242548
26.978,0.024322015860763435,-0.024322015860763435
26.979000000000003,0.04222489783315697,-0.04222489783315697
26.98,0.050085194456432114,-0.050085194456432114
26.981,0.04753461854568053,-0.04753461854568053
26.982000000000003,0.03652376427757453,-0.03652376427757453
26.983,0.020646437069611445,-0.020646437069611445
26.984,0.00413306330150176,-0.00413306330150176
26.985000000000003,0.009183517851623302,0.009183517851623302
26.986,0.016654523536774324,0.016654523536774324
26.987,0.01718757465541243,0.01718757465541243
26.988000000000003,0.011185650941254677,0.011185650941254677
26.989,0.0001661336356084675,0.0001661336356084675
26.99,0.013751613890432224,-0.013751613890432224
26.991000000000003,0.028304106701089515,-0.028304106701089515
26.992,0.041370991390282885,-0.041370991390282885
26.993,0.05107896038464599,-0.05107896038464599
26.994000000000003,0.05580156203446862,-0.05580156203446862
26.995,0.054176907816332,-0.054176907816332
26.996,0.04524229220900411,-0.04524229220900411
26.997000000000003,0.028706972000713704,-0.028706972000713704
26.998,0.005285996591553488,-0.005285996591553488
26.999,0.02305681116818592,0.02305681116818592
27.000000000000004,0.053123136162930074,0.053123136162930074
27.001,0.08085811258184927,0.08085811258184927
27.002,0.10207897079013772,0.10207897079013772
27.003,0.11340335852408234,0.11340335852408234
27.004,0.1131216474628336,0.1131216474628336
27.005000000000003,0.10173089538794566,0.10173089538794566
27.006,0.08191916079829742,0.08191916079829742
27.007,0.057943000916480525,0.057943000916480525
27.008000000000003,0.03453214712113439,0.03453214712113439
27.009,0.01562024874219059,0.01562024874219059
27.01,0.0032800708541711465,0.0032800708541711465
27.011000000000003,0.0027981735768201066,-0.0027981735768201066
27.012,0.005100591009438826,-0.005100591009438826
27.013,0.0073944611537272165,-0.0073944611537272165
27.014000000000003,0.01340610456040603,-0.01340610456040603
27.015,0.025481726645892322,-0.025481726645892322
27.016,0.04366188125121595,-0.04366188125121595
27.017000000000003,0.06548145053292809,-0.06548145053292809
27.018,0.08658285931460008,-0.08658285931460008
27.019,0.10197089960600048,-0.10197089960600048
27.020000000000003,0.10752713665607705,-0.10752713665607705
27.021,0.10131052315488742,-0.10131052315488742
27.022,0.08423085815046427,-0.08423085815046427
27.023000000000003,0.05987591690719096,-0.05987591690719096
27.024,0.03353961844302589,-0.03353961844302589
27.025,0.010750993904302453,-0.010750993904302453
27.026000000000003,0.00424054996765455,0.00424054996765455
27.027,0.009559983020924756,0.009559983020924756
27.028,0.006059031674876314,0.006059031674876314
27.029000000000003,0.0031531732119627343,-0.0031531732119627343
27.03,0.013817214644875286,-0.013817214644875286
27.031,0.021888175270035504,-0.021888175270035504
27.032,0.02471289111872521,-0.02471289111872521
27.033,0.021658991046696663,-0.021658991046696663
27.034,0.01403652522973442,-0.01403652522973442
27.035,0.004399312154140356,-0.004399312154140356
27.036,0.004481868491428287,0.004481868491428287
27.037000000000003,0.010588413426021237,0.010588413426021237
27.038,0.013226516929518928,0.013226516929518928
27.039,0.013030898727618867,0.013030898727618867
27.040000000000003,0.011449567178659859,0.011449567178659859
27.041,0.009954808119604808,0.009954808119604808
27.042,0.00932187146109631,0.00932187146109631
27.043000000000003,0.009279371600295905,0.009279371600295905
27.044,0.008679432804973075,0.008679432804973075
27.045,0.006120845294879773,0.006120845294879773
27.046000000000003,0.0007673780011616671,0.0007673780011616671
27.047,0.006989487054350096,-0.006989487054350096
27.048,0.015330108742173665,-0.015330108742173665
27.049000000000003,0.021406854702840095,-0.021406854702840095
27.05,0.02225080577583116,-0.02225080577583116
27.051,0.015881333346331572,-0.015881333346331572
27.052000000000003,0.0022096794819066456,-0.0022096794819066456
27.053,0.016627645591896334,0.016627645591896334
27.054,0.0366841891127383,0.0366841891127383
27.055000000000003,0.053281731945679534,0.053281731945679534
27.056,0.0624167537218252,0.0624167537218252
27.057,0.0620207536663,0.0620207536663
27.058000000000003,0.05262614684464806,0.05262614684464806
27.059,0.037180317783561456,0.037180317783561456
27.06,0.020044099538160776,0.020044099538160776
27.061000000000003,0.0055050694578115955,0.0055050694578115955
27.062,0.0036765795146816993,-0.0036765795146816993
27.063,0.0071643100278370175,-0.0071643100278370175
27.064,0.007041588597605619,-0.007041588597605619
27.065,0.006882254914606589,-0.006882254914606589
27.066000000000003,0.010208904896947035,-0.010208904896947035
27.067,0.018894966893864162,-0.018894966893864162
27.068,0.03211703755654305,-0.03211703755654305
27.069000000000003,0.046296268424128595,-0.046296268424128595
27.07,0.05613069386783809,-0.05613069386783809
27.071,0.056426915777288755,-0.056426915777288755
27.072000000000003,0.04412758649668813,-0.04412758649668813
27.073,0.01981618667789853,-0.01981618667789853
27.074,0.01188628981325901,0.01188628981325901
27.075000000000003,0.0432711371659289,0.0432711371659289
27.076,0.06562654637360299,0.06562654637360299
27.077,0.0718437497411426,0.0718437497411426
27.078000000000003,0.0587192091235782,0.0587192091235782
27.079,0.028185328192603665,0.028185328192603665
27.08,0.012978966194355346,-0.012978966194355346
27.081000000000003,0.05492572011938146,-0.05492572011938146
27.082,0.08748622943731887,-0.08748622943731887
27.083,0.1030461330017175,-0.1030461330017175
27.084000000000003,0.09864845320795379,-0.09864845320795379
27.085,0.07666606741222037,-0.07666606741222037
27.086,0.04384477290025579,-0.04384477290025579
27.087000000000003,0.00904597986951583,-0.00904597986951583
27.088,0.019561808675334635,0.019561808675334635
27.089,0.03694234107634564,0.03694234107634564
27.090000000000003,0.04247701498553891,0.04247701498553891
27.091,0.03970838624361406,0.03970838624361406
27.092,0.03467755511873549,0.03467755511873549
27.093000000000004,0.03346418319545097,0.03346418319545097
27.094,0.03979978912298354,0.03979978912298354
27.095,0.05358752161514935,0.05358752161514935
27.096,0.07083899490319312,0.07083899490319312
27.097,0.08504280984242385,0.08504280984242385
27.098000000000003,0.08948113322128437,0.08948113322128437
27.099,0.07968164865082605,0.07968164865082605
27.1,0.05514521805482353,0.05514521805482353
27.101000000000003,0.019740189507763573,0.019740189507763573
27.102,0.01938468084897016,-0.01938468084897016
27.103,0.05400482013302821,-0.05400482013302821
27.104000000000003,0.07739212162320108,-0.07739212162320108
27.105,0.08637815829593054,-0.08637815829593054
27.106,0.08220709221824063,-0.08220709221824063
27.107000000000003,0.06989409472493546,-0.06989409472493546
27.108,0.056319588675019516,-0.056319588675019516
27.109,0.04772423261065273,-0.04772423261065273
27.110000000000003,0.047474870143705994,-0.047474870143705994
27.111,0.054877485409545845,-0.054877485409545845
27.112,0.06545240493672644,-0.06545240493672644
27.113000000000003,0.07258373412460761,-0.07258373412460761
27.114,0.06998172929584634,-0.06998172929584634
27.115,0.05411483538556627,-0.05411483538556627
27.116000000000003,0.025772686006092727,-0.025772686006092727
27.117,0.009790384930935536,0.009790384930935536
27.118,0.04420885325547519,0.04420885325547519
27.119000000000003,0.06843696066990734,0.06843696066990734
27.12,0.07548294554284962,0.07548294554284962
27.121,0.0625766824895937,0.0625766824895937
27.122000000000003,0.032091633949667964,0.032091633949667964
27.123,0.009049633821416436,-0.009049633821416436
27.124,0.05127121607040963,-0.05127121607040963
27.125000000000004,0.08492456585613195,-0.08492456585613195
27.126,0.10275047437430707,-0.10275047437430707
27.127,0.10149879306807719,-0.10149879306807719
27.128,0.08229198046703001,-0.08229198046703001
27.129,0.04974434339421607,-0.04974434339421607
27.130000000000003,0.010243122992823928,-0.010243122992823928
27.131,0.029970064350337555,0.029970064350337555
27.132,0.06627774904934336,0.06627774904934336
27.133000000000003,0.09630221178647225,0.09630221178647225
27.134,0.11958225747211837,0.11958225747211837
27.135,0.1365834501869092,0.1365834501869092
27.136000000000003,0.1475400257837196,0.1475400257837196
27.137,0.15165533158000422,0.15165533158000422
27.138,0.14701707916304008,0.14701707916304008
27.139000000000003,0.13128331589012898,0.13128331589012898
27.14,0.10287864368596633,0.10287864368596633
27.141,0.06222441800973444,0.06222441800973444
27.142000000000003,0.012489318811728545,0.012489318811728545
27.143,0.04049971873731917,-0.04049971873731917
27.144,0.0892575574889124,-0.0892575574889124
27.145000000000003,0.12630255162386383,-0.12630255162386383
27.146,0.14599087611573824,-0.14599087611573824
27.147,0.1459591240184397,-0.1459591240184397
27.148000000000003,0.12772484612021662,-0.12772484612021662
27.149,0.09625771004984784,-0.09625771004984784
27.15,0.05865545130776939,-0.05865545130776939
27.151000000000003,0.022330682079877207,-0.022330682079877207
27.152,0.006751334049578617,0.006751334049578617
27.153,0.025286639152137136,0.025286639152137136
27.154000000000003,0.03299892220965095,0.03299892220965095
27.155,0.03213942627358701,0.03213942627358701
27.156,0.02636813321913478,0.02636813321913478
27.157,0.01942985171263567,0.01942985171263567
27.158,0.01405646445216191,0.01405646445216191
27.159,0.011401418842385214,0.011401418842385214
27.16,0.011098338571687627,0.011098338571687627
27.161,0.011813083439683014,0.011813083439683014
27.162000000000003,0.012005659368673038,0.012005659368673038
27.163,0.010583153368369569,0.010583153368369569
27.164,0.007210248449528001,0.007210248449528001
27.165000000000003,0.0022090749959622347,0.0022090749959622347
27.166,0.0038423574693450258,-0.0038423574693450258
27.167,0.01058266202291469,-0.01058266202291469
27.168000000000003,0.01815950471162253,-0.01815950471162253
27.169,0.02717613873417979,-0.02717613873417979
27.17,0.038281889122211754,-0.038281889122211754
27.171000000000003,0.05156106463604837,-0.05156106463604837
27.172,0.06598354176186683,-0.06598354176186683
27.173,0.07918886148888926,-0.07918886148888926
27.174000000000003,0.08777641970081684,-0.08777641970081684
27.175,0.08809908015851897,-0.08809908015851897
27.176,0.07736664582785102,-0.07736664582785102
27.177000000000003,0.05472695680636319,-0.05472695680636319
27.178,0.02195781021301091,-0.02195781021301091
27.179,0.016509719088035224,0.016509719088035224
27.180000000000003,0.054329293974290094,0.054329293974290094
27.181,0.08460160421508522,0.08460160421508522
27.182,0.10152269136968384,0.10152269136968384
27.183000000000003,0.10187188613373199,0.10187188613373199
27.184,0.08591430199474903,0.08591430199474903
27.185,0.05744099913746892,0.05744099913746892
27.186000000000003,0.022903649520188862,0.022903649520188862
27.187,0.010147399533136259,-0.010147399533136259
27.188,0.03491530430374434,-0.03491530430374434
27.189,0.047007111332894036,-0.047007111332894036
27.19,0.04544136265070575,-0.04544136265070575
27.191000000000003,0.03274560970957541,-0.03274560970957541
27.192,0.014124253995890457,-0.014124253995890457
27.193,0.004070015193570198,0.004070015193570198
27.194000000000003,0.016139707191624275,0.016139707191624275
27.195,0.01862724182478659,0.01862724182478659
27.196,0.011250068979592243,0.011250068979592243
27.197000000000003,0.0030645432151349405,-0.0030645432151349405
27.198,0.019048170986586843,-0.019048170986586843
27.199,0.0306190237036994,-0.0306190237036994
27.200000000000003,0.03264467379077618,-0.03264467379077618
27.201,0.02245219223171968,-0.02245219223171968
27.202,0.0006685467580703763,-0.0006685467580703763
27.203000000000003,0.028840976337586754,0.028840976337586754
27.204,0.05991984814114826,0.05991984814114826
27.205,0.08569243837348517,0.08569243837348517
27.206000000000003,0.10032936017408423,0.10032936017408423
27.207,0.1005233400586063,0.1005233400586063
27.208,0.08627733211868205,0.08627733211868205
27.209000000000003,0.060802592009265855,0.060802592009265855
27.21,0.029576241289997585,0.029576241289997585
27.211,0.0011569336454815282,-0.0011569336454815282
27.212000000000003,0.026003288363211974,-0.026003288363211974
27.213,0.04170268743101402,-0.04170268743101402
27.214,0.04772978230311209,-0.04772978230311209
27.215000000000003,0.04608161291562263,-0.04608161291562263
27.216,0.04036562217709416,-0.04036562217709416
27.217,0.03450762149680986,-0.03450762149680986
27.218000000000004,0.03150037956840124,-0.03150037956840124
27.219,0.032580073033853685,-0.032580073033853685
27.22,0.037062450822260784,-0.037062450822260784
27.221,0.04284509018159777,-0.04284509018159777
27.222,0.04736116363948595,-0.04736116363948595
27.223000000000003,0.04862668189761121,-0.04862668189761121
27.224,0.04600431960119389,-0.04600431960119389
27.225,0.04041780985838361,-0.04041780985838361
27.226000000000003,0.033952544034126064,-0.033952544034126064
27.227,0.02900020991048191,-0.02900020991048191
27.228,0.02727037716341263,-0.02727037716341263
27.229000000000003,0.029041621922469285,-0.029041621922469285
27.23,0.032940786210838624,-0.032940786210838624
27.231,0.03634998848060689,-0.03634998848060689
27.232000000000003,0.0363133193360865,-0.0363133193360865
27.233,0.030629771856161447,-0.030629771856161447
27.234,0.01874302902730629,-0.01874302902730629
27.235000000000003,0.002101360215842396,-0.002101360215842396
27.236,0.016158025191796765,0.016158025191796765
27.237,0.032109256165395506,0.032109256165395506
27.238000000000003,0.04222383298441712,0.04222383298441712
27.239,0.044439370295438874,0.044439370295438874
27.24,0.03874661133379287,0.03874661133379287
27.241000000000003,0.027099560551089752,0.027099560551089752
27.242,0.012693797732311829,0.012693797732311829
27.243,0.0011173678295410827,-0.0011173678295410827
27.244000000000003,0.011872484391572735,-0.011872484391572735
27.245,0.018639552621299682,-0.018639552621299682
27.246,0.022022758617487037,-0.022022758617487037
27.247000000000003,0.023561142819868874,-0.023561142819868874
27.248,0.024777041196449523,-0.024777041196449523
27.249,0.026271528923987653,-0.026271528923987653
27.250000000000004,0.027252490913224903,-0.027252490913224903
27.251,0.025718363800375288,-0.025718363800375288
27.252,0.019264216323393812,-0.019264216323393812
27.253,0.006221491033626014,-0.006221491033626014
27.254,0.013313332417785428,0.013313332417785428
27.255000000000003,0.03699779217874344,0.03699779217874344
27.256,0.060568828858550194,0.060568828858550194
27.257,0.07894324754979709,0.07894324754979709
27.258000000000003,0.08776342105301715,0.08776342105301715
27.259,0.08486287458589992,0.08486287458589992
27.26,0.07111323442093265,0.07111323442093265
27.261000000000003,0.05029913527079821,0.05029913527079821
27.262,0.027994655005840974,0.027994655005840974
27.263,0.009772227004623213,0.009772227004623213
27.264000000000003,0.0006655486398224886,-0.0006655486398224886
27.265,0.002778422611155129,-0.002778422611155129
27.266,0.0005798878308058697,0.0005798878308058697
27.267000000000003,0.004127219999820353,0.004127219999820353
27.268,0.002037089762146005,0.002037089762146005
27.269,0.00987347705731434,-0.00987347705731434
27.270000000000003,0.03240298519063056,-0.03240298519063056
27.271,0.062300989984529154,-0.062300989984529154
27.272,0.09296462062249455,-0.09296462062249455
27.273000000000003,0.11632393770828064,-0.11632393770828064
27.274,0.12533090434065086,-0.12533090434065086
27.275,0.11624190786323163,-0.11624190786323163
27.276000000000003,0.08992995444230856,-0.08992995444230856
27.277,0.05177038910584619,-0.05177038910584619
27.278,0.010112766059743428,-0.010112766059743428
27.279000000000003,0.026176897361978924,0.026176897361978924
27.28,0.05030649659144437,0.05030649659144437
27.281,0.05943880023564274,0.05943880023564274
27.282,0.05526095107184248,0.05526095107184248
27.283,0.043084389581468985,0.043084389581468985
27.284,0.0298127381708162,0.0298127381708162
27.285,0.02149194297295054,0.02149194297295054
27.286,0.021285264718568397,0.021285264718568397
27.287000000000003,0.02855247009773798,0.02855247009773798
27.288,0.03931646598311178,0.03931646598311178
27.289,0.047911526124221115,0.047911526124221115
27.290000000000003,0.0491970935173589,0.0491970935173589
27.291,0.04053325746828618,0.04053325746828618
27.292,0.022812663583696713,0.022812663583696713
27.293000000000003,0.00019143010340849642,0.00019143010340849642
27.294,0.021366926667729325,-0.021366926667729325
27.295,0.03619440752774383,-0.03619440752774383
27.296000000000003,0.04089931976876804,-0.04089931976876804
27.297,0.03550552304397481,-0.03550552304397481
27.298,0.023339824746497984,-0.023339824746497984
27.299000000000003,0.009714086014874224,-0.009714086014874224
27.3,0.00011151455550217904,0.00011151455550217904
27.301,0.0029333792010415305,0.0029333792010415305
27.302000000000003,0.0011659632165679223,-0.0011659632165679223
27.303,0.008830166509741777,-0.008830166509741777
27.304,0.014701316594452618,-0.014701316594452618
27.305000000000003,0.013510644205753097,-0.013510644205753097
27.306,0.0022404043633718063,-0.0022404043633718063
27.307,0.018431827732507067,0.018431827732507067
27.308000000000003,0.04395547073506467,0.04395547073506467
27.309,0.06710709595870479,0.06710709595870479
27.31,0.08019737488923195,0.08019737488923195
27.311000000000003,0.07755652605575136,0.07755652605575136
27.312,0.05746332932434295,0.05746332932434295
27.313,0.02286404293018962,0.02286404293018962
27.314,0.01936689699189631,-0.01936689699189631
27.315,0.06038422997082937,-0.06038422997082937
27.316000000000003,0.09190514145811235,-0.09190514145811235
27.317,0.108497613899451,-0.108497613899451
27.318,0.1089048795037516,-0.1089048795037516
27.319000000000003,0.09602820773710219,-0.09602820773710219
27.32,0.07564741035981459,-0.07564741035981459
27.321,0.05437095005286352,-0.05437095005286352
27.322000000000003,0.037534984689984285,-0.037534984689984285
27.323,0.027741807874867463,-0.027741807874867463
27.324,0.02446412140343246,-0.02446412140343246
27.325000000000003,0.024745723895756355,-0.024745723895756355
27.326,0.02464758513937615,-0.02464758513937615
27.327,0.020855921777687025,-0.020855921777687025
27.328000000000003,0.011861410801263461,-0.011861410801263461
27.329,0.0016732427129191318,0.0016732427129191318
27.33,0.01740461287780426,0.01740461287780426
27.331000000000003,0.03237484334706342,0.03237484334706342
27.332,0.04416773889639902,0.04416773889639902
27.333,0.05167005674898584,0.05167005674898584
27.334000000000003,0.055148492676012406,0.055148492676012406
27.335,0.05565993568150773,0.05565993568150773
27.336,0.05410648518878003,0.05410648518878003
27.337000000000003,0.05040824209773165,0.05040824209773165
27.338,0.04322877981890261,0.04322877981890261
27.339,0.030461651067793083,0.030461651067793083
27.340000000000003,0.01035749105719641,0.01035749105719641
27.341,0.017130566575711104,-0.017130566575711104
27.342,0.04935702287456689,-0.04935702287456689
27.343000000000004,0.08085498842028271,-0.08085498842028271
27.344,0.10429652303177206,-0.10429652303177206
27.345,0.11237798849350589,-0.11237798849350589
27.346,0.10009766831472522,-0.10009766831472522
27.347,0.06668758596471136,-0.06668758596471136
27.348000000000003,0.01650469848480174,-0.01650469848480174
27.349,0.04152217514069778,0.04152217514069778
27.35,0.09584359321493707,0.09584359321493707
27.351000000000003,0.1351333772494454,0.1351333772494454
27.352,0.1512077436343675,0.1512077436343675
27.353,0.14114849297975418,0.14114849297975418
27.354000000000003,0.10798782088986303,0.10798782088986303
27.355,0.059752221257826976,0.059752221257826976
27.356,0.007170399402536498,0.007170399402536498
27.357000000000003,0.03924197072599789,-0.03924197072599789
27.358,0.0718329808544963,-0.0718329808544963
27.359,0.08742604551064759,-0.08742604551064759
27.360000000000003,0.08747636819016491,-0.08747636819016491
27.361,0.0768373914196121,-0.0768373914196121
27.362,0.06164357139538801,-0.06164357139538801
27.363000000000003,0.04707247284298621,-0.04707247284298621
27.364,0.03574206050416384,-0.03574206050416384
27.365,0.02723993356849186,-0.02723993356849186
27.366000000000003,0.018866382407343396,-0.018866382407343396
27.367,0.007248249420251041,-0.007248249420251041
27.368,0.009810159964660281,0.009810159964660281
27.369000000000003,0.03193564196156351,0.03193564196156351
27.37,0.05577215855478235,0.05577215855478235
27.371,0.07571145672419677,0.07571145672419677
27.372000000000003,0.08553639027103843,0.08553639027103843
27.373,0.08043416611131238,0.08043416611131238
27.374,0.058714763186599184,0.058714763186599184
27.375000000000004,0.022670330696971552,0.022670330696971552
27.376,0.02170742153950589,-0.02170742153950589
27.377,0.0660724777664935,-0.0660724777664935
27.378,0.10173036419525117,-0.10173036419525117
27.379,0.12172025258067853,-0.12172025258067853
27.380000000000003,0.12239577560509352,-0.12239577560509352
27.381,0.10410716028544398,-0.10410716028544398
27.382,0.07087085428938211,-0.07087085428938211
27.383000000000003,0.029203210016579884,-0.029203210016579884
27.384,0.013497136525095765,0.013497136525095765
27.385,0.050561066901526175,0.050561066901526175
27.386000000000003,0.0772648847232007,0.0772648847232007
27.387,0.09142620405664226,0.09142620405664226
27.388,0.093354738012843,0.093354738012843
27.389000000000003,0.08529957176763059,0.08529957176763059
27.39,0.0706257123118601,0.0706257123118601
27.391,0.052958577593460676,0.052958577593460676
27.392000000000003,0.035476151635397635,0.035476151635397635
27.393,0.020442137324458765,0.020442137324458765
27.394,0.008996081089424512,0.008996081089424512
27.395000000000003,0.0011695941512879227,0.0011695941512879227
27.396,0.003917447491760928,-0.003917447491760928
27.397,0.007725145876317896,-0.007725145876317896
27.398000000000003,0.011871165821272234,-0.011871165821272234
27.399,0.017676648053416177,-0.017676648053416177
27.4,0.02576387388999013,-0.02576387388999013
27.401000000000003,0.035807309487696726,-0.035807309487696726
27.402,0.046530782858445474,-0.046530782858445474
27.403,0.05599485388725023,-0.05599485388725023
27.404000000000003,0.06213493817552351,-0.06213493817552351
27.405,0.06341705890863536,-0.06341705890863536
27.406,0.05941079837559038,-0.05941079837559038
27.407,0.05107198116002132,-0.05107198116002132
27.408,0.0405962985637921,-0.0405962985637921
27.409,0.030836596827798823,-0.030836596827798823
27.41,0.024430592316797672,-0.024430592316797672
27.411,0.022907163072099168,-0.022907163072099168
27.412000000000003,0.026078230924418855,-0.026078230924418855
27.413,0.03195534670319089,-0.03195534670319089
27.414,0.03726902712512514,-0.03726902712512514
27.415000000000003,0.038464666022035354,-0.038464666022035354
27.416,0.03287214135571359,-0.03287214135571359
27.417,0.019663474490407507,-0.019663474490407507
27.418000000000003,0.0002609597557994281,-0.0002609597557994281
27.419,0.021971427870169702,0.021971427870169702
27.42,0.04268154704994731,0.04268154704994731
27.421000000000003,0.05782998920443161,0.05782998920443161
27.422,0.06490978200971065,0.06490978200971065
27.423,0.06367108555018253,0.06367108555018253
27.424000000000003,0.05609829121114185,0.05609829121114185
27.425,0.045642315489755614,0.045642315489755614
27.426,0.03597211776142206,0.03597211776142206
27.427000000000003,0.029683067240749095,0.029683067240749095
27.428,0.02742092540204144,0.02742092540204144
27.429,0.02773730416307907,0.02773730416307907
27.430000000000003,0.02773300337277007,0.02773300337277007
27.431,0.024260645465663755,0.024260645465663755
27.432,0.015250134458903553,0.015250134458903553
27.433000000000003,0.0006668488123779959,0.0006668488123779959
27.434,0.017263875999482425,-0.017263875999482425
27.435,0.03467240695560647,-0.03467240695560647
27.436000000000003,0.047302098676900384,-0.047302098676900384
27.437,0.05196968360994936,-0.05196968360994936
27.438,0.047703983050518706,-0.047703983050518706
27.439,0.03614061445116434,-0.03614061445116434
27.44,0.02100884359477606,-0.02100884359477606
27.441000000000003,0.006871222066332949,-0.006871222066332949
27.442,0.0024487392372036787,0.0024487392372036787
27.443,0.00519132177397319,0.00519132177397319
27.444000000000003,0.0022526990675422187,0.0022526990675422187
27.445,0.003189521412268692,-0.003189521412268692
27.446,0.0069092604716451955,-0.0069092604716451955
27.447000000000003,0.005302808335981624,-0.005302808335981624
27.448,0.003094172665713879,0.003094172665713879
27.449,0.016800851567597253,0.016800851567597253
27.450000000000003,0.03162178964311435,0.03162178964311435
27.451,0.04188631272530019,0.04188631272530019
27.452,0.042316723223009944,0.042316723223009944
27.453000000000003,0.02991541301895606,0.02991541301895606
27.454,0.005234403043947511,0.005234403043947511
27.455,0.02742083633760728,-0.02742083633760728
27.456000000000003,0.06096039720623958,-0.06096039720623958
27.457,0.08737933992713953,-0.08737933992713953
27.458,0.09996372451861613,-0.09996372451861613
27.459000000000003,0.09516225562484759,-0.09516225562484759
27.46,0.07356216800450077,-0.07356216800450077
27.461,0.03969429339663544,-0.03969429339663544
27.462000000000003,0.0007573806052459942,-0.0007573806052459942
27.463,0.03532509828301511,0.03532509828301511
27.464,0.06192343546877477,0.06192343546877477
27.465000000000003,0.07521838901771982,0.07521838901771982
27.466,0.07483160649627396,0.07483160649627396
27.467,0.06348116772951307,0.06348116772951307
27.468000000000004,0.04586972600552275,0.04586972600552275
27.469,0.027213869369261623,0.027213869369261623
27.47,0.011874284885299069,0.011874284885299069
27.471,0.0024475872286193745,0.0024475872286193745
27.472,0.0005164551829534014,-0.0005164551829534014
27.473000000000003,0.0017752309509277975,0.0017752309509277975
27.474,0.007010629299787574,0.007010629299787574
27.475,0.012518205001486704,0.012518205001486704
27.476000000000003,0.0158873590553279,0.0158873590553279
27.477,0.015358833470837219,0.015358833470837219
27.478,0.010000709686496911,0.010000709686496911
27.479000000000003,0.00024105564635445997,-0.00024105564635445997
27.48,0.01452845755040133,-0.01452845755040133
27.481,0.03112623580933238,-0.03112623580933238
27.482000000000003,0.0474603069635785,-0.0474603069635785
27.483,0.06034521436505358,-0.06034521436505358
27.484,0.0664678005638033,-0.0664678005638033
27.485000000000003,0.06312248207472859,-0.06312248207472859
27.486,0.049060629334799155,-0.049060629334799155
27.487,0.025200864596638617,-0.025200864596638617
27.488000000000003,0.00509131201046964,0.00509131201046964
27.489,0.03637178205118907,0.03637178205118907
27.49,0.06217142923533281,0.06217142923533281
27.491000000000003,0.07653989606447853,0.07653989606447853
27.492,0.07567990006393388,0.07567990006393388
27.493,0.059177689193576466,0.059177689193576466
27.494000000000003,0.030399404122728457,0.030399404122728457
27.495,0.004157639925669754,-0.004157639925669754
27.496,0.03645616753468994,-0.03645616753468994
27.497000000000003,0.059041954376817585,-0.059041954376817585
27.498,0.06709087705348715,-0.06709087705348715
27.499,0.059760351039073956,-0.059760351039073956
27.500000000000004,0.040413474472749455,-0.040413474472749455
27.501,0.015619262045984295,-0.015619262045984295
27.502,0.006790210785314166,0.006790210785314166
27.503,0.020027571164139557,0.020027571164139557
27.504,0.020326120979079265,0.020326120979079265
27.505000000000003,0.007988655632430008,0.007988655632430008
27.506,0.012796502045960279,-0.012796502045960279
27.507,0.03529362478691689,-0.03529362478691689
27.508000000000003,0.05227920802623909,-0.05227920802623909
27.509,0.05818025719276709,-0.05818025719276709
27.51,0.05064646446104637,-0.05064646446104637
27.511000000000003,0.03111230514651775,-0.03111230514651775
27.512,0.0042365251885727595,-0.0042365251885727595
27.513,0.023543986491436186,0.023543986491436186
27.514000000000003,0.04585513090475213,0.04585513090475213
27.515,0.058048975581597606,0.058048975581597606
27.516,0.058222965189512754,0.058222965189512754
27.517000000000003,0.047372864188126806,0.047372864188126806
27.518,0.028748569078208996,0.028748569078208996
27.519,0.006718760517724354,0.006718760517724354
27.520000000000003,0.014441626035556654,-0.014441626035556654
27.521,0.0314712087411384,-0.0314712087411384
27.522,0.042542877717826166,-0.042542877717826166
27.523000000000003,0.04718934026665367,-0.04718934026665367
27.524,0.04591129873694688,-0.04591129873694688
27.525,0.03972182626685261,-0.03972182626685261
27.526000000000003,0.029839902526335282,-0.029839902526335282
27.527,0.017618717871095924,-0.017618717871095924
27.528,0.004643314292353762,-0.004643314292353762
27.529000000000003,0.007173050880451948,0.007173050880451948
27.53,0.01567645002762741,0.01567645002762741
27.531,0.018839315570305937,0.018839315570305937
27.532,0.015354087955991691,0.015354087955991691
27.533,0.00525654034339107,0.00525654034339107
27.534,0.00969105644691981,-0.00969105644691981
27.535,0.026088482139785096,-0.026088482139785096
27.536,0.03954434466470591,-0.03954434466470591
27.537000000000003,0.045764899084763666,-0.045764899084763666
27.538,0.04178450627681263,-0.04178450627681263
27.539,0.026945904497225892,-0.026945904497225892
27.540000000000003,0.0032829860228371643,-0.0032829860228371643
27.541,0.024867031081513113,0.024867031081513113
27.542,0.051946893095516034,0.051946893095516034
27.543000000000003,0.07264669824153058,0.07264669824153058
27.544,0.08330532200100893,0.08330532200100893
27.545,0.08280775964248321,0.08280775964248321
27.546000000000003,0.07270295814777517,0.07270295814777517
27.547,0.056525832872061255,0.056525832872061255
27.548,0.038572590845649124,0.038572590845649124
27.549000000000003,0.022556472544321027,0.022556472544321027
27.55,0.010598287582795685,0.010598287582795685
27.551,0.002873208399591487,0.002873208399591487
27.552000000000003,0.002009453164113051,-0.002009453164113051
27.553,0.00608435385008077,-0.00608435385008077
27.554,0.010950028805132739,-0.010950028805132739
27.555000000000003,0.016962766174179578,-0.016962766174179578
27.556,0.02302279854518685,-0.02302279854518685
27.557,0.027037667911859797,-0.027037667911859797
27.558000000000003,0.026881215196746133,-0.026881215196746133
27.559,0.02146687140307335,-0.02146687140307335
27.56,0.011496532462216269,-0.011496532462216269
27.561000000000003,0.00044488271913079025,0.00044488271913079025
27.562,0.01054145582397692,0.01054145582397692
27.563,0.014956270783114123,0.014956270783114123
27.564,0.011189683424731589,0.011189683424731589
27.565,0.0009022157264811925,-0.0009022157264811925
27.566000000000003,0.018820159597915276,-0.018820159597915276
27.567,0.03801484818239187,-0.03801484818239187
27.568,0.05320692311357211,-0.05320692311357211
27.569000000000003,0.060021527984170486,-0.060021527984170486
27.57,0.05640354799812275,-0.05640354799812275
27.571,0.04333944845902249,-0.04333944845902249
27.572000000000003,0.024634221147566082,-0.024634221147566082
27.573,0.0058016874059094725,-0.0058016874059094725
27.574,0.007582569934956318,0.007582569934956318
27.575000000000003,0.011542990058084346,0.011542990058084346
27.576,0.004859653070759196,0.004859653070759196
27.577,0.010629616779385787,-0.010629616779385787
27.578000000000003,0.03064490774520634,-0.03064490774520634
27.579,0.049767383892434625,-0.049767383892434625
27.58,0.06299306709624652,-0.06299306709624652
27.581000000000003,0.06704737841602726,-0.06704737841602726
27.582,0.06108176806025534,-0.06108176806025534
27.583,0.046602578530529515,-0.046602578530529515
27.584000000000003,0.026743664694991676,-0.026743664694991676
27.585,0.005196206970632056,-0.005196206970632056
27.586,0.014814457465298636,0.014814457465298636
27.587000000000003,0.03118194938399177,0.03118194938399177
27.588,0.043053954884065604,0.043053954884065604
27.589,0.05051242985507054,0.05051242985507054
27.590000000000003,0.05402753269278571,0.05402753269278571
27.591,0.05397387052941527,0.05397387052941527
27.592,0.050435134921320124,0.050435134921320124
27.593000000000004,0.043369410017532584,0.043369410017532584
27.594,0.03302832107796094,0.03302832107796094
27.595,0.0203933337288682,0.0203933337288682
27.596,0.0073661009180354675,0.0073661009180354675
27.597,0.003460347399115604,-0.003460347399115604
27.598000000000003,0.009450070035543656,-0.009450070035543656
27.599,0.008804572454621296,-0.008804572454621296
27.6,0.001358987305269621,-0.001358987305269621
27.601000000000003,0.011035395181931085,0.011035395181931085
27.602,0.024757234097360525,0.024757234097360525
27.603,0.035297471010580006,0.035297471010580006
27.604000000000003,0.038556414525857674,0.038556414525857674
27.605,0.03216568979031709,0.03216568979031709
27.606,0.01640119060902623,0.01640119060902623
27.607000000000003,0.005644448711369043,-0.005644448711369043
27.608,0.02874121726448209,-0.02874121726448209
27.609,0.046896436041341416,-0.046896436041341416
27.610000000000003,0.0550405661540605,-0.0550405661540605
27.611,0.050527979547841384,-0.050527979547841384
27.612,0.03399864605430203,-0.03399864605430203
27.613000000000003,0.009330637024808519,-0.009330637024808519
27.614,0.0173187456882391,0.0173187456882391
27.615,0.039117523839302004,0.039117523839302004
27.616000000000003,0.050358019379633134,0.050358019379633134
27.617,0.04795000194749699,0.04795000194749699
27.618,0.03220544622807675,0.03220544622807675
27.619000000000003,0.0067215728323490875,0.0067215728323490875
27.62,0.02257723881391316,-0.02257723881391316
27.621,0.04895531134771103,-0.04895531134771103
27.622000000000003,0.06652522081584256,-0.06652522081584256
27.623,0.07162704549052545,-0.07162704549052545
27.624,0.0636054682855659,-0.0636054682855659
27.625000000000004,0.044837668063693714,-0.044837668063693714
27.626,0.02005781422998132,-0.02005781422998132
27.627,0.004816581210436599,0.004816581210436599
27.628,0.02405941188275129,0.02405941188275129
27.629,0.03340110078014469,0.03340110078014469
27.630000000000003,0.030926737429371576,0.030926737429371576
27.631,0.01744615907120517,0.01744615907120517
27.632,0.0037127031255919096,-0.0037127031255919096
27.633000000000003,0.027429001498906702,-0.027429001498906702
27.634,0.047886353707541685,-0.047886353707541685
27.635,0.05983343302480659,-0.05983343302480659
27.636000000000003,0.05976566131829786,-0.05976566131829786
27.637,0.04678730361163386,-0.04678730361163386
27.638,0.02295499013881319,-0.02295499013881319
27.639000000000003,0.007011311616745397,0.007011311616745397
27.64,0.03664118460908039,0.03664118460908039
27.641,0.05909997085039831,0.05909997085039831
27.642000000000003,0.0687678702302168,0.0687678702302168
27.643,0.06265094645305336,0.06265094645305336
27.644,0.041264046678480604,0.041264046678480604
27.645000000000003,0.008722451075422244,0.008722451075422244
27.646,0.028040990780816677,-0.028040990780816677
27.647,0.06079404232511165,-0.06079404232511165
27.648000000000003,0.08191414229340421,-0.08191414229340421
27.649,0.0862176395013049,-0.0862176395013049
27.65,0.07223515065178576,-0.07223515065178576
27.651000000000003,0.04258859102634316,-0.04258859102634316
27.652,0.003357839015991071,-0.003357839015991071
27.653,0.03740334329273498,0.03740334329273498
27.654000000000003,0.07161030538972568,0.07161030538972568
27.655,0.09303434739815986,0.09303434739815986
27.656,0.09864191014411605,0.09864191014411605
27.657,0.08905836411403412,0.08905836411403412
27.658,0.06808271637023777,0.06808271637023777
27.659,0.04144645679297887,0.04144645679297887
27.66,0.015209033480167777,0.015209033480167777
27.661,0.005743622661602443,-0.005743622661602443
27.662000000000003,0.018699327977374836,-0.018699327977374836
27.663,0.023402277472939548,-0.023402277472939548
27.664,0.021633894672969722,-0.021633894672969722
27.665000000000003,0.016314044298663122,-0.016314044298663122
27.666,0.010461735363798796,-0.010461735363798796
27.667,0.006351702836392081,-0.006351702836392081
27.668000000000003,0.0050920395860077905,-0.0050920395860077905
27.669,0.0066752105086252955,-0.0066752105086252955
27.67,0.010384791252418313,-0.010384791252418313
27.671000000000003,0.015331938646123588,-0.015331938646123588
27.672,0.020881807549465004,-0.020881807549465004
27.673,0.02680768167010683,-0.02680768167010683
27.674000000000003,0.03314334003838526,-0.03314334003838526
27.675,0.03983788326995641,-0.03983788326995641
27.676,0.04640029955457681,-0.04640029955457681
27.677000000000003,0.05172348652379044,-0.05172348652379044
27.678,0.05420121823870372,-0.05420121823870372
27.679,0.0521286878164956,-0.0521286878164956
27.680000000000003,0.04425689303063629,-0.04425689303063629
27.681,0.030300480426403098,-0.030300480426403098
27.682,0.011205185741502532,-0.011205185741502532
27.683000000000003,0.0109376560363732,0.0109376560363732
27.684,0.033316794521504045,0.033316794521504045
27.685,0.05303243875709973,0.05303243875709973
27.686000000000003,0.06772646999569742,0.06772646999569742
27.687,0.07600882846922352,0.07600882846922352
27.688,0.07755635686602824,0.07755635686602824
27.689,0.07288417158973481,0.07288417158973481
27.69,0.06291148270185198,0.06291148270185198
27.691000000000003,0.04851756547527275,0.04851756547527275
27.692,0.0302810616963054,0.0302810616963054
27.693,0.008517207727513076,0.008517207727513076
27.694000000000003,0.016398227576911895,-0.016398227576911895
27.695,0.043555591071366306,-0.043555591071366306
27.696,0.07110421211585771,-0.07110421211585771
27.697000000000003,0.09612621352621653,-0.09612621352621653
27.698,0.11492249651952213,-0.11492249651952213
27.699,0.12370244550963705,-0.12370244550963705
27.700000000000003,0.11952018753771698,-0.11952018753771698
27.701,0.10119411591751737,-0.10119411591751737
27.702,0.06992107462422537,-0.06992107462422537
27.703000000000003,0.029363802229463,-0.029363802229463
27.704,0.014868840409265394,0.014868840409265394
27.705,0.05625760522619183,0.05625760522619183
27.706000000000003,0.08868352412561031,0.08868352412561031
27.707,0.10769007963782151,0.10769007963782151
27.708,0.11138231598504156,0.11138231598504156
27.709000000000003,0.1007441014338013,0.1007441014338013
27.71,0.07930746687111268,0.07930746687111268
27.711,0.0522725532506354,0.0522725532506354
27.712000000000003,0.02530757503888381,0.02530757503888381
27.713,0.0033226452629577796,0.0033226452629577796
27.714,0.010502161435992474,-0.010502161435992474
27.715000000000003,0.015234730457616141,-0.015234730457616141
27.716,0.012175481638567631,-0.012175481638567631
27.717,0.004355586179179527,-0.004355586179179527
27.718000000000004,0.004302413486483303,0.004302413486483303
27.719,0.009955105272573928,0.009955105272573928
27.72,0.009725503854423945,0.009725503854423945
27.721,0.0023286496446344174,0.0023286496446344174
27.722,0.01167709449292842,-0.01167709449292842
27.723000000000003,0.030045719781905622,-0.030045719781905622
27.724,0.049359560774029254,-0.049359560774029254
27.725,0.06579190836221782,-0.06579190836221782
27.726000000000003,0.075956706853615,-0.075956706853615
27.727,0.07766778782432848,-0.07766778782432848
27.728,0.07044427400657094,-0.07044427400657094
27.729000000000003,0.05564582279645569,-0.05564582279645569
27.73,0.03619618481584952,-0.03619618481584952
27.731,0.015943830915044366,-0.015943830915044366
27.732000000000003,0.0012047155367000961,0.0012047155367000961
27.733,0.012181614567590149,0.012181614567590149
27.734,0.015469960487872303,0.015469960487872303
27.735000000000003,0.01145335286619642,0.01145335286619642
27.736,0.0023097465465475864,0.0023097465465475864
27.737,0.008529373246838667,-0.008529373246838667
27.738000000000003,0.017220826089603958,-0.017220826089603958
27.739,0.02044005180450903,-0.02044005180450903
27.74,0.016166171763045467,-0.016166171763045467
27.741000000000003,0.004131722631036783,-0.004131722631036783
27.742,0.014157209846292762,0.014157209846292762
27.743,0.03580602538413191,0.03580602538413191
27.744000000000003,0.05719225737584366,0.05719225737584366
27.745,0.07471236509799928,0.07471236509799928
27.746,0.08542654039736708,0.08542654039736708
27.747000000000003,0.08747103902812525,0.08747103902812525
27.748,0.08019752958522841,0.08019752958522841
27.749,0.06408720330682982,0.06408720330682982
27.750000000000004,0.040542343927510105,0.040542343927510105
27.751,0.011662420917198713,0.011662420917198713
27.752,0.019931066347033566,-0.019931066347033566
27.753,0.051224188126303694,-0.051224188126303694
27.754,0.07895699671650369,-0.07895699671650369
27.755000000000003,0.09987027219502653,-0.09987027219502653
27.756,0.11110506850604007,-0.11110506850604007
27.757,0.11073252959755286,-0.11073252959755286
27.758000000000003,0.09830140472050664,-0.09830140472050664
27.759,0.07522492070608777,-0.07522492070608777
27.76,0.04482172774083404,-0.04482172774083404
27.761000000000003,0.011892805789985528,-0.011892805789985528
27.762,0.018154732702199583,0.018154732702199583
27.763,0.040473179437744644,0.040473179437744644
27.764000000000003,0.05194106105398544,0.05194106105398544
27.765,0.05199606704009807,0.05199606704009807
27.766,0.042855568343621586,0.042855568343621586
27.767000000000003,0.028999955970753888,0.028999955970753888
27.768,0.016003968125415824,0.016003968125415824
27.769,0.009003883806250279,0.009003883806250279
