Czas,AbsSum,Sum
251.067,0.006534795535027336,-0.006534795535027336
251.068,0.005936198150914747,-0.005936198150914747
251.06900000000002,0.0037094293985174285,-0.0037094293985174285
251.07000000000002,0.0003254329380658649,-0.0003254329380658649
251.071,0.003351444072747528,0.003351444072747528
251.072,0.006299286428271279,0.006299286428271279
251.073,0.007643321944360645,0.007643321944360645
251.074,0.00693348276726927,0.00693348276726927
251.07500000000002,0.004302801185093984,0.004302801185093984
251.07600000000002,0.0004500484954662838,0.0004500484954662838
251.077,0.0035542553334774983,-0.0035542553334774983
251.078,0.006581704816083541,-0.006581704816083541
251.079,0.007782846202696103,-0.007782846202696103
251.08,0.006841169591618824,-0.006841169591618824
251.08100000000002,0.004064056652490045,-0.004064056652490045
251.08200000000002,0.0002823640064507532,-0.0002823640064507532
251.083,0.0034086238696585864,0.0034086238696585864
251.084,0.005984003154952732,0.005984003154952732
251.085,0.006794056524013265,0.006794056524013265
251.086,0.005744756011286985,0.005744756011286985
251.08700000000002,0.0033011560408889662,0.0033011560408889662
251.08800000000002,0.00031826926461252144,0.00031826926461252144
251.089,0.0022416824982375845,-0.0022416824982375845
251.09,0.003613008890129801,-0.003613008890129801
251.091,0.0034556487866245944,-0.0034556487866245944
251.092,0.0019415178000949723,-0.0019415178000949723
251.09300000000002,0.00032208858541056524,0.00032208858541056524
251.09400000000002,0.0025002482849032885,0.0025002482849032885
251.095,0.0037983281351910182,0.0037983281351910182
251.096,0.0037044501105071266,0.0037044501105071266
251.097,0.0021340462955185832,0.0021340462955185832
251.098,0.0005610338730446734,-0.0005610338730446734
251.09900000000002,0.0037123149558610357,-0.0037123149558610357
251.10000000000002,0.006538243851640238,-0.006538243851640238
251.101,0.008364991582395247,-0.008364991582395247
251.102,0.00879907206146888,-0.00879907206146888
251.103,0.007807337845128551,-0.007807337845128551
251.104,0.005692154519209567,-0.005692154519209567
251.10500000000002,0.0029816334311773334,-0.0029816334311773334
251.10600000000002,0.0002766440104093773,-0.0002766440104093773
251.107,0.0018975936517810392,0.0018975936517810392
251.108,0.0031968680357073727,0.0031968680357073727
251.109,0.0035011778471239446,0.0035011778471239446
251.11,0.002898124406447591,0.002898124406447591
251.11100000000002,0.0016250289278285912,0.0016250289278285912
251.11200000000002,5.074767279501958e-06,-5.074767279501958e-06
251.113,0.0016715152822259147,-0.0016715152822259147
251.114,0.0030954533021037966,-0.0030954533021037966
251.115,0.004068632874865275,-0.004068632874865275
251.116,0.004466514553887468,-0.004466514553887468
251.11700000000002,0.004252584065315808,-0.004252584065315808
251.11800000000002,0.0034775637199390692,-0.0034775637199390692
251.119,0.002272393446713302,-0.002272393446713302
251.12,0.0008307392575407895,-0.0008307392575407895
251.121,0.0006222184349788674,0.0006222184349788674
251.122,0.00187284667689789,0.00187284667689789
251.12300000000002,0.0027652044680561223,0.0027652044680561223
251.12400000000002,0.0032364529311899814,0.0032364529311899814
251.125,0.003327720855797452,0.003327720855797452
251.126,0.003162876433679072,0.003162876433679072
251.127,0.0028985891351006937,0.0028985891351006937
251.12800000000001,0.0026607226219577083,0.0026607226219577083
251.12900000000002,0.002489646886557262,0.002489646886557262
251.13000000000002,0.0023167540300690747,0.0023167540300690747
251.131,0.0019853372317872355,0.0019853372317872355
251.132,0.0013135229533577089,0.0013135229533577089
251.133,0.0001803931085451352,0.0001803931085451352
251.13400000000001,0.0013949736237919461,-0.0013949736237919461
251.13500000000002,0.0032132006408746422,-0.0032132006408746422
251.13600000000002,0.004914528670194375,-0.004914528670194375
251.137,0.0060612736438977214,-0.0060612736438977214
251.138,0.006263133410332388,-0.006263133410332388
251.139,0.00530836015662612,-0.00530836015662612
251.14000000000001,0.003257719359545534,-0.003257719359545534
251.14100000000002,0.00046621698692150154,-0.00046621698692150154
251.142,0.002481963333822772,0.002481963333822772
251.143,0.004913104907479485,0.004913104907479485
251.144,0.006241424632525989,0.006241424632525989
251.145,0.006133419670780403,0.006133419670780403
251.14600000000002,0.0046093828990656895,0.0046093828990656895
251.14700000000002,0.002049203555392317,0.002049203555392317
251.148,0.0009028416194040675,-0.0009028416194040675
251.149,0.0035096117993378625,-0.0035096117993378625
251.15,0.005141089053150246,-0.005141089053150246
251.151,0.0054458327841091945,-0.0054458327841091945
251.15200000000002,0.004444637869333332,-0.004444637869333332
251.15300000000002,0.0025194370192038193,-0.0025194370192038193
251.154,0.00030066310012583455,-0.00030066310012583455
251.155,0.0015146390347102873,0.0015146390347102873
251.156,0.0023621707385074646,0.0023621707385074646
251.157,0.0019709902429124915,0.0019709902429124915
251.15800000000002,0.00044072036468454533,0.00044072036468454533
251.15900000000002,0.001785423496130148,-0.001785423496130148
251.16,0.004043416020616861,-0.004043416020616861
251.161,0.00563248427522592,-0.00563248427522592
251.162,0.006009816365078258,-0.006009816365078258
251.163,0.00494325177530449,-0.00494325177530449
251.16400000000002,0.0025813643459257486,-0.0025813643459257486
251.16500000000002,0.0005771735533628532,0.0005771735533628532
251.166,0.0038064158748369785,0.0038064158748369785
251.167,0.006335828065224978,0.006335828065224978
251.168,0.007545506321690615,0.007545506321690615
251.169,0.007123913617890924,0.007123913617890924
251.17000000000002,0.00514807371697776,0.00514807371697776
251.17100000000002,0.0020660341850187148,0.0020660341850187148
251.172,0.0014138566100180593,-0.0014138566100180593
251.173,0.004498829848463513,-0.004498829848463513
251.174,0.0065082286830222364,-0.0065082286830222364
251.175,0.007040798679071307,-0.007040798679071307
251.17600000000002,0.006069991391114182,-0.006069991391114182
251.17700000000002,0.003942647624397733,-0.003942647624397733
251.178,0.0012811709557078795,-0.0012811709557078795
251.179,0.0011854751665251095,0.0011854751665251095
251.18,0.002817452579730483,0.002817452579730483
251.181,0.003234097254745218,0.003234097254745218
251.18200000000002,0.002412061642980485,0.002412061642980485
251.18300000000002,0.0006841231658802314,0.0006841231658802314
251.184,0.001361789224182537,-0.001361789224182537
251.185,0.003055874206493155,-0.003055874206493155
251.186,0.003843553374534042,-0.003843553374534042
251.187,0.003450084670736545,-0.003450084670736545
251.18800000000002,0.0019645778290514897,-0.0019645778290514897
251.18900000000002,0.0001823018393383984,0.0001823018393383984
251.19,0.002342096207141688,0.002342096207141688
251.191,0.0038389905048950256,0.0038389905048950256
251.192,0.00417173657421645,0.00417173657421645
251.193,0.003167433102962689,0.003167433102962689
251.19400000000002,0.0010408084646500325,0.0010408084646500325
251.19500000000002,0.0016599332026364648,-0.0016599332026364648
251.196,0.004206093318804429,-0.004206093318804429
251.197,0.005896072140180307,-0.005896072140180307
251.198,0.0062567559732541024,-0.0062567559732541024
251.199,0.005179475507633357,-0.005179475507633357
251.20000000000002,0.0029507421445149114,-0.0029507421445149114
251.20100000000002,0.00016935565792274536,-0.00016935565792274536
251.202,0.0024247746969984305,0.0024247746969984305
251.203,0.00415895578091508,0.00415895578091508
251.204,0.004611987645539401,0.004611987645539401
251.205,0.003721716413499289,0.003721716413499289
251.20600000000002,0.001787313073219028,0.001787313073219028
251.20700000000002,0.0006302908449058376,-0.0006302908449058376
251.208,0.0028765430390663123,-0.0028765430390663123
251.209,0.00438806497492218,-0.00438806497492218
251.21,0.004839964274400128,-0.004839964274400128
251.211,0.00421568096023984,-0.00421568096023984
251.21200000000002,0.002784742001982002,-0.002784742001982002
251.21300000000002,0.0010019592459754104,-0.0010019592459754104
251.214,0.0006362502420557471,0.0006362502420557471
251.215,0.0017330211068431142,0.0017330211068431142
251.216,0.0020890641293035486,0.0020890641293035486
251.217,0.00173362614982191,0.00173362614982191
251.21800000000002,0.0008868422098164458,0.0008868422098164458
251.21900000000002,0.00012744409614407515,-0.00012744409614407515
251.22,0.0009867310215826775,-0.0009867310215826775
251.221,0.0014596842512670815,-0.0014596842512670815
251.222,0.001456587143932063,-0.001456587143932063
251.223,0.001031548118309312,-0.001031548118309312
251.22400000000002,0.0003435637709949067,-0.0003435637709949067
251.22500000000002,0.0004050343035677918,0.0004050343035677918
251.226,0.001030410616937895,0.001030410616937895
251.227,0.001410950774110361,0.001410950774110361
251.228,0.0015037239087064493,0.0015037239087064493
251.229,0.0013350848552780793,0.0013350848552780793
251.23000000000002,0.0009748797398875495,0.0009748797398875495
251.23100000000002,0.0005069103361503807,0.0005069103361503807
251.232,6.374684000658398e-06,6.374684000658398e-06
251.233,0.00047041035744410355,-0.00047041035744410355
251.234,0.000884899302998885,-0.000884899302998885
251.235,0.0012091538775263486,-0.0012091538775263486
251.23600000000002,0.0014191855960468739,-0.0014191855960468739
251.23700000000002,0.0014934562423114424,-0.0014934562423114424
251.238,0.0014174919730769657,-0.0014174919730769657
251.239,0.0011919899606678505,-0.0011919899606678505
251.24,0.0008399219858307976,-0.0008399219858307976
251.241,0.0004085919089592896,-0.0004085919089592896
251.24200000000002,3.5109080125078216e-05,3.5109080125078216e-05
251.24300000000002,0.00041514709012244026,0.00041514709012244026
251.244,0.0006593330629965677,0.0006593330629965677
251.245,0.0007112805304375583,0.0007112805304375583
251.246,0.00053892853858785,0.00053892853858785
251.247,0.0001391274457465414,0.0001391274457465414
251.24800000000002,0.0004607350795781813,-0.0004607350795781813
251.24900000000002,0.0012028761973563644,-0.0012028761973563644
251.25,0.0020009507060379955,-0.0020009507060379955
251.251,0.0027451568339254104,-0.0027451568339254104
251.252,0.0033131506865261757,-0.0033131506865261757
251.25300000000001,0.00358849028123192,-0.00358849028123192
251.25400000000002,0.0034855101688888615,-0.0034855101688888615
251.25500000000002,0.002975581836419624,-0.002975581836419624
251.256,0.002106406278237801,-0.002106406278237801
251.257,0.0010052492697672155,-0.0010052492697672155
251.258,0.00013993853294594813,0.00013993853294594813
251.25900000000001,0.0011210438985330932,0.0011210438985330932
251.26000000000002,0.0017633572794058803,0.0017633572794058803
251.26100000000002,0.0019768740530887027,0.0019768740530887027
251.262,0.0017877464442565508,0.0017877464442565508
251.263,0.001336223194121283,0.001336223194121283
251.264,0.0008371078519665843,0.0008371078519665843
251.26500000000001,0.0005114648002388813,0.0005114648002388813
251.26600000000002,0.0005096619863013519,0.0005096619863013519
251.267,0.0008514360112495803,0.0008514360112495803
251.268,0.0014056933105259257,0.0014056933105259257
251.269,0.0019212958903848415,0.0019212958903848415
251.27,0.0021033622366950955,0.0021033622366950955
251.27100000000002,0.001713155556400549,0.001713155556400549
251.27200000000002,0.0006593786353259395,0.0006593786353259395
251.273,0.0009511334925760403,-0.0009511334925760403
251.274,0.0028239381649847093,-0.0028239381649847093
251.275,0.004549909396138576,-0.004549909396138576
251.276,0.0057205656590003425,-0.0057205656590003425
251.27700000000002,0.006050214121101593,-0.006050214121101593
251.27800000000002,0.005465114788066268,-0.005465114788066268
251.279,0.00412912097456392,-0.00412912097456392
251.28,0.0023953926219825636,-0.0023953926219825636
251.281,0.000698266600010808,-0.000698266600010808
251.282,0.0005801453784173308,0.0005801453784173308
251.28300000000002,0.0012248330393756417,0.0012248330393756417
251.28400000000002,0.0012460151634092617,0.0012460151634092617
251.285,0.0008611186796075173,0.0008611186796075173
251.286,0.0004070230418159836,0.0004070230418159836
251.287,0.00021292341742179012,0.00021292341742179012
251.288,0.00047784547147151804,0.00047784547147151804
251.28900000000002,0.0011953450770393653,0.0011953450770393653
251.29000000000002,0.0021516119484070663,0.0021516119484070663
251.291,0.0029976692681445644,0.0029976692681445644
251.292,0.003370539816321214,0.003370539816321214
251.293,0.0030212244632968404,0.0030212244632968404
251.294,0.0019051303098085329,0.0019051303098085329
251.29500000000002,0.00020396243191918593,0.00020396243191918593
251.29600000000002,0.001727732503443226,-0.001727732503443226
251.297,0.003471858112600753,-0.003471858112600753
251.298,0.004673310976454829,-0.004673310976454829
251.299,0.005140129960595412,-0.005140129960595412
251.3,0.004884225817312548,-0.004884225817312548
251.30100000000002,0.004091922746931598,-0.004091922746931598
251.30200000000002,0.0030391790945175612,-0.0030391790945175612
251.303,0.001985910838454852,-0.001985910838454852
251.304,0.0010901528948217482,-0.0010901528948217482
251.305,0.0003736393616844569,-0.0003736393616844569
251.306,0.0002506701084290152,0.0002506701084290152
251.30700000000002,0.0009034972721049852,0.0009034972721049852
251.30800000000002,0.001650178543136297,0.001650178543136297
251.309,0.002437267099074535,0.002437267099074535
251.31,0.0030847787353538245,0.0030847787353538245
251.311,0.0033420777502682374,0.0033420777502682374
251.312,0.002989303943051274,0.002989303943051274
251.31300000000002,0.0019460259348634918,0.0019460259348634918
251.31400000000002,0.0003425450167514787,0.0003425450167514787
251.315,0.0014799661091160815,-0.0014799661091160815
251.316,0.003049764775739522,-0.003049764775739522
251.317,0.0039047718034308796,-0.0039047718034308796
251.318,0.003748043061356351,-0.003748043061356351
251.31900000000002,0.0025644199699349545,-0.0025644199699349545
251.32000000000002,0.0006539311846616951,-0.0006539311846616951
251.321,0.0014364019248582923,0.0014364019248582923
251.322,0.003066726754597963,0.003066726754597963
251.323,0.0036986434669116163,0.0036986434669116163
251.324,0.0030680020643670427,0.0030680020643670427
251.32500000000002,0.001279203302534763,0.001279203302534763
251.32600000000002,0.0012120717853946526,-0.0012120717853946526
251.327,0.0037252386057960254,-0.0037252386057960254
251.328,0.005552497474573146,-0.005552497474573146
251.329,0.006166773066551913,-0.006166773066551913
251.33,0.005375445818934397,-0.005375445818934397
251.33100000000002,0.0033729684896439296,-0.0033729684896439296
251.33200000000002,0.0006779867673407479,-0.0006779867673407479
251.333,0.002022849822195081,0.002022849822195081
251.334,0.004073689206051187,0.004073689206051187
251.335,0.005028869499677707,0.005028869499677707
251.336,0.004759882356551709,0.004759882356551709
251.33700000000002,0.0034624503536535983,0.0034624503536535983
251.33800000000002,0.0015692376281129267,0.0015692376281129267
251.339,0.0003971344009687832,-0.0003971344009687832
251.34,0.0019801658389992883,-0.0019801658389992883
251.341,0.0029057823159389334,-0.0029057823159389334
251.342,0.003127577782104307,-0.003127577782104307
251.34300000000002,0.002796047896206984,-0.002796047896206984
251.34400000000002,0.002172333309643793,-0.002172333309643793
251.345,0.0015229439908132478,-0.0015229439908132478
251.346,0.0010336861946031583,-0.0010336861946031583
251.347,0.0007692421164284019,-0.0007692421164284019
251.348,0.0006850059642273013,-0.0006850059642273013
251.34900000000002,0.0006777883792465292,-0.0006777883792465292
251.35000000000002,0.0006492166793740405,-0.0006492166793740405
251.351,0.0005541873822762249,-0.0005541873822762249
251.352,0.00041611451031087546,-0.00041611451031087546
251.353,0.0003064098993404389,-0.0003064098993404389
251.354,0.0003009660759539657,-0.0003009660759539657
251.35500000000002,0.0004352993944765968,-0.0004352993944765968
251.35600000000002,0.0006792729496532433,-0.0006792729496532433
251.357,0.0009427914000304612,-0.0009427914000304612
251.358,0.0011098854935470577,-0.0011098854935470577
251.359,0.0010861639479492007,-0.0010861639479492007
251.36,0.0008388684797009663,-0.0008388684797009663
251.36100000000002,0.00041200581021968535,-0.00041200581021968535
251.36200000000002,9.022155221785665e-05,9.022155221785665e-05
251.363,0.0005447777149727919,0.0005447777149727919
251.364,0.0008581990372025335,0.0008581990372025335
251.365,0.0010009204329568895,0.0010009204329568895
251.366,0.0010120630871026705,0.0010120630871026705
251.36700000000002,0.0009717567725258514,0.0009717567725258514
251.36800000000002,0.0009523959420540706,0.0009523959420540706
251.369,0.000970372035433168,0.000970372035433168
251.37,0.0009613152674336736,0.0009613152674336736
251.371,0.0007936121459252869,0.0007936121459252869
251.372,0.0003197631638461206,0.0003197631638461206
251.37300000000002,0.0005512182313171034,-0.0005512182313171034
251.37400000000002,0.0017881379211754586,-0.0017881379211754586
251.375,0.003207259932729016,-0.003207259932729016
251.376,0.004495393044818052,-0.004495393044818052
251.377,0.0052861217832374345,-0.0052861217832374345
251.37800000000001,0.005268892685172035,-0.005268892685172035
251.37900000000002,0.0042965363740896075,-0.0042965363740896075
251.38000000000002,0.0024541143549498216,-0.0024541143549498216
251.381,6.235307051214184e-05,-6.235307051214184e-05
251.382,0.002390697408587722,0.002390697408587722
251.383,0.004372545042720795,0.004372545042720795
251.38400000000001,0.0054477589746350415,0.0054477589746350415
251.38500000000002,0.005395008101919776,0.005395008101919776
251.38600000000002,0.004263588321294949,0.004263588321294949
251.387,0.0023524165626269294,0.0023524165626269294
251.388,0.0001190992987648005,0.0001190992987648005
251.389,0.0019513905655014544,-0.0019513905655014544
251.39000000000001,0.003476996747267993,-0.003476996747267993
251.39100000000002,0.004268321323008051,-0.004268321323008051
251.392,0.004353086920999024,-0.004353086920999024
251.393,0.003932824791947758,-0.003932824791947758
251.394,0.0032912734948889574,-0.0032912734948889574
251.395,0.0026883084068503064,-0.0026883084068503064
251.39600000000002,0.0022754523647979014,-0.0022754523647979014
251.39700000000002,0.002059041507923378,-0.002059041507923378
251.398,0.0019190488011101476,-0.0019190488011101476
251.399,0.001672090079706782,-0.001672090079706782
251.4,0.0011530419798222362,-0.0011530419798222362
251.401,0.00028547419589052816,-0.00028547419589052816
251.40200000000002,0.0008825345701416017,0.0008825345701416017
251.40300000000002,0.002186733269354728,0.002186733269354728
251.404,0.003392817523389271,0.003392817523389271
251.405,0.00426184733735107,0.00426184733735107
251.406,0.004612116913577005,0.004612116913577005
251.407,0.004358801484002869,0.004358801484002869
251.40800000000002,0.003522964184347547,0.003522964184347547
251.40900000000002,0.0022133365511513283,0.0022133365511513283
251.41,0.0005929928973661239,0.0005929928973661239
251.411,0.0011544134515270822,-0.0011544134515270822
251.412,0.002848079869959877,-0.002848079869959877
251.413,0.004320310905568218,-0.004320310905568218
251.41400000000002,0.005418776015833872,-0.005418776015833872
251.41500000000002,0.006010260923991327,-0.006010260923991327
251.416,0.005994037413562743,-0.005994037413562743
251.417,0.0053265550066212775,-0.0053265550066212775
251.418,0.004050665632581272,-0.004050665632581272
251.419,0.002316104232790435,-0.002316104232790435
251.42000000000002,0.000376894971197012,-0.000376894971197012
251.42100000000002,0.0014429892259125512,0.0014429892259125512
251.422,0.002813558976576215,0.002813558976576215
251.423,0.0034780738478985143,0.0034780738478985143
251.424,0.0033247999226083203,0.0033247999226083203
251.425,0.0024271909027221497,0.0024271909027221497
251.42600000000002,0.0010358421540072858,0.0010358421540072858
251.42700000000002,0.0004802751079953338,-0.0004802751079953338
251.428,0.0017294529221475318,-0.0017294529221475318
251.429,0.0024030310839900713,-0.0024030310839900713
251.43,0.0023598679599338744,-0.0023598679599338744
251.431,0.0016634641368417401,-0.0016634641368417401
251.43200000000002,0.0005598115600739134,-0.0005598115600739134
251.43300000000002,0.0005976835608772989,0.0005976835608772989
251.434,0.0014534155066797082,0.0014534155066797082
251.435,0.001752957137631693,0.001752957137631693
251.436,0.0014136602996906976,0.0014136602996906976
251.437,0.000542307376278994,0.000542307376278994
251.43800000000002,0.0006035553434613497,-0.0006035553434613497
251.43900000000002,0.0016967264934816028,-0.0016967264934816028
251.44,0.0024378591525774894,-0.0024378591525774894
251.441,0.002639848138631375,-0.002639848138631375
251.442,0.002275350019720945,-0.002275350019720945
251.443,0.00147626298603632,-0.00147626298603632
251.44400000000002,0.0004888883335680518,-0.0004888883335680518
251.44500000000002,0.0003991166766420875,0.0003991166766420875
251.446,0.0009375477630217633,0.0009375477630217633
251.447,0.0009766995321705452,0.0009766995321705452
251.448,0.0005000406102516527,0.0005000406102516527
251.449,0.0003781690367141408,-0.0003781690367141408
251.45000000000002,0.0014455357704859656,-0.0014455357704859656
251.45100000000002,0.0024433200811588836,-0.0024433200811588836
251.452,0.0031240333709681672,-0.0031240333709681672
251.453,0.003302970772259787,-0.003302970772259787
251.454,0.0028952717433318362,-0.0028952717433318362
251.455,0.001933841457967353,-0.001933841457967353
251.45600000000002,0.0005664132824669584,-0.0005664132824669584
251.45700000000002,0.0009678777894448148,0.0009678777894448148
251.458,0.0023801081936836773,0.0023801081936836773
251.459,0.0033864832759666853,0.0033864832759666853
251.46,0.0037682663356964985,0.0037682663356964985
251.461,0.003425011552647847,0.003425011552647847
251.46200000000002,0.0024076347935982883,0.0024076347935982883
251.46300000000002,0.0009195263323439617,0.0009195263323439617
251.464,0.0007200769971919944,-0.0007200769971919944
251.465,0.0021465928065291786,-0.0021465928065291786
251.466,0.003039798508026637,-0.003039798508026637
251.467,0.003209750819528948,-0.003209750819528948
251.46800000000002,0.002653601524434294,-0.002653601524434294
251.46900000000002,0.0015636064983706227,-0.0015636064983706227
251.47,0.00027952178757723967,-0.00027952178757723967
251.471,0.0008046683495608657,0.0008046683495608657
251.472,0.0013544290770600906,0.0013544290770600906
251.473,0.0011950256462952946,0.0011950256462952946
251.47400000000002,0.00036675359669631024,0.00036675359669631024
251.47500000000002,0.000884167519265724,-0.000884167519265724
251.476,0.002178521436763334,-0.002178521436763334
251.477,0.0031196843632746506,-0.0031196843632746506
251.478,0.0034161255367416575,-0.0034161255367416575
251.479,0.002971784683117984,-0.002971784683117984
251.48000000000002,0.0019149029957695022,-0.0019149029957695022
251.48100000000002,0.0005555714008610856,-0.0005555714008610856
251.482,0.0007143925174685407,0.0007143925174685407
251.483,0.0015464984226646328,0.0015464984226646328
251.484,0.0017445256731570909,0.0017445256731570909
251.485,0.0013218132255288883,0.0013218132255288883
251.48600000000002,0.0004888767798193162,0.0004888767798193162
251.48700000000002,0.0004231168627007622,-0.0004231168627007622
251.488,0.0010760387272182386,-0.0010760387272182386
251.489,0.001236727981544392,-0.001236727981544392
251.49,0.0008498558791563956,-0.0008498558791563956
251.491,4.8832913896723654e-05,-4.8832913896723654e-05
251.49200000000002,0.000896187212528853,0.000896187212528853
251.49300000000002,0.0016725668761516585,0.0016725668761516585
251.494,0.002027470498318551,0.002027470498318551
251.495,0.0018429530717254119,0.0018429530717254119
251.496,0.001160209555569815,0.001160209555569815
251.497,0.00014887424720425298,0.00014887424720425298
251.49800000000002,0.0009626971558655975,-0.0009626971558655975
251.49900000000002,0.0019671216016425353,-0.0019671216016425353
251.5,0.002737117954431531,-0.002737117954431531
251.501,0.003243813336494414,-0.003243813336494414
251.502,0.0035316924779665135,-0.0035316924779665135
251.50300000000001,0.0036656696275492455,-0.0036656696275492455
251.50400000000002,0.0036768813120164226,-0.0036768813120164226
251.50500000000002,0.003533600914400011,-0.003533600914400011
251.506,0.003152245771807796,-0.003152245771807796
251.507,0.002445378005748258,-0.002445378005748258
251.508,0.0013862439804995792,-0.0013862439804995792
251.50900000000001,6.0005641046454586e-05,-6.0005641046454586e-05
251.51000000000002,0.0013253396491360741,0.0013253396491360741
251.51100000000002,0.002480772685001629,0.002480772685001629
251.512,0.0031221404608449124,0.0031221404608449124
251.513,0.003071984959580932,0.003071984959580932
251.514,0.002339228476201061,0.002339228476201061
251.51500000000001,0.0011428414107846863,0.0011428414107846863
251.51600000000002,0.00013660600778408878,-0.00013660600778408878
251.517,0.001068115805695947,-0.001068115805695947
251.518,0.0013106880125086766,-0.0013106880125086766
251.519,0.0007359754705306889,-0.0007359754705306889
251.52,0.00051121281564594,0.00051121281564594
251.52100000000002,0.0020401210237124714,0.0020401210237124714
251.52200000000002,0.0033254855910760223,0.0033254855910760223
251.523,0.0038703772692527047,0.0038703772692527047
251.524,0.0033684028374862825,0.0033684028374862825
251.525,0.001811303576176869,0.001811303576176869
251.526,0.0004953975746988723,-0.0004953975746988723
251.52700000000002,0.003016187076869523,-0.003016187076869523
251.52800000000002,0.00514323836130572,-0.00514323836130572
251.529,0.006377567480092665,-0.006377567480092665
251.53,0.006475231954737016,-0.006475231954737016
251.531,0.005511800407353168,-0.005511800407353168
251.532,0.0038456984086856928,-0.0038456984086856928
251.53300000000002,0.001994702061928591,-0.001994702061928591
251.53400000000002,0.00046823847898705217,-0.00046823847898705217
251.535,0.00038837922386827966,0.00038837922386827966
251.536,0.0004874567909925567,0.0004874567909925567
251.537,2.507813724837831e-06,2.507813724837831e-06
251.538,0.0007144052934319949,-0.0007144052934319949
251.53900000000002,0.0012689707915499611,-0.0012689707915499611
251.54000000000002,0.001365325319169179,-0.001365325319169179
251.541,0.0009029129007526911,-0.0009029129007526911
251.542,1.1010040469843325e-06,1.1010040469843325e-06
251.543,0.0010670356162477007,0.0010670356162477007
251.544,0.001961498812480292,0.001961498812480292
251.54500000000002,0.0024183687065067374,0.0024183687065067374
251.54600000000002,0.002328632746443727,0.002328632746443727
251.547,0.0017692939322522415,0.0017692939322522415
251.548,0.0009649239197711595,0.0009649239197711595
251.549,0.00019978269077593826,0.00019978269077593826
251.55,0.00028506691927960816,-0.00028506691927960816
251.55100000000002,0.0003720759606032666,-0.0003720759606032666
251.55200000000002,9.798709436971717e-05,-9.798709436971717e-05
251.553,0.0003722093024075368,0.0003722093024075368
251.554,0.0008144076511640453,0.0008144076511640453
251.555,0.0010293506754387506,0.0010293506754387506
251.556,0.0009100911944422498,0.0009100911944422498
251.55700000000002,0.00047037130811931356,0.00047037130811931356
251.55800000000002,0.00017219822805422148,-0.00017219822805422148
251.559,0.0008469080913026097,-0.0008469080913026097
251.56,0.0013918909686181807,-0.0013918909686181807
251.561,0.001702822443700967,-0.001702822443700967
251.562,0.001752146909154158,-0.001752146909154158
251.56300000000002,0.0015765595141537696,-0.0015765595141537696
251.56400000000002,0.0012440757825989334,-0.0012440757825989334
251.565,0.0008195439282034271,-0.0008195439282034271
251.566,0.00034597531243281643,-0.00034597531243281643
251.567,0.00015040166079355633,0.00015040166079355633
251.568,0.0006364586789282822,0.0006364586789282822
251.56900000000002,0.001045490490606036,0.001045490490606036
251.57000000000002,0.0012663037794448343,0.0012663037794448343
251.571,0.0011607693810028895,0.0011607693810028895
251.572,0.0006095390719473053,0.0006095390719473053
251.573,0.0004288531805517671,-0.0004288531805517671
251.574,0.0018698131899135253,-0.0018698131899135253
251.57500000000002,0.003489585400565817,-0.003489585400565817
251.57600000000002,0.004960630844265399,-0.004960630844265399
251.577,0.005931047726370204,-0.005931047726370204
251.578,0.0061254238841014835,-0.0061254238841014835
251.579,0.005433416683894751,-0.005433416683894751
251.58,0.00395343690048719,-0.00395343690048719
251.58100000000002,0.0019726312154530975,-0.0019726312154530975
251.58200000000002,0.0001135636543079674,0.0001135636543079674
251.583,0.0019167207990182546,0.0019167207990182546
251.584,0.003166102225623475,0.003166102225623475
251.585,0.0037755908039723463,0.0037755908039723463
251.586,0.003842970175452569,0.003842970175452569
251.58700000000002,0.0035826202292145518,0.0035826202292145518
251.58800000000002,0.003218244300619216,0.003218244300619216
251.589,0.002878499541814608,0.002878499541814608
251.59,0.0025385948821022913,0.0025385948821022913
251.591,0.0020341640778811644,0.0020341640778811644
251.592,0.0011456539595496838,0.0011456539595496838
251.59300000000002,0.00027758250204358906,-0.00027758250204358906
251.59400000000002,0.0022030497060568405,-0.0022030497060568405
251.595,0.004360789377725691,-0.004360789377725691
251.596,0.006279884621923621,-0.006279884621923621
251.597,0.007413938548404679,-0.007413938548404679
251.598,0.0073189126535045,-0.0073189126535045
251.59900000000002,0.005822998836363881,-0.005822998836363881
251.60000000000002,0.003125230439520733,-0.003125230439520733
251.601,0.00022018044140685068,0.00022018044140685068
251.602,0.003439241800658867,0.003439241800658867
251.603,0.005756645151826521,0.005756645151826521
251.604,0.0066289451769339725,0.0066289451769339725
251.60500000000002,0.0059148808895951015,0.0059148808895951015
251.60600000000002,0.0039229227234958515,0.0039229227234958515
251.607,0.001315622639543276,0.001315622639543276
251.608,0.0011014167282205917,-0.0011014167282205917
251.609,0.0026378581209702836,-0.0026378581209702836
251.61,0.002938265071736658,-0.002938265071736658
251.61100000000002,0.0020885820648398907,-0.0020885820648398907
251.61200000000002,0.00057258884116484,-0.00057258884116484
251.613,0.0009073892861022786,0.0009073892861022786
251.614,0.0016841725751421672,0.0016841725751421672
251.615,0.001366073548321518,0.001366073548321518
251.616,1.999837932055843e-05,-1.999837932055843e-05
251.61700000000002,0.002033375048843362,-0.002033375048843362
251.61800000000002,0.003971819622402408,-0.003971819622402408
251.619,0.005118869190599146,-0.005118869190599146
251.62,0.005000309589851778,-0.005000309589851778
251.621,0.0035597689108952334,-0.0035597689108952334
251.622,0.001190913520404053,-0.001190913520404053
251.62300000000002,0.0013866769821493834,0.0013866769821493834
251.62400000000002,0.003366418587522384,0.003366418587522384
251.625,0.004126589859532961,0.004126589859532961
251.626,0.003441376933252849,0.003441376933252849
251.627,0.0015579767201806985,0.0015579767201806985
251.62800000000001,0.0008872172546638808,-0.0008872172546638808
251.62900000000002,0.0030847497365491193,-0.0030847497365491193
251.63000000000002,0.0043263123180248145,-0.0043263123180248145
251.631,0.004242908456951376,-0.004242908456951376
251.632,0.002925590859031452,-0.002925590859031452
251.633,0.0008881611642124051,-0.0008881611642124051
251.63400000000001,0.0011142553323310064,0.0011142553323310064
251.63500000000002,0.002347540330018074,0.002347540330018074
251.63600000000002,0.0023514918220891422,0.0023514918220891422
251.637,0.0010971840243379205,0.0010971840243379205
251.638,0.0010036930498891624,-0.0010036930498891624
251.639,0.0032388792141375454,-0.0032388792141375454
251.64000000000001,0.004835625978414885,-0.004835625978414885
251.64100000000002,0.00521852317410688,-0.00521852317410688
251.642,0.004198504918327001,-0.004198504918327001
251.643,0.0020316420203967097,-0.0020316420203967097
251.644,0.0006684244564241185,0.0006684244564241185
251.645,0.0031312425442100696,0.0031312425442100696
251.64600000000002,0.004673880213018128,0.004673880213018128
251.64700000000002,0.0049075468561804066,0.0049075468561804066
251.648,0.0038413517410413015,0.0038413517410413015
251.649,0.0018552839471295136,0.0018552839471295136
251.65,0.0004408069348601517,-0.0004408069348601517
251.651,0.002408901365896021,-0.002408901365896021
251.65200000000002,0.0035754746449437767,-0.0035754746449437767
251.65300000000002,0.003753678444160961,-0.003753678444160961
251.654,0.0030620722116635364,-0.0030620722116635364
251.655,0.0018445114034143651,-0.0018445114034143651
251.656,0.0005287774319044409,-0.0005287774319044409
251.657,0.0005212894161951297,0.0005212894161951297
251.65800000000002,0.0011088973214652255,0.0011088973214652255
251.65900000000002,0.0012327473557543823,0.0012327473557543823
251.66,0.0010410428190240706,0.0010410428190240706
251.661,0.0007385483610194945,0.0007385483610194945
251.662,0.0004887480921050613,0.0004887480921050613
251.663,0.00035054911479462375,0.00035054911479462375
251.66400000000002,0.00027143549968703404,0.00027143549968703404
251.66500000000002,0.00013422841365661438,0.00013422841365661438
251.666,0.00016731650904575868,-0.00016731650904575868
251.667,0.0006595274428632889,-0.0006595274428632889
251.668,0.0012576833889001808,-0.0012576833889001808
251.669,0.0017871315154591916,-0.0017871315154591916
251.67000000000002,0.0020487465478933537,-0.0020487465478933537
251.67100000000002,0.0019020848904570597,-0.0019020848904570597
251.672,0.0013318190675276566,-0.0013318190675276566
251.673,0.0004691728421873566,-0.0004691728421873566
251.674,0.00044245337453675023,0.00044245337453675023
251.675,0.0011266240042359895,0.0011266240042359895
251.67600000000002,0.001369057221580332,0.001369057221580332
251.67700000000002,0.0010934813486888116,0.0010934813486888116
251.678,0.0003896509647526541,0.0003896509647526541
251.679,0.0005172809646656272,-0.0005172809646656272
251.68,0.001345103538040167,-0.001345103538040167
251.681,0.0018521440521136036,-0.0018521440521136036
251.68200000000002,0.0019188717895654973,-0.0019188717895654973
251.68300000000002,0.0015845749374975937,-0.0015845749374975937
251.684,0.0010270006810322184,-0.0010270006810322184
251.685,0.0004937170408979549,-0.0004937170408979549
251.686,0.00021105716230379257,-0.00021105716230379257
251.687,0.00030366133017544833,-0.00030366133017544833
251.68800000000002,0.0007525595678940377,-0.0007525595678940377
251.68900000000002,0.0014047878112994332,-0.0014047878112994332
251.69,0.0020286312215513284,-0.0020286312215513284
251.691,0.0023928722266331574,-0.0023928722266331574
251.692,0.0023414812841183468,-0.0023414812841183468
251.693,0.0018390275978729038,-0.0018390275978729038
251.69400000000002,0.0009745288944306092,-0.0009745288944306092
251.69500000000002,7.279993270922496e-05,7.279993270922496e-05
251.696,0.0010896088033692424,0.0010896088033692424
251.697,0.0018847077424990354,0.0018847077424990354
251.698,0.002327587326323824,0.002327587326323824
251.699,0.0023612309895892627,0.0023612309895892627
251.70000000000002,0.001993014003055062,0.001993014003055062
251.70100000000002,0.0012756583386746383,0.0012756583386746383
251.702,0.0002915018875701399,0.0002915018875701399
251.703,0.0008523269307998831,-0.0008523269307998831
251.704,0.002019706940792974,-0.002019706940792974
251.705,0.0030424942300805546,-0.0030424942300805546
251.70600000000002,0.0037315323615737324,-0.0037315323615737324
251.70700000000002,0.003909608068177797,-0.003909608068177797
251.708,0.0034632627985924365,-0.0034632627985924365
251.709,0.002398030555417194,-0.002398030555417194
251.71,0.000873887350469623,-0.000873887350469623
251.711,0.0008009571811802234,0.0008009571811802234
251.71200000000002,0.002228228039552066,0.002228228039552066
251.71300000000002,0.0030214656148854235,0.0030214656148854235
251.714,0.0029245070909441192,0.0029245070909441192
251.715,0.0019079613538830638,0.0019079613538830638
251.716,0.00020660804077683522,0.00020660804077683522
251.717,0.0017236190217337166,-0.0017236190217337166
251.71800000000002,0.0033247285817229275,-0.0033247285817229275
251.71900000000002,0.0041003925808076715,-0.0041003925808076715
251.72,0.003774128116535535,-0.003774128116535535
251.721,0.0023890802138228136,-0.0023890802138228136
251.722,0.00031216310604814825,-0.00031216310604814825
251.723,0.001864949514676261,0.001864949514676261
251.72400000000002,0.0035012287200662587,0.0035012287200662587
251.72500000000002,0.004104309193711104,0.004104309193711104
251.726,0.0034873804519969373,0.0034873804519969373
251.727,0.0018325376758361325,0.0018325376758361325
251.728,0.0003623042725692189,-0.0003623042725692189
251.729,0.00243772771501405,-0.00243772771501405
251.73000000000002,0.0037793536560084937,-0.0037793536560084937
251.73100000000002,0.00400979841643908,-0.00400979841643908
251.732,0.0031037701792582875,-0.0031037701792582875
251.733,0.0013895562938883365,-0.0013895562938883365
251.734,0.0005619882431417442,0.0005619882431417442
251.735,0.002122632617216268,0.002122632617216268
251.73600000000002,0.0028040237881063915,0.0028040237881063915
251.73700000000002,0.0024025202874794218,0.0024025202874794218
251.738,0.001046676609095765,0.001046676609095765
251.739,0.0008632818374657703,-0.0008632818374657703
251.74,0.0027979156072352003,-0.0027979156072352003
251.741,0.004270558648191417,-0.004270558648191417
251.74200000000002,0.004979428313088225,-0.004979428313088225
251.74300000000002,0.0048745559055422575,-0.0048745559055422575
251.744,0.004133625920521076,-0.004133625920521076
251.745,0.0030642994117899332,-0.0030642994117899332
251.746,0.001975828743213235,-0.001975828743213235
251.747,0.0010707928341486446,-0.0010707928341486446
251.74800000000002,0.00039628200257303664,-0.00039628200257303664
251.74900000000002,0.00013209538513458805,0.00013209538513458805
251.75,0.0006500140006937272,0.0006500140006937272
251.751,0.0012469735276748643,0.0012469735276748643
251.752,0.0018965304377124965,0.0018965304377124965
251.75300000000001,0.0024467216752125424,0.0024467216752125424
251.75400000000002,0.002677322134047888,0.002677322134047888
251.75500000000002,0.0024016263840309095,0.0024016263840309095
251.756,0.0015700212995052362,0.0015700212995052362
251.757,0.0003291366434625561,0.0003291366434625561
251.758,0.00099427176357763,-0.00099427176357763
251.75900000000001,0.0019867982416336316,-0.0019867982416336316
251.76000000000002,0.00229003819070507,-0.00229003819070507
251.76100000000002,0.0017396256806146192,-0.0017396256806146192
251.762,0.00044781062027428244,-0.00044781062027428244
251.763,0.0012067308013603562,0.0012067308013603562
251.764,0.0026857598889423718,0.0026857598889423718
251.76500000000001,0.0034632549945367596,0.0034632549945367596
251.76600000000002,0.0032046556625539165,0.0032046556625539165
251.767,0.0018903700645152466,0.0018903700645152466
251.768,0.00016257753296344756,-0.00016257753296344756
251.769,0.0023924369503280037,-0.0023924369503280037
251.77,0.004170024684081505,-0.004170024684081505
251.77100000000002,0.005002381387560259,-0.005002381387560259
251.77200000000002,0.004693136604274271,-0.004693136604274271
251.773,0.00340383878042143,-0.00340383878042143
251.774,0.0015944202663685596,-0.0015944202663685596
251.775,0.00013694857491837364,0.00013694857491837364
251.776,0.0012590286200904303,0.0012590286200904303
251.77700000000002,0.001486199777458624,0.001486199777458624
251.77800000000002,0.0008684745210917502,0.0008684745210917502
251.779,0.00023800281872536188,-0.00023800281872536188
251.78,0.0013085152721230807,-0.0013085152721230807
251.781,0.0018457472510605762,-0.0018457472510605762
251.782,0.0015640541150035506,-0.0015640541150035506
251.78300000000002,0.0004964137889917517,-0.0004964137889917517
251.78400000000002,0.001013742475339801,0.001013742475339801
251.785,0.002432514091757977,0.002432514091757977
251.786,0.0032243368108252892,0.0032243368108252892
251.787,0.0030424837012595477,0.0030424837012595477
251.788,0.0018540301628022604,0.0018540301628022604
251.78900000000002,4.420957184608414e-05,-4.420957184608414e-05
251.79000000000002,0.0021233918214379754,-0.0021233918214379754
251.791,0.003798627718519416,-0.003798627718519416
251.792,0.004621015770139455,-0.004621015770139455
251.793,0.004419121049788325,-0.004419121049788325
251.794,0.003342558729538897,-0.003342558729538897
251.79500000000002,0.0017958984880051025,-0.0017958984880051025
251.79600000000002,0.00028991786470793085,-0.00028991786470793085
251.797,0.0007346574386158875,0.0007346574386158875
251.798,0.0010481826091473978,0.0010481826091473978
251.799,0.0006902273242949287,0.0006902273242949287
251.8,7.116979333721195e-05,-7.116979333721195e-05
251.80100000000002,0.0008587902240913865,-0.0008587902240913865
251.80200000000002,0.0013361338562420636,-0.0013361338562420636
251.803,0.0013309516822776425,-0.0013309516822776425
251.804,0.0008877343847063919,-0.0008877343847063919
251.805,0.0002329545404517763,-0.0002329545404517763
251.806,0.0003295136278461315,0.0003295136278461315
251.80700000000002,0.0005493005480946757,0.0005493005480946757
251.80800000000002,0.0003343848615669079,0.0003343848615669079
251.809,0.00021121340410129908,-0.00021121340410129908
251.81,0.0008311071713679418,-0.0008311071713679418
251.811,0.0012237869115047527,-0.0012237869115047527
251.812,0.0011707271971509658,-0.0011707271971509658
251.81300000000002,0.0006342897448492662,-0.0006342897448492662
251.81400000000002,0.00021431962320565264,0.00021431962320565264
251.815,0.00105010919100935,0.00105010919100935
251.816,0.0015135364171478384,0.0015135364171478384
251.817,0.0013500194695192373,0.0013500194695192373
251.818,0.0005171113411843577,0.0005171113411843577
251.81900000000002,0.0007822695144352472,-0.0007822695144352472
251.82000000000002,0.0021554364500444055,-0.0021554364500444055
251.821,0.003146687538262387,-0.003146687538262387
251.822,0.0033912085613432633,-0.0033912085613432633
251.823,0.0027417593588538293,-0.0027417593588538293
251.824,0.0013232145041509867,-0.0013232145041509867
251.82500000000002,0.0005042269309790446,0.0005042269309790446
251.82600000000002,0.0022597845237534615,0.0022597845237534615
251.827,0.0034939716956520015,0.0034939716956520015
251.828,0.003924424279799389,0.003924424279799389
251.829,0.0035095539218425002,0.0035095539218425002
251.83,0.0024374879799686357,0.0024374879799686357
251.83100000000002,0.001038958234048425,0.001038958234048425
251.83200000000002,0.00034001100135066945,-0.00034001100135066945
251.833,0.0014565647396022276,-0.0014565647396022276
251.834,0.002237005039379293,-0.002237005039379293
251.835,0.0027683612719472026,-0.0027683612719472026
251.836,0.003223105780108156,-0.003223105780108156
251.83700000000002,0.0037506305415035204,-0.0037506305415035204
251.83800000000002,0.004381821502134689,-0.004381821502134689
251.839,0.004987679585648531,-0.004987679585648531
251.84,0.005311538267434645,-0.005311538267434645
251.841,0.005065179976150024,-0.005065179976150024
251.842,0.004053208002710464,-0.004053208002710464
251.84300000000002,0.0022773342724288926,-0.0022773342724288926
251.84400000000002,2.2196629591417373e-05,2.2196629591417373e-05
251.845,0.0024088334655294323,0.0024088334655294323
251.846,0.004365949832236011,0.004365949832236011
251.847,0.005449780418434536,0.005449780418434536
251.848,0.005427155327169445,0.005427155327169445
251.84900000000002,0.004350101468722704,0.004350101468722704
251.85000000000002,0.002540673037679033,0.002540673037679033
251.851,0.0004903805277597487,0.0004903805277597487
251.852,0.0012918417345697977,-0.0012918417345697977
251.853,0.002431671064997888,-0.002431671064997888
251.854,0.002790719369608346,-0.002790719369608346
251.85500000000002,0.002485002871270293,-0.002485002871270293
251.85600000000002,0.001817967564188699,-0.001817967564188699
251.857,0.0011552767804456194,-0.0011552767804456194
251.858,0.0007879586979526857,-0.0007879586979526857
251.859,0.0008327842215734065,-0.0008327842215734065
251.86,0.0012035024135825158,-0.0012035024135825158
251.86100000000002,0.0016597513214105318,-0.0016597513214105318
251.86200000000002,0.001912092764666792,-0.001912092764666792
251.863,0.0017420182594381362,-0.0017420182594381362
251.864,0.0010918077034496325,-0.0010918077034496325
251.865,9.176513793054607e-05,-9.176513793054607e-05
251.866,0.0009835319841938603,0.0009835319841938603
251.86700000000002,0.0018119599864498757,0.0018119599864498757
251.86800000000002,0.002136683911616152,0.002136683911616152
251.869,0.0018536008238113463,0.0018536008238113463
251.87,0.0010427284945151085,0.0010427284945151085
251.871,6.537012471899668e-05,-6.537012471899668e-05
251.872,0.0011728502394003422,-0.0011728502394003422
251.87300000000002,0.0020147729402423893,-0.0020147729402423893
251.87400000000002,0.00243898970462406,-0.00243898970462406
251.875,0.002438253378860376,-0.002438253378860376
251.876,0.0021268135480461193,-0.0021268135480461193
251.877,0.0016755100555620609,-0.0016755100555620609
251.87800000000001,0.001234660647769127,-0.001234660647769127
251.87900000000002,0.0008770814447650884,-0.0008770814447650884
251.88000000000002,0.0005835391117153705,-0.0005835391117153705
251.881,0.00027414291874755124,-0.00027414291874755124
251.882,0.00013061319487622021,0.00013061319487622021
251.883,0.0006481804378116137,0.0006481804378116137
251.88400000000001,0.0012011400581873493,0.0012011400581873493
251.88500000000002,0.001630652237114588,0.001630652237114588
251.88600000000002,0.001753776562116601,0.001753776562116601
251.887,0.0014427598933785903,0.0014427598933785903
251.888,0.000693238929171529,0.000693238929171529
251.889,0.0003495698218821442,-0.0003495698218821442
251.89000000000001,0.0014225054217136513,-0.0014225054217136513
251.89100000000002,0.0022271448900956473,-0.0022271448900956473
251.892,0.0025354085803335376,-0.0025354085803335376
251.893,0.0022784674692235725,-0.0022784674692235725
251.894,0.0015827885083316417,-0.0015827885083316417
251.895,0.0007350490551726386,-0.0007350490551726386
251.89600000000002,8.382540712076461e-05,-8.382540712076461e-05
251.89700000000002,8.923606274513957e-05,8.923606274513957e-05
251.898,0.0003177957063818873,-0.0003177957063818873
251.899,0.0011740001963264648,-0.0011740001963264648
251.9,0.0021461957320231535,-0.0021461957320231535
251.901,0.0028077082839338104,-0.0028077082839338104
251.90200000000002,0.0027905738600640245,-0.0027905738600640245
251.90300000000002,0.0019284701614721577,-0.0019284701614721577
251.904,0.0003380453532678417,-0.0003380453532678417
251.905,0.0015943411919336233,0.0015943411919336233
251.906,0.0033213792828087558,0.0033213792828087558
251.907,0.004306254912649792,0.004306254912649792
251.90800000000002,0.004200591559122629,0.004200591559122629
251.90900000000002,0.002968293833933966,0.002968293833933966
251.91,0.0009113508673694527,0.0009113508673694527
251.911,0.0014140062036738753,-0.0014140062036738753
251.912,0.0033653839311375204,-0.0033653839311375204
251.913,0.004412269253949115,-0.004412269253949115
251.91400000000002,0.004299159628774432,-0.004299159628774432
251.91500000000002,0.0031203698169151523,-0.0031203698169151523
251.916,0.0012827447844085847,-0.0012827447844085847
251.917,0.0006299122426793242,0.0006299122426793242
251.918,0.002044348501244843,0.002044348501244843
251.919,0.0025746122558698275,0.0025746122558698275
251.92000000000002,0.0021306081029476326,0.0021306081029476326
251.92100000000002,0.0009256993605753471,0.0009256993605753471
251.922,0.0006142279971026954,-0.0006142279971026954
251.923,0.0020046002763684603,-0.0020046002763684603
251.924,0.0028634766402536567,-0.0028634766402536567
251.925,0.003025133532272063,-0.003025133532272063
251.92600000000002,0.0025701521397726436,-0.0025701521397726436
251.92700000000002,0.001767466172328769,-0.001767466172328769
251.928,0.0009553008422163762,-0.0009553008422163762
251.929,0.0004083843453785479,-0.0004083843453785479
251.93,0.0002412413460668954,-0.0002412413460668954
251.931,0.0003815017140522033,-0.0003815017140522033
251.93200000000002,0.0006193690777462355,-0.0006193690777462355
251.93300000000002,0.0007102885432141029,-0.0007102885432141029
251.934,0.00048826731399345246,-0.00048826731399345246
251.935,5.567638728041907e-05,5.567638728041907e-05
251.936,0.0007610454917597226,0.0007610454917597226
251.937,0.0013563910568823185,0.0013563910568823185
251.93800000000002,0.001566080032384464,0.001566080032384464
251.93900000000002,0.0012236440509430942,0.0012236440509430942
251.94,0.0003471336987316678,0.0003471336987316678
251.941,0.0008539403784524024,-0.0008539403784524024
251.942,0.002044610583274925,-0.002044610583274925
251.943,0.0028800688403512074,-0.0028800688403512074
251.94400000000002,0.003128252927954593,-0.003128252927954593
251.94500000000002,0.0027533562887820675,-0.0027533562887820675
251.946,0.0019281616297845932,-0.0019281616297845932
251.947,0.000969349206480554,-0.000969349206480554
251.948,0.00021879400412261254,-0.00021879400412261254
251.949,8.542459435041475e-05,8.542459435041475e-05
251.95000000000002,0.00010012393293182796,-0.00010012393293182796
251.95100000000002,0.0006066172026598316,-0.0006066172026598316
251.952,0.0011170563425059149,-0.0011170563425059149
251.953,0.0012900587392629653,-0.0012900587392629653
251.954,0.0008984614034536923,-0.0008984614034536923
251.955,6.905623702186642e-05,6.905623702186642e-05
251.95600000000002,0.0013830933854405425,0.0013830933854405425
251.95700000000002,0.002638216337099443,0.002638216337099443
251.958,0.003387677557007862,0.003387677557007862
251.959,0.0033024569998488453,0.0033024569998488453
251.96,0.0022984968249723523,0.0022984968249723523
251.961,0.0005853848063514564,0.0005853848063514564
251.96200000000002,0.0013840343684371772,-0.0013840343684371772
251.96300000000002,0.003049568714076252,-0.003049568714076252
251.964,0.003921510779156785,-0.003921510779156785
251.965,0.003741341143720179,-0.003741341143720179
251.966,0.002570934001261147,-0.002570934001261147
251.967,0.0007792530101106328,-0.0007792530101106328
251.96800000000002,0.0010703856179279905,0.0010703856179279905
251.96900000000002,0.0023962422114396685,0.0023962422114396685
251.97,0.0027800978631473566,0.0027800978631473566
251.971,0.0020963622389195864,0.0020963622389195864
251.972,0.000547457776722851,0.000547457776722851
251.973,0.0014041338399979283,-0.0014041338399979283
251.97400000000002,0.003182953171147502,-0.003182953171147502
251.97500000000002,0.004277597584277894,-0.004277597584277894
251.976,0.0043905586588524675,-0.0043905586588524675
251.977,0.0035148681536711006,-0.0035148681536711006
251.978,0.0019174246267978795,-0.0019174246267978795
251.979,4.018078152997001e-05,-4.018078152997001e-05
251.98000000000002,0.0016436498843892527,0.0016436498843892527
251.98100000000002,0.002769069303491132,0.002769069303491132
251.982,0.0031702512933649857,0.0031702512933649857
251.983,0.002898414537661324,0.002898414537661324
251.984,0.002168646080084001,0.002168646080084001
251.985,0.0012616492339271351,0.0012616492339271351
251.98600000000002,0.0004194903464248761,0.0004194903464248761
251.98700000000002,0.0002272450448343517,-0.0002272450448343517
251.988,0.0006783755708483353,-0.0006783755708483353
251.989,0.001028563563848666,-0.001028563563848666
251.99,0.0013972908657514705,-0.0013972908657514705
251.991,0.0018561111047083229,-0.0018561111047083229
251.99200000000002,0.00238387916418059,-0.00238387916418059
251.99300000000002,0.0028678483692300125,-0.0028678483692300125
251.994,0.0031492744835001103,-0.0031492744835001103
251.995,0.003094027271349117,-0.003094027271349117
251.996,0.002658595672007052,-0.002658595672007052
251.997,0.0019234973268859837,-0.0019234973268859837
251.99800000000002,0.00107868150628925,-0.00107868150628925
251.99900000000002,0.0003641455801072444,-0.0003641455801072444
252.0,1.3447463741930316e-05,1.3447463741930316e-05
252.001,4.249050623843511e-05,-4.249050623843511e-05
252.002,0.00047743479517260213,-0.00047743479517260213
252.00300000000001,0.0010970130911368793,-0.0010970130911368793
252.00400000000002,0.001628415366004348,-0.001628415366004348
252.00500000000002,0.0018116117915958781,-0.0018116117915958781
252.006,0.0014890791999791176,-0.0014890791999791176
252.007,0.0006629543275233064,-0.0006629543275233064
252.008,0.0005001913121515389,0.0005001913121515389
252.00900000000001,0.0017185425066940743,0.0017185425066940743
252.01000000000002,0.002681198170620426,0.002681198170620426
252.01100000000002,0.0031419552351680258,0.0031419552351680258
252.012,0.002989549290630492,0.002989549290630492
252.013,0.0022722866345763772,0.0022722866345763772
252.014,0.001171529160639621,0.001171529160639621
252.01500000000001,6.365295826995965e-05,-6.365295826995965e-05
252.01600000000002,0.0011955916075250773,-0.0011955916075250773
252.017,0.0020625913684474443,-0.0020625913684474443
252.018,0.0026077983252241056,-0.0026077983252241056
252.019,0.0028657681637424704,-0.0028657681637424704
252.02,0.002916517971549549,-0.002916517971549549
252.02100000000002,0.0028288977216411213,-0.0028288977216411213
252.02200000000002,0.0026184064773778722,-0.0026184064773778722
252.023,0.002238003130964635,-0.002238003130964635
252.024,0.0016066177538248633,-0.0016066177538248633
252.025,0.0006642600999578129,-0.0006642600999578129
252.026,0.0005691178490154828,0.0005691178490154828
252.02700000000002,0.0019569786119783077,0.0019569786119783077
252.02800000000002,0.0032508974361354624,0.0032508974361354624
252.029,0.004141199436145716,0.004141199436145716
252.03,0.004341095882882747,0.004341095882882747
252.031,0.003678488964106774,0.003678488964106774
252.032,0.002164812095750092,0.002164812095750092
252.03300000000002,1.6010605478980207e-05,1.6010605478980207e-05
252.03400000000002,0.0023847002030081654,-0.0023847002030081654
252.035,0.004574172208476555,-0.004574172208476555
252.036,0.006122415896629406,-0.006122415896629406
252.037,0.006738632311608564,-0.006738632311608564
252.038,0.006339452814782731,-0.006339452814782731
252.03900000000002,0.005060514789527106,-0.005060514789527106
252.04000000000002,0.0032100998266862083,-0.0032100998266862083
252.041,0.0011810248418357944,-0.0011810248418357944
252.042,0.0006513606374659453,0.0006513606374659453
252.043,0.0020149054440669694,0.0020149054440669694
252.044,0.002787290148629439,0.002787290148629439
252.04500000000002,0.0029948018101839963,0.0029948018101839963
252.04600000000002,0.00277024909064115,0.00277024909064115
252.047,0.002289143615061773,0.002289143615061773
252.048,0.0017079739196999273,0.0017079739196999273
252.049,0.001124638708236621,0.001124638708236621
252.05,0.0005708260389616214,0.0005708260389616214
252.05100000000002,3.3406516703807255e-05,3.3406516703807255e-05
252.05200000000002,0.0005085651933667651,-0.0005085651933667651
252.053,0.0010492714394461206,-0.0010492714394461206
252.054,0.0015394810956081278,-0.0015394810956081278
252.055,0.0018950097601594736,-0.0018950097601594736
252.056,0.002026747854828889,-0.002026747854828889
252.05700000000002,0.0018797168834868091,-0.0018797168834868091
252.05800000000002,0.001464684338846923,-0.001464684338846923
252.059,0.000868372238101395,-0.000868372238101395
252.06,0.00023619666752244803,-0.00023619666752244803
252.061,0.0002682177429346535,0.0002682177429346535
252.062,0.0005136111471014708,0.0005136111471014708
252.06300000000002,0.00044437893233296804,0.00044437893233296804
252.06400000000002,0.00010116164212703509,0.00010116164212703509
252.065,0.00038924243094702057,-0.00038924243094702057
252.066,0.0008523165334665101,-0.0008523165334665101
252.067,0.0011207140251854588,-0.0011207140251854588
252.068,0.0010881137801991977,-0.0010881137801991977
252.06900000000002,0.0007448118398065826,-0.0007448118398065826
252.07000000000002,0.00018371340180281008,-0.00018371340180281008
252.071,0.00042515156095505397,0.00042515156095505397
252.072,0.0008836328613751767,0.0008836328613751767
252.073,0.0010230045249008596,0.0010230045249008596
252.074,0.0007529655715395035,0.0007529655715395035
252.07500000000002,8.823227682146414e-05,8.823227682146414e-05
252.07600000000002,0.0008539373545588949,-0.0008539373545588949
252.077,0.0018832629077645184,-0.0018832629077645184
252.078,0.0027835890931738497,-0.0027835890931738497
252.079,0.00336424795191036,-0.00336424795191036
252.08,0.003502432465259111,-0.003502432465259111
252.08100000000002,0.0031671997934705656,-0.0031671997934705656
252.08200000000002,0.002421515060747959,-0.002421515060747959
252.083,0.0014045110414276935,-0.0014045110414276935
252.084,0.0003002385209536602,-0.0003002385209536602
252.085,0.0006991622592054905,0.0006991622592054905
252.086,0.0014285358142252871,0.0014285358142252871
252.08700000000002,0.0017776562215559113,0.0017776562215559113
252.08800000000002,0.001708894369077782,0.001708894369077782
252.089,0.0012631654148110784,0.0012631654148110784
252.09,0.0005537068145348412,0.0005537068145348412
252.091,0.000252102611853771,-0.000252102611853771
252.092,0.0009617023445911356,-0.0009617023445911356
252.09300000000002,0.0013941696364826164,-0.0013941696364826164
252.09400000000002,0.0014195593721424086,-0.0014195593721424086
252.095,0.00099305945269928,-0.00099305945269928
252.096,0.00017510605277059872,-0.00017510605277059872
252.097,0.0008702356434798816,0.0008702356434798816
252.098,0.0019023632451810346,0.0019023632451810346
252.09900000000002,0.0026542028454139056,0.0026542028454139056
252.10000000000002,0.0028957735132856153,0.0028957735132856153
252.101,0.002496238094066622,0.002496238094066622
252.102,0.0014674445082326572,0.0014674445082326572
252.103,2.5199439101916385e-05,-2.5199439101916385e-05
252.104,0.0016911712232523359,-0.0016911712232523359
252.10500000000002,0.0031788056530500323,-0.0031788056530500323
252.10600000000002,0.0041605021435664954,-0.0041605021435664954
252.107,0.004417548363857054,-0.004417548363857054
252.108,0.0039013160441029385,-0.0039013160441029385
252.109,0.0027526212535681494,-0.0027526212535681494
252.11,0.0012717059552697784,-0.0012717059552697784
252.11100000000002,0.00015524016889353383,0.00015524016889353383
252.11200000000002,0.0011546790581550969,0.0011546790581550969
252.113,0.0014634342809482822,0.0014634342809482822
252.114,0.0009989981756390069,0.0009989981756390069
252.115,0.00011705815685455139,-0.00011705815685455139
252.116,0.0015894003306919783,-0.0015894003306919783
252.11700000000002,0.003025066654829056,-0.003025066654829056
252.11800000000002,0.00403494545220299,-0.00403494545220299
252.119,0.004333309497434729,-0.004333309497434729
252.12,0.003809002237147751,-0.003809002237147751
252.121,0.002550091620796764,-0.002550091620796764
252.122,0.0008168984075413517,-0.0008168984075413517
252.12300000000002,0.0010275699732566418,0.0010275699732566418
252.12400000000002,0.0026096298150886954,0.0026096298150886954
252.125,0.0036341549523593187,0.0036341549523593187
252.126,0.003947974128080773,0.003947974128080773
252.127,0.0035628063873999797,0.0035628063873999797
252.12800000000001,0.002635086674019784,0.002635086674019784
252.12900000000002,0.0014119371771062965,0.0014119371771062965
252.13000000000002,0.00016097431242839317,0.00016097431242839317
252.131,0.0008955743257695465,-0.0008955743257695465
252.132,0.0016252244412212958,-0.0016252244412212958
252.133,0.0019987296510406527,-0.0019987296510406527
252.13400000000001,0.0020732289413634584,-0.0020732289413634584
252.13500000000002,0.001954301287607665,-0.001954301287607665
252.13600000000002,0.0017513211990512255,-0.0017513211990512255
252.137,0.001540819276301669,-0.001540819276301669
252.138,0.0013483593815936494,-0.0013483593815936494
252.139,0.0011524167226114879,-0.0011524167226114879
252.14000000000001,0.0009062819100711319,-0.0009062819100711319
252.14100000000002,0.0005684726230447305,-0.0005684726230447305
252.142,0.00013008175818274905,-0.00013008175818274905
252.143,0.0003706982261164657,0.0003706982261164657
252.144,0.0008518168784816977,0.0008518168784816977
252.145,0.001207219777136878,0.001207219777136878
252.14600000000002,0.0013367909300363,0.0013367909300363
252.14700000000002,0.0011768455885602701,0.0011768455885602701
252.148,0.0007217585796333409,0.0007217585796333409
252.149,3.032196270629324e-05,3.032196270629324e-05
252.15,0.000784806629848663,-0.000784806629848663
252.151,0.0015812604304092017,-0.0015812604304092017
252.15200000000002,0.002217810410779477,-0.002217810410779477
252.15300000000002,0.0025836806722400133,-0.0025836806722400133
252.154,0.002619276138533051,-0.002619276138533051
252.155,0.002324296294031689,-0.002324296294031689
252.156,0.001752980233362886,-0.001752980233362886
252.157,0.0009995148234419346,-0.0009995148234419346
252.15800000000002,0.00017851649995500636,-0.00017851649995500636
252.15900000000002,0.0005943805513577309,0.0005943805513577309
252.16,0.001218153158677159,0.001218153158677159
252.161,0.0016166543759487618,0.0016166543759487618
252.162,0.0017438856055983633,0.0017438856055983633
252.163,0.00158575842703317,0.00158575842703317
252.16400000000002,0.001159842901576425,0.001159842901576425
252.16500000000002,0.0005137502613853659,0.0005137502613853659
252.166,0.0002783164643789754,-0.0002783164643789754
252.167,0.001122002103782017,-0.001122002103782017
252.168,0.0019131792752591456,-0.0019131792752591456
252.169,0.002552057494529982,-0.002552057494529982
252.17000000000002,0.0029591094557264814,-0.0029591094557264814
252.17100000000002,0.0030893900294279497,-0.0030893900294279497
252.172,0.0029412531980525353,-0.0029412531980525353
252.173,0.0025563035040135824,-0.0025563035040135824
252.174,0.002009592457933159,-0.002009592457933159
252.175,0.001391974154146007,-0.001391974154146007
252.17600000000002,0.0007891843126693213,-0.0007891843126693213
252.17700000000002,0.0002635931064598631,-0.0002635931064598631
252.178,0.00015594443967439543,0.00015594443967439543
252.179,0.00047315895703065145,0.00047315895703065145
252.18,0.0007130265914258447,0.0007130265914258447
252.181,0.0009043232833327937,0.0009043232833327937
252.18200000000002,0.0010626765679055212,0.0010626765679055212
252.18300000000002,0.0011807323524466438,0.0011807323524466438
252.184,0.001229605403964056,0.001229605403964056
252.185,0.0011715910268692063,0.0011715910268692063
252.186,0.0009796137330150285,0.0009796137330150285
252.187,0.0006557509584388013,0.0006557509584388013
252.18800000000002,0.00024071171772137455,0.00024071171772137455
252.18900000000002,0.00019119371112641354,-0.00019119371112641354
252.19,0.0005519764317420399,-0.0005519764317420399
252.191,0.0007693284204036074,-0.0007693284204036074
252.192,0.0008154863386846558,-0.0008154863386846558
252.193,0.0007243884927225089,-0.0007243884927225089
252.19400000000002,0.000588683269654144,-0.000588683269654144
252.19500000000002,0.0005344180895334446,-0.0005344180895334446
252.196,0.0006791248861941075,-0.0006791248861941075
252.197,0.0010858468601503155,-0.0010858468601503155
252.198,0.0017288420999664257,-0.0017288420999664257
252.199,0.0024847009924367615,-0.0024847009924367615
252.20000000000002,0.003155555020141941,-0.003155555020141941
252.20100000000002,0.0035208593553160117,-0.0035208593553160117
252.202,0.003404112511836969,-0.003404112511836969
252.203,0.002734326455312869,-0.002734326455312869
252.204,0.0015816643881145544,-0.0015816643881145544
252.205,0.00015312386325943382,-0.00015312386325943382
252.20600000000002,0.001254117180234622,0.001254117180234622
252.20700000000002,0.0023305537871029323,0.0023305537871029323
252.208,0.0028413440340159073,0.0028413440340159073
252.209,0.002695870726304265,0.002695870726304265
252.21,0.0019771740649375236,0.0019771740649375236
252.211,0.0009200607984461418,0.0009200607984461418
252.21200000000002,0.00015747901693101787,-0.00015747901693101787
252.21300000000002,0.0009497351379288989,-0.0009497351379288989
252.214,0.0012563061883263615,-0.0012563061883263615
252.215,0.0010429833396302438,-0.0010429833396302438
252.216,0.00045006344969115487,-0.00045006344969115487
252.217,0.0002559696630341173,0.0002559696630341173
252.21800000000002,0.0007730934219919569,0.0007730934219919569
252.21900000000002,0.0008680303487198045,0.0008680303487198045
252.22,0.0004599701804249166,0.0004599701804249166
252.221,0.00034490720333360677,-0.00034490720333360677
252.222,0.0012815242133787678,-0.0012815242133787678
252.223,0.0020098026286623476,-0.0020098026286623476
252.22400000000002,0.002228808245243285,-0.002228808245243285
252.22500000000002,0.0017845506134403616,-0.0017845506134403616
252.226,0.000735421853578034,-0.000735421853578034
252.227,0.0006483490091437127,0.0006483490091437127
252.228,0.00195431569983083,0.00195431569983083
252.229,0.0027473751085671694,0.0027473751085671694
252.23000000000002,0.0027034048623040055,0.0027034048623040055
252.23100000000002,0.001715443045982126,0.001715443045982126
252.232,6.1647935775382e-05,-6.1647935775382e-05
252.233,0.0022436074436197988,-0.0022436074436197988
252.234,0.004318121635696169,-0.004318121635696169
252.235,0.005785437404631135,-0.005785437404631135
252.23600000000002,0.006296257970262944,-0.006296257970262944
252.23700000000002,0.0057457166651926125,-0.0057457166651926125
252.238,0.004295899861776602,-0.004295899861776602
252.239,0.0023215760735921954,-0.0023215760735921954
252.24,0.00029738069158831394,-0.00029738069158831394
252.241,0.0013378094922862848,0.0013378094922862848
252.24200000000002,0.00229767625118183,0.00229767625118183
252.24300000000002,0.0025121495943806315,0.0025121495943806315
252.244,0.002121664821946098,0.002121664821946098
252.245,0.0014082061308036751,0.0014082061308036751
252.246,0.0006890792059553564,0.0006890792059553564
252.247,0.00020994964157851446,0.00020994964157851446
252.24800000000002,7.198171277664635e-05,7.198171277664635e-05
252.24900000000002,0.00021486899469416002,0.00021486899469416002
252.25,0.0004578386776862768,0.0004578386776862768
252.251,0.0005810914312057809,0.0005810914312057809
252.252,0.00041714890725064733,0.00041714890725064733
252.25300000000001,8.063175366143916e-05,-8.063175366143916e-05
252.25400000000002,0.0008161293362404554,-0.0008161293362404554
252.25500000000002,0.0015820318138515099,-0.0015820318138515099
252.256,0.0021330489208939026,-0.0021330489208939026
252.257,0.0022745964663060023,-0.0022745964663060023
252.258,0.001935703547290174,-0.001935703547290174
252.25900000000001,0.0012005631470520803,-0.0012005631470520803
252.26000000000002,0.0002874348655130144,-0.0002874348655130144
252.26100000000002,0.0005184671023123787,0.0005184671023123787
252.262,0.0009559961088831446,0.0009559961088831446
252.263,0.0008730077435456912,0.0008730077435456912
252.264,0.00027736982001155325,0.00027736982001155325
252.26500000000001,0.0006625026596122032,-0.0006625026596122032
252.26600000000002,0.0016676431295547375,-0.0016676431295547375
252.267,0.0024329309245438523,-0.0024329309245438523
252.268,0.002719130885574643,-0.002719130885574643
252.269,0.002423992731654153,-0.002423992731654153
252.27,0.001611093793389853,-0.001611093793389853
252.27100000000002,0.0004888050317775802,-0.0004888050317775802
252.27200000000002,0.0006527116352259883,0.0006527116352259883
252.273,0.0015261635469640865,0.0015261635469640865
252.274,0.0019275584825920163,0.0019275584825920163
252.275,0.001789111482192727,0.001789111482192727
252.276,0.0011907905165989086,0.0011907905165989086
252.27700000000002,0.0003296465272963109,0.0003296465272963109
252.27800000000002,0.0005416026480734293,-0.0005416026480734293
252.279,0.0011872435385567707,-0.0011872435385567707
252.28,0.001451304478959081,-0.001451304478959081
252.281,0.0012937226149413819,-0.0012937226149413819
252.282,0.000792176733847554,-0.000792176733847554
252.28300000000002,0.00011201928483445409,-0.00011201928483445409
252.28400000000002,0.0005447728927238934,0.0005447728927238934
252.285,0.000996103151417831,0.000996103151417831
252.286,0.001126252087773204,0.001126252087773204
252.287,0.0009110309425087872,0.0009110309425087872
252.288,0.00041684369804194854,0.00041684369804194854
252.28900000000002,0.0002240233275887957,-0.0002240233275887957
252.29000000000002,0.0008537950789659733,-0.0008537950789659733
252.291,0.0013338920510607543,-0.0013338920510607543
252.292,0.0015821168142323234,-0.0015821168142323234
252.293,0.0015928614601982147,-0.0015928614601982147
252.294,0.0014352078598652291,-0.0014352078598652291
252.29500000000002,0.0012292667952203658,-0.0012292667952203658
252.29600000000002,0.0011066285930897742,-0.0011066285930897742
252.297,0.0011652489795711755,-0.0011652489795711755
252.298,0.0014313924068664692,-0.0014313924068664692
252.299,0.0018405692956100252,-0.0018405692956100252
252.3,0.0022454233963073323,-0.0022454233963073323
252.30100000000002,0.0024517349257677703,-0.0024517349257677703
252.30200000000002,0.0022755069862164124,-0.0022755069862164124
252.303,0.0016066569306776065,-0.0016066569306776065
252.304,0.00046055818012865637,-0.00046055818012865637
252.305,0.001000504780366344,0.001000504780366344
252.306,0.0024873417393650467,0.0024873417393650467
252.30700000000002,0.003645506381405728,0.003645506381405728
252.30800000000002,0.004145822994606199,0.004145822994606199
252.309,0.0037802500490032825,0.0037802500490032825
252.31,0.0025347812663855085,0.0025347812663855085
252.311,0.0006147270345120119,0.0006147270345120119
252.312,0.0015903385388263665,-0.0015903385388263665
252.31300000000002,0.003597337024593358,-0.003597337024593358
252.31400000000002,0.004953843345777372,-0.004953843345777372
252.315,0.005361062636716221,-0.005361062636716221
252.316,0.0047587246693818535,-0.0047587246693818535
252.317,0.00334427230415296,-0.00334427230415296
252.318,0.0015175192622754788,-0.0015175192622754788
252.31900000000002,0.0002351686362261368,0.0002351686362261368
252.32000000000002,0.001483386737227909,0.001483386737227909
252.321,0.0019782388102073125,0.0019782388102073125
252.322,0.0017210737323176742,0.0017210737323176742
252.323,0.0009525635406387896,0.0009525635406387896
252.324,6.447535259619456e-05,6.447535259619456e-05
252.32500000000002,0.0005381150313042653,-0.0005381150313042653
252.32600000000002,0.0005793090524954382,-0.0005793090524954382
252.327,1.1963605336605142e-05,-1.1963605336605142e-05
252.328,0.0009601498196701377,0.0009601498196701377
252.329,0.0019470100075239106,0.0019470100075239106
252.33,0.0025041904797482146,0.0025041904797482146
252.33100000000002,0.0022889559367493015,0.0022889559367493015
252.33200000000002,0.0011882490581587592,0.0011882490581587592
252.333,0.000625756531276989,-0.000625756531276989
252.334,0.0027335880719034636,-0.0027335880719034636
252.335,0.0045899449639957195,-0.0045899449639957195
252.336,0.005690408452847082,-0.005690408452847082
252.33700000000002,0.005729098059438094,-0.005729098059438094
252.33800000000002,0.004695074523076714,-0.004695074523076714
252.339,0.002875099140019839,-0.002875099140019839
252.34,0.0007614296814875181,-0.0007614296814875181
252.341,0.001104789282025715,0.001104789282025715
252.342,0.00230220934672805,0.00230220934672805
252.34300000000002,0.002653628153969224,0.002653628153969224
252.34400000000002,0.002264817306718505,0.002264817306718505
252.345,0.0014660830153388044,0.0014660830153388044
252.346,0.0006784209441004334,0.0006784209441004334
252.347,0.00025226799046452347,0.00025226799046452347
252.348,0.00033636762456968456,0.00033636762456968456
252.34900000000002,0.0008236877519879219,0.0008236877519879219
252.35000000000002,0.001394177531353381,0.001394177531353381
252.351,0.0016397761677201647,0.0016397761677201647
252.352,0.0012274801690891244,0.0012274801690891244
252.353,4.189078827000346e-05,4.189078827000346e-05
252.354,0.001745256777002152,-0.001745256777002152
252.35500000000002,0.003706399761703548,-0.003706399761703548
252.35600000000002,0.005283218624224424,-0.005283218624224424
252.357,0.005965360155467258,-0.005965360155467258
252.358,0.005463045665297879,-0.005463045665297879
252.359,0.003814516740699336,-0.003814516740699336
252.36,0.0013903338717809208,-0.0013903338717809208
252.36100000000002,0.0012091381735877956,0.0012091381735877956
252.36200000000002,0.003330864359816731,0.003330864359816731
252.363,0.004463587137972814,0.004463587137972814
252.364,0.00438652120619625,0.00438652120619625
252.365,0.0032247514013854983,0.0032247514013854983
252.366,0.0013952028213393265,0.0013952028213393265
252.36700000000002,0.0005364713984975435,-0.0005364713984975435
252.36800000000002,0.0020386810223841536,-0.0020386810223841536
252.369,0.0027751270874042115,-0.0027751270874042115
252.37,0.0026923626201727437,-0.0026923626201727437
252.371,0.0020081616956767086,-0.0020081616956767086
252.372,0.001109707025092365,-0.001109707025092365
252.37300000000002,0.0004010248047776939,-0.0004010248047776939
252.37400000000002,0.00015499582119797835,-0.00015499582119797835
252.375,0.0004215169044620102,-0.0004215169044620102
252.376,0.0010218038782214766,-0.0010218038782214766
252.377,0.001627431931498565,-0.001627431931498565
252.37800000000001,0.0018927669498622853,-0.0018927669498622853
252.37900000000002,0.0015914350046395995,-0.0015914350046395995
252.38000000000002,0.0007074294155299122,-0.0007074294155299122
252.381,0.0005511009767683793,0.0005511009767683793
252.382,0.0018190449727045312,0.0018190449727045312
252.383,0.0026973413122439627,0.0026973413122439627
252.38400000000001,0.0028875307999612137,0.0028875307999612137
252.38500000000002,0.0022906753915013056,0.0022906753915013056
252.38600000000002,0.0010373605595549458,0.0010373605595549458
252.387,0.0005592769272545693,-0.0005592769272545693
252.388,0.00210833597976378,-0.00210833597976378
252.389,0.003265167798709687,-0.003265167798709687
252.39000000000001,0.0038310930238689847,-0.0038310930238689847
252.39100000000002,0.003796089970472884,-0.003796089970472884
252.392,0.003313794997875948,-0.003313794997875948
252.393,0.0026230723735404158,-0.0026230723735404158
252.394,0.0019489761018260743,-0.0019489761018260743
252.395,0.0014215581115544582,-0.0014215581115544582
252.39600000000002,0.0010420587319187144,-0.0010420587319187144
252.39700000000002,0.000706364921510337,-0.000706364921510337
252.398,0.0002729485001252999,-0.0002729485001252999
252.399,0.0003545521576928477,0.0003545521576928477
252.4,0.0011650272122058802,0.0011650272122058802
252.401,0.0020242008751601938,0.0020242008751601938
252.40200000000002,0.0027131173494485596,0.0027131173494485596
252.40300000000002,0.0030067412923076866,0.0030067412923076866
252.404,0.002762420293617793,0.002762420293617793
252.405,0.0019834138285618683,0.0019834138285618683
252.406,0.0008315443714735292,0.0008315443714735292
252.407,0.0004180531849932211,-0.0004180531849932211
252.40800000000002,0.0014652451930013113,-0.0014652451930013113
252.40900000000002,0.0020848734494148917,-0.0020848734494148917
252.41,0.0022019850556861185,-0.0022019850556861185
252.411,0.0019144203796405406,-0.0019144203796405406
252.412,0.00145379349729839,-0.00145379349729839
252.413,0.0010982966515538026,-0.0010982966515538026
252.41400000000002,0.001068381763331619,-0.001068381763331619
252.41500000000002,0.001442749962410428,-0.001442749962410428
252.416,0.0021248987875553123,-0.0021248987875553123
252.417,0.0028723996389255525,-0.0028723996389255525
252.418,0.003378729171320598,-0.003378729171320598
252.419,0.0033789718080218453,-0.0033789718080218453
252.42000000000002,0.002742658763078791,-0.002742658763078791
252.42100000000002,0.0015221216824584185,-0.0015221216824584185
252.422,5.9104105548481015e-05,5.9104105548481015e-05
252.423,0.0016721723214028327,0.0016721723214028327
252.424,0.0029791047007024524,0.0029791047007024524
252.425,0.003726147098539872,0.003726147098539872
252.42600000000002,0.0038042462713683083,0.0038042462713683083
252.42700000000002,0.003260125395776588,0.003260125395776588
252.428,0.0022599752153646606,0.0022599752153646606
252.429,0.001024205746456293,0.001024205746456293
252.43,0.0002399963548245027,-0.0002399963548245027
252.431,0.0013840532701358504,-0.0013840532701358504
252.43200000000002,0.0023287550027976146,-0.0023287550027976146
252.43300000000002,0.0030435614737260646,-0.0030435614737260646
252.434,0.003510853820934437,-0.003510853820934437
252.435,0.0036969128859469015,-0.0036969128859469015
252.436,0.00354686862193893,-0.00354686862193893
252.437,0.003008496678511238,-0.003008496678511238
252.43800000000002,0.0020748789044964548,-0.0020748789044964548
252.43900000000002,0.0008250450660017611,-0.0008250450660017611
252.44,0.0005602884519011352,0.0005602884519011352
252.441,0.0018225059103541543,0.0018225059103541543
252.442,0.0026873795869528476,0.0026873795869528476
252.443,0.0029478937760973583,0.0029478937760973583
252.44400000000002,0.00253839873793105,0.00253839873793105
252.44500000000002,0.001570432311000359,0.001570432311000359
252.446,0.0003119502659248807,0.0003119502659248807
252.447,0.0008886144395555831,-0.0008886144395555831
252.448,0.0017111613886125578,-0.0017111613886125578
252.449,0.0019692018488926873,-0.0019692018488926873
252.45000000000002,0.0016737544124663627,-0.0016737544124663627
252.45100000000002,0.0010305689970031132,-0.0010305689970031132
252.452,0.0003681160263305905,-0.0003681160263305905
252.453,1.8780973364708028e-05,-1.8780973364708028e-05
252.454,0.00019385720978103805,-0.00019385720978103805
252.455,0.0008972108430750593,-0.0008972108430750593
252.45600000000002,0.0019106818023375024,-0.0019106818023375024
252.45700000000002,0.00285998008150262,-0.00285998008150262
252.458,0.003341335600319733,-0.003341335600319733
252.459,0.0030665970280644586,-0.0030665970280644586
252.46,0.00197617823464532,-0.00197617823464532
252.461,0.0002786665293094712,-0.0002786665293094712
252.46200000000002,0.0015997867249466068,0.0015997867249466068
252.46300000000002,0.003142206071803918,0.003142206071803918
252.464,0.0039027550154357607,0.0039027550154357607
252.465,0.0036498997679237115,0.0036498997679237115
252.466,0.0024422120136575087,0.0024422120136575087
252.467,0.0006106522770894867,0.0006106522770894867
252.46800000000002,0.0013471229021125482,-0.0013471229021125482
252.46900000000002,0.002924892640717739,-0.002924892640717739
252.47,0.003765108456280143,-0.003765108456280143
252.471,0.0037625540047418874,-0.0037625540047418874
252.472,0.0030806209923647083,-0.0030806209923647083
252.473,0.0020768559298719146,-0.0020768559298719146
252.47400000000002,0.0011657753741757572,-0.0011657753741757572
252.47500000000002,0.0006681938282418131,-0.0006681938282418131
252.476,0.0007000946050376184,-0.0007000946050376184
252.477,0.0011392408320689998,-0.0011392408320689998
252.478,0.0016796902088088161,-0.0016796902088088161
252.479,0.0019531698715958864,-0.0019531698715958864
252.48000000000002,0.0016729258008281352,-0.0016729258008281352
252.48100000000002,0.0007483104202437832,-0.0007483104202437832
252.482,0.0006706247266170873,0.0006706247266170873
252.483,0.002234072126050864,0.002234072126050864
252.484,0.0035042287669837776,0.0035042287669837776
252.485,0.004098589829181187,0.004098589829181187
252.48600000000002,0.003815166737071939,0.003815166737071939
252.48700000000002,0.002697269641053999,0.002697269641053999
252.488,0.0010173511057345378,0.0010173511057345378
252.489,0.0008122025877774371,-0.0008122025877774371
252.49,0.002368711188802025,-0.002368711188802025
252.491,0.003344178738831034,-0.003344178738831034
252.49200000000002,0.0036242987229139433,-0.0036242987229139433
252.49300000000002,0.0032982677991249348,-0.0032982677991249348
252.494,0.0026015917236892707,-0.0026015917236892707
252.495,0.0018173850796138888,-0.0018173850796138888
252.496,0.0011745935526684221,-0.0011745935526684221
252.497,0.000779872154011665,-0.000779872154011665
252.49800000000002,0.0006048020637121655,-0.0006048020637121655
252.49900000000002,0.0005278590836329808,-0.0005278590836329808
252.5,0.00040965787712004436,-0.00040965787712004436
252.501,0.00016829370731078917,-0.00016829370731078917
252.502,0.00017678977197474824,0.00017678977197474824
252.50300000000001,0.0005100770146925507,0.0005100770146925507
252.50400000000002,0.0006715379206378441,0.0006715379206378441
252.50500000000002,0.0005325219513815325,0.0005325219513815325
252.506,6.383070655027157e-05,6.383070655027157e-05
252.507,0.0006335990571244594,-0.0006335990571244594
252.508,0.001350574853828788,-0.001350574853828788
252.50900000000001,0.0018385912985447478,-0.0018385912985447478
252.51000000000002,0.0019013331694742713,-0.0019013331694742713
252.51100000000002,0.0014742501481751428,-0.0014742501481751428
252.512,0.0006607279049359038,-0.0006607279049359038
252.513,0.0002915075041111231,0.0002915075041111231
252.514,0.0010683650534313715,0.0010683650534313715
252.51500000000001,0.001395974857480152,0.001395974857480152
252.51600000000002,0.0011386867410848101,0.0011386867410848101
252.517,0.0003531643658382726,0.0003531643658382726
252.518,0.0007220376439653829,-0.0007220376439653829
252.519,0.0017396652374460765,-0.0017396652374460765
252.52,0.0023559265195237677,-0.0023559265195237677
252.52100000000002,0.002343959670383261,-0.002343959670383261
252.52200000000002,0.0016702009182754042,-0.0016702009182754042
252.523,0.0005078657392128474,-0.0005078657392128474
252.524,0.0008167684736403199,0.0008167684736403199
252.525,0.0019268503853679963,0.0019268503853679963
252.526,0.0025117106681174606,0.0025117106681174606
252.52700000000002,0.00241941859182137,0.00241941859182137
252.52800000000002,0.0016958982886078919,0.0016958982886078919
252.529,0.0005602174531828375,0.0005602174531828375
252.53,0.0006726814502406528,-0.0006726814502406528
252.531,0.0016936506556309387,-0.0016936506556309387
252.532,0.002290756483987357,-0.002290756483987357
252.53300000000002,0.00240144988091593,-0.00240144988091593
252.53400000000002,0.00211170383220272,-0.00211170383220272
252.535,0.0016072921165975458,-0.0016072921165975458
252.536,0.0010982499910222102,-0.0010982499910222102
252.537,0.0007449629954386042,-0.0007449629954386042
252.538,0.000611222420432605,-0.000611222420432605
252.53900000000002,0.0006577891909161794,-0.0006577891909161794
252.54000000000002,0.000774350923594996,-0.000774350923594996
252.541,0.0008341515237193342,-0.0008341515237193342
252.542,0.0007487956270606427,-0.0007487956270606427
252.543,0.0005027405601959412,-0.0005027405601959412
252.544,0.00015637738813770183,-0.00015637738813770183
252.54500000000002,0.00018067604316740875,0.00018067604316740875
252.54600000000002,0.00039340149436036567,0.00039340149436036567
252.547,0.0004043148000258511,0.0004043148000258511
252.548,0.0001994403502394359,0.0001994403502394359
252.549,0.0001708251258482985,-0.0001708251258482985
252.55,0.0006137420842195835,-0.0006137420842195835
252.55100000000002,0.0010283484295056898,-0.0010283484295056898
252.55200000000002,0.0013373113278262994,-0.0013373113278262994
252.553,0.0015046564161084973,-0.0015046564161084973
252.554,0.001534617421370997,-0.001534617421370997
252.555,0.001455287563041736,-0.001455287563041736
252.556,0.0012969088855998266,-0.0012969088855998266
252.55700000000002,0.001076014636657154,-0.001076014636657154
252.55800000000002,0.0007928777347520409,-0.0007928777347520409
252.559,0.00044266865746576094,-0.00044266865746576094
252.56,3.363044989383988e-05,-3.363044989383988e-05
252.561,0.00039833086025544746,0.00039833086025544746
252.562,0.0007881274289214529,0.0007881274289214529
252.56300000000002,0.001056746297364959,0.001056746297364959
252.56400000000002,0.00113896620080514,0.00113896620080514
252.565,0.001012478042962805,0.001012478042962805
252.566,0.0007150175555999215,0.0007150175555999215
252.567,0.0003395818315146608,0.0003395818315146608
252.568,6.050775097337141e-06,6.050775097337141e-06
252.56900000000002,0.00018254341237552957,-0.00018254341237552957
252.57000000000002,0.00018329563069619065,-0.00018329563069619065
252.571,3.860416264635916e-05,-3.860416264635916e-05
252.572,0.00012928429749685621,0.00012928429749685621
252.573,0.00015624500271251273,0.00015624500271251273
252.574,0.00010377625998011434,-0.00010377625998011434
252.57500000000002,0.0007168849406794864,-0.0007168849406794864
252.57600000000002,0.0016282216360526802,-0.0016282216360526802
252.577,0.0026590708948016294,-0.0026590708948016294
252.578,0.0035470882461045563,-0.0035470882461045563
252.579,0.004019747304324213,-0.004019747304324213
252.58,0.003878860224310581,-0.003878860224310581
252.58100000000002,0.0030689200829774653,-0.0030689200829774653
252.58200000000002,0.00170611701507726,-0.00170611701507726
252.583,5.701243494826308e-05,-5.701243494826308e-05
252.584,0.0015280310150108136,0.0015280310150108136
252.585,0.0027069648175677944,0.0027069648175677944
252.586,0.00323590611716555,0.00323590611716555
252.58700000000002,0.0030299919844980583,0.0030299919844980583
252.58800000000002,0.0021782397302844386,0.0021782397302844386
252.589,0.0009103081823673578,0.0009103081823673578
252.59,0.0004720777121375289,-0.0004720777121375289
252.591,0.0016764021917923708,-0.0016764021917923708
252.592,0.002488821047561406,-0.002488821047561406
252.59300000000002,0.00281347973529392,-0.00281347973529392
252.59400000000002,0.002674837345650298,-0.002674837345650298
252.595,0.002188509072986903,-0.002188509072986903
252.596,0.001515017282597036,-0.001515017282597036
252.597,0.0008135247121007081,-0.0008135247121007081
252.598,0.0002089514452414966,-0.0002089514452414966
252.59900000000002,0.00022189892656420082,0.00022189892656420082
252.60000000000002,0.0004478605541086791,0.0004478605541086791
252.601,0.00047260904752992284,0.00047260904752992284
252.602,0.0003242147028462883,0.0003242147028462883
252.603,4.998770519862647e-05,4.998770519862647e-05
252.604,0.00028419712887188384,-0.00028419712887188384
252.60500000000002,0.0005955449660570556,-0.0005955449660570556
252.60600000000002,0.0007934002590306917,-0.0007934002590306917
252.607,0.0007987943501150165,-0.0007987943501150165
252.608,0.0005712599715615697,-0.0005712599715615697
252.609,0.00013350592705603078,-0.00013350592705603078
252.61,0.000418231570044677,0.000418231570044677
252.61100000000002,0.0009276619765051517,0.0009276619765051517
252.61200000000002,0.001217352882287319,0.001217352882287319
252.613,0.0011442896386075322,0.0011442896386075322
252.614,0.0006545435393358484,0.0006545435393358484
252.615,0.0001835476071035729,-0.0001835476071035729
252.616,0.0011835115529435644,-0.0011835115529435644
252.61700000000002,0.0020862584846264524,-0.0020862584846264524
252.61800000000002,0.002636115082364314,-0.002636115082364314
252.619,0.002663878030142172,-0.002663878030142172
252.62,0.002148226703836946,-0.002148226703836946
252.621,0.0012318845843900636,-0.0012318845843900636
252.622,0.00018322621595272303,-0.00018322621595272303
252.62300000000002,0.000686998329919896,0.000686998329919896
252.62400000000002,0.0011272466861122908,0.0011272466861122908
252.625,0.0010301398402795634,0.0010301398402795634
252.626,0.00046975456385875365,0.00046975456385875365
252.627,0.00032425143778174777,-0.00032425143778174777
252.62800000000001,0.0010490388751560984,-0.0010490388751560984
252.62900000000002,0.0014398966806574754,-0.0014398966806574754
252.63000000000002,0.0013708653061147657,-0.0013708653061147657
252.631,0.0009070038630036371,-0.0009070038630036371
252.632,0.00028651295395390306,-0.00028651295395390306
252.633,0.00016434433980620422,0.00016434433980620422
252.63400000000001,0.00015562678596078296,0.00015562678596078296
252.63500000000002,0.00044653279823184393,-0.00044653279823184393
252.63600000000002,0.0015495610658082203,-0.0015495610658082203
252.637,0.0028427641236342983,-0.0028427641236342983
252.638,0.0038867475901920075,-0.0038867475901920075
252.639,0.004257226734366386,-0.004257226734366386
252.64000000000001,0.0036955503773137923,-0.0036955503773137923
252.64100000000002,0.002213323830999021,-0.002213323830999021
252.642,0.00011202009437470127,-0.00011202009437470127
252.643,0.0020936817597766925,0.0020936817597766925
252.644,0.0038272414864052597,0.0038272414864052597
252.645,0.00462824983210857,0.00462824983210857
252.64600000000002,0.004298442393583756,0.004298442393583756
252.64700000000002,0.0029664683843837985,0.0029664683843837985
252.648,0.0010486176717016166,0.0010486176717016166
252.649,0.0008825993568603639,-0.0008825993568603639
252.65,0.0022791102346016202,-0.0022791102346016202
252.651,0.0027876776081158334,-0.0027876776081158334
252.65200000000002,0.002354165470119342,-0.002354165470119342
252.65300000000002,0.0012284261076673316,-0.0012284261076673316
252.654,0.0001296792952385469,0.0001296792952385469
252.655,0.0012094315131604982,0.0012094315131604982
252.656,0.0016187315537604821,0.0016187315537604821
252.657,0.001207096418709116,0.001207096418709116
252.65800000000002,0.00010293040173400403,0.00010293040173400403
252.65900000000002,0.0013435810228872931,-0.0013435810228872931
252.66,0.0026879880941488832,-0.0026879880941488832
252.661,0.0035423877155583887,-0.0035423877155583887
252.662,0.003696627948468395,-0.003696627948468395
252.663,0.003170109280045809,-0.003170109280045809
252.66400000000002,0.0021810841472046398,-0.0021810841472046398
252.66500000000002,0.001050577179977328,-0.001050577179977328
252.666,8.0689929827951e-05,-8.0689929827951e-05
252.667,0.0005459401788160548,0.0005459401788160548
252.668,0.0008094851268927593,0.0008094851268927593
252.669,0.0008269567254644901,0.0008269567254644901
252.67000000000002,0.0007725234091146288,0.0007725234091146288
252.67100000000002,0.0007805519566473146,0.0007805519566473146
252.672,0.0008738297835869253,0.0008738297835869253
252.673,0.0009484094930946174,0.0009484094930946174
252.674,0.0008228143312701761,0.0008228143312701761
252.675,0.0003322050054049148,0.0003322050054049148
252.67600000000002,0.0005717991546929273,-0.0005717991546929273
252.67700000000002,0.0017596070321603831,-0.0017596070321603831
252.678,0.0029315345323948873,-0.0029315345323948873
252.679,0.0037001717383169028,-0.0037001717383169028
252.68,0.003722820788348345,-0.003722820788348345
252.681,0.00283777506112883,-0.00283777506112883
252.68200000000002,0.0011527820750127848,-0.0011527820750127848
252.68300000000002,0.0009521995137130271,0.0009521995137130271
252.684,0.0029171345786397243,0.0029171345786397243
252.685,0.004164424655849742,0.004164424655849742
252.686,0.004280698041846955,0.004280698041846955
252.687,0.003157189529462806,0.003157189529462806
252.68800000000002,0.0010394653066046755,0.0010394653066046755
252.68900000000002,0.0015337010119639127,-0.0015337010119639127
252.69,0.003885615850904398,-0.003885615850904398
252.691,0.005402462199460636,-0.005402462199460636
252.692,0.005715091823879842,-0.005715091823879842
252.693,0.004803219342754309,-0.004803219342754309
252.69400000000002,0.002989212149132637,-0.002989212149132637
252.69500000000002,0.0008254773739242647,-0.0008254773739242647
252.696,0.001085408773247073,0.001085408773247073
252.697,0.002277255534546042,0.002277255534546042
252.698,0.002552403224762917,0.002552403224762917
252.699,0.0020186022371289076,0.0020186022371289076
252.70000000000002,0.001023378990844961,0.001023378990844961
252.70100000000002,1.370880827641685e-05,1.370880827641685e-05
252.702,0.0006268689534433468,-0.0006268689534433468
252.703,0.0007061800851134641,-0.0007061800851134641
252.704,0.00027378098269537163,-0.00027378098269537163
252.705,0.0004195007555817118,0.0004195007555817118
252.70600000000002,0.0010331401700278563,0.0010331401700278563
252.70700000000002,0.0012751405153864858,0.0012751405153864858
252.708,0.001014540771428345,0.001014540771428345
252.709,0.00032716226383430844,0.00032716226383430844
252.71,0.0005404669683058566,-0.0005404669683058566
252.711,0.001273202732769687,-0.001273202732769687
252.71200000000002,0.0016151692867617177,-0.0016151692867617177
252.71300000000002,0.0014740594085805533,-0.0014740594085805533
252.714,0.0009616952762154133,-0.0009616952762154133
252.715,0.0003547117023813509,-0.0003547117023813509
252.716,1.0879370179071958e-05,1.0879370179071958e-05
252.717,0.00012734776981222456,-0.00012734776981222456
252.71800000000002,0.0008470862870559737,-0.0008470862870559737
252.71900000000002,0.0019941270726749204,-0.0019941270726749204
252.72,0.0032188150167664444,-0.0032188150167664444
252.721,0.00408602659871143,-0.00408602659871143
252.722,0.004222169054217796,-0.004222169054217796
252.723,0.0034489956754870004,-0.0034489956754870004
252.72400000000002,0.0018577920651405794,-0.0018577920651405794
252.72500000000002,0.00020267692077776192,0.00020267692077776192
252.726,0.0022221314283760777,0.0022221314283760777
252.727,0.0036783002812686826,0.0036783002812686826
252.728,0.004192069076688437,0.004192069076688437
252.729,0.0036389299361420683,0.0036389299361420683
252.73000000000002,0.002182323543270638,0.002182323543270638
252.73100000000002,0.00022026738460320932,0.00022026738460320932
252.732,0.0017355421955072123,-0.0017355421955072123
252.733,0.0032084183954427677,-0.0032084183954427677
252.734,0.003886557997825128,-0.003886557997825128
252.735,0.0036958941100812535,-0.0036958941100812535
252.73600000000002,0.002797833999481083,-0.002797833999481083
252.73700000000002,0.0015183949999813223,-0.0015183949999813223
252.738,0.0002360901405645508,-0.0002360901405645508
252.739,0.0007334894019368402,0.0007334894019368402
252.74,0.0012207474951739603,0.0012207474951739603
252.741,0.0012305826110547873,0.0012305826110547873
252.74200000000002,0.0009133513255225289,0.0009133513255225289
252.74300000000002,0.0004937232787216033,0.0004937232787216033
252.744,0.00018454403728479445,0.00018454403728479445
252.745,0.00011472948214976002,0.00011472948214976002
252.746,0.00029274723212674273,0.00029274723212674273
252.747,0.0006137877943212923,0.0006137877943212923
252.74800000000002,0.0009042162827429634,0.0009042162827429634
252.74900000000002,0.0009859911498819914,0.0009859911498819914
252.75,0.0007393636153174082,0.0007393636153174082
252.751,0.00014481047545163525,0.00014481047545163525
252.752,0.0007069459597037409,-0.0007069459597037409
252.75300000000001,0.001637873440507333,-0.001637873440507333
252.75400000000002,0.002430434798482714,-0.002430434798482714
252.75500000000002,0.002886319625513497,-0.002886319625513497
252.756,0.0028805018366546355,-0.0028805018366546355
252.757,0.002397202665843501,-0.002397202665843501
252.758,0.0015391934126279458,-0.0015391934126279458
252.75900000000001,0.0005080195150153837,-0.0005080195150153837
252.76000000000002,0.0004410205845884607,0.0004410205845884607
252.76100000000002,0.0010598345709192407,0.0010598345709192407
252.762,0.0011711386460843624,0.0011711386460843624
252.763,0.0007196177622361472,0.0007196177622361472
252.764,0.0002033081656702678,-0.0002033081656702678
252.76500000000001,0.0013705118305310886,-0.0013705118305310886
252.76600000000002,0.0024675836378014906,-0.0024675836378014906
252.767,0.00317044942144834,-0.00317044942144834
252.768,0.0032344996592972384,-0.0032344996592972384
252.769,0.002571408853034552,-0.002571408853034552
252.77,0.00128974894881357,-0.00128974894881357
252.77100000000002,0.0003171785893784111,0.0003171785893784111
252.77200000000002,0.001839091899138756,0.001839091899138756
252.773,0.0028580213989449024,0.0028580213989449024
252.774,0.0030703161646310944,0.0030703161646310944
252.775,0.002385064805368753,0.002385064805368753
252.776,0.0009660468964730584,0.0009660468964730584
252.77700000000002,0.0008010763192589098,-0.0008010763192589098
252.77800000000002,0.002412403270001673,-0.002412403270001673
252.779,0.003393123305714552,-0.003393123305714552
252.78,0.003444926391287012,-0.003444926391287012
252.781,0.0025463834212410136,-0.0025463834212410136
252.782,0.0009710333874357039,-0.0009710333874357039
252.78300000000002,0.000787602250315593,0.000787602250315593
252.78400000000002,0.002165012803286818,0.002165012803286818
252.785,0.0027041281746231593,0.0027041281746231593
252.786,0.0022063761528856684,0.0022063761528856684
252.787,0.0008045841247166773,0.0008045841247166773
252.788,0.0010697052883889846,-0.0010697052883889846
252.78900000000002,0.002818179490326888,-0.002818179490326888
252.79000000000002,0.003867347418511245,-0.003867347418511245
252.791,0.0038586202389212358,-0.0038586202389212358
252.792,0.0027737547414995608,-0.0027737547414995608
252.793,0.0009516499140304149,-0.0009516499140304149
252.794,0.0010129084287937458,0.0010129084287937458
252.79500000000002,0.0024589517821365053,0.0024589517821365053
252.79600000000002,0.0028774483760379923,0.0028774483760379923
252.797,0.0020864625329931968,0.0020864625329931968
252.798,0.00030410090837907597,0.00030410090837907597
252.799,0.0019078453976525977,-0.0019078453976525977
252.8,0.0038147133544250986,-0.0038147133544250986
252.80100000000002,0.004741439782038313,-0.004741439782038313
252.80200000000002,0.004292638429729909,-0.004292638429729909
252.803,0.0024889645032869973,-0.0024889645032869973
252.804,0.00022543264406931076,0.00022543264406931076
252.805,0.003108472875784403,0.003108472875784403
252.806,0.005340187663671216,0.005340187663671216
252.80700000000002,0.006268488433335388,0.006268488433335388
252.80800000000002,0.005603956040812143,0.005603956040812143
252.809,0.003503695490297802,0.003503695490297802
252.81,0.0005200253525749254,0.0005200253525749254
252.811,0.0025674146493352384,-0.0025674146493352384
252.812,0.004981655654103719,-0.004981655654103719
252.81300000000002,0.006168449744068617,-0.006168449744068617
252.81400000000002,0.005940223656702006,-0.005940223656702006
252.815,0.004504377895444243,-0.004504377895444243
252.816,0.002374250585653438,-0.002374250585653438
252.817,0.00019747866067262968,-0.00019747866067262968
252.818,0.0014402487065352622,0.0014402487065352622
252.81900000000002,0.0021747111193597406,0.0021747111193597406
252.82000000000002,0.0019410329651152124,0.0019410329651152124
252.821,0.0009544631426291471,0.0009544631426291471
252.822,0.00038947232490668264,-0.00038947232490668264
252.823,0.0016552876117928855,-0.0016552876117928855
252.824,0.002499839953218202,-0.002499839953218202
252.82500000000002,0.0027565417547158245,-0.0027565417547158245
252.82600000000002,0.002452107201442522,-0.002452107201442522
252.827,0.0017611727486812887,-0.0017611727486812887
252.828,0.0009239376948444437,-0.0009239376948444437
252.829,0.00016051985206098657,-0.00016051985206098657
252.83,0.0003887083103999572,0.0003887083103999572
252.83100000000002,0.0006818008598486627,0.0006818008598486627
252.83200000000002,0.0007555873004225097,0.0007555873004225097
252.833,0.0006843174088840495,0.0006843174088840495
252.834,0.0005385750800406226,0.0005385750800406226
252.835,0.00036203401993490205,0.00036203401993490205
252.836,0.0001723625707469068,0.0001723625707469068
252.83700000000002,2.0097519799227252e-05,-2.0097519799227252e-05
252.83800000000002,0.00019069941476469902,-0.00019069941476469902
252.839,0.0002914128551544837,-0.0002914128551544837
252.84,0.0002627164561920753,-0.0002627164561920753
252.841,6.341509096396553e-05,-6.341509096396553e-05
252.842,0.00029518565580604597,0.00029518565580604597
252.84300000000002,0.0007289445358292538,0.0007289445358292538
252.84400000000002,0.0010888458636878872,0.0010888458636878872
252.845,0.001200711514741407,0.001200711514741407
252.846,0.0009261741021094547,0.0009261741021094547
252.847,0.00022336799515711695,0.00022336799515711695
252.848,0.0008173908602028705,-0.0008173908602028705
252.84900000000002,0.0019809525635194314,-0.0019809525635194314
252.85000000000002,0.0029810015984361544,-0.0029810015984361544
252.851,0.003545847903927837,-0.003545847903927837
252.852,0.0035085580038226516,-0.0035085580038226516
252.853,0.0028695142401468747,-0.0028695142401468747
252.854,0.0018070236342093693,-0.0018070236342093693
252.85500000000002,0.0006286585555949216,-0.0006286585555949216
252.85600000000002,0.00032324561480346524,0.00032324561480346524
252.857,0.0007815687039046244,0.0007815687039046244
252.858,0.000642718269720255,0.000642718269720255
252.859,2.3648911809577696e-06,2.3648911809577696e-06
252.86,0.0008749207499862418,-0.0008749207499862418
252.86100000000002,0.001643056863245522,-0.001643056863245522
252.86200000000002,0.001989965737967847,-0.001989965737967847
252.863,0.0017423497873159106,-0.0017423497873159106
252.864,0.0009243882119672445,-0.0009243882119672445
252.865,0.0002491599112909059,0.0002491599112909059
252.866,0.0014424330621352734,0.0014424330621352734
252.86700000000002,0.002306269890510133,0.002306269890510133
252.86800000000002,0.0025875990912576693,0.0025875990912576693
252.869,0.0022042147948265487,0.0022042147948265487
252.87,0.0012618201234244003,0.0012618201234244003
252.871,1.0884608464836246e-05,1.0884608464836246e-05
252.872,0.001238485818056017,-0.001238485818056017
252.87300000000002,0.002212211088507754,-0.002212211088507754
252.87400000000002,0.0027455932994000084,-0.0027455932994000084
252.875,0.0028119990325844338,-0.0028119990325844338
252.876,0.002502419814955749,-0.002502419814955749
252.877,0.0019697999702543855,-0.0019697999702543855
252.87800000000001,0.0013638281382175716,-0.0013638281382175716
252.87900000000002,0.0007829445142324301,-0.0007829445142324301
252.88000000000002,0.00026068762267859874,-0.00026068762267859874
252.881,0.0002125560218100386,0.0002125560218100386
252.882,0.000647113016016233,0.000647113016016233
252.883,0.0010145919886525303,0.0010145919886525303
252.88400000000001,0.0012336274699798408,0.0012336274699798408
252.88500000000002,0.0011914894179274123,0.0011914894179274123
252.88600000000002,0.0007954967876196526,0.0007954967876196526
252.887,3.311142801661368e-05,3.311142801661368e-05
252.888,0.0009872723554321785,-0.0009872723554321785
252.889,0.0020380666286212924,-0.0020380666286212924
252.89000000000001,0.0028247575972605906,-0.0028247575972605906
252.89100000000002,0.00307648664841179,-0.00307648664841179
252.892,0.002645332813421239,-0.002645332813421239
252.893,0.001577303889224385,-0.001577303889224385
252.894,0.0001244136153489939,-0.0001244136153489939
252.895,0.0013140091404632063,0.0013140091404632063
252.89600000000002,0.0023076589949857815,0.0023076589949857815
252.89700000000002,0.0025338745260723005,0.0025338745260723005
252.898,0.0018921103993220618,0.0018921103993220618
252.899,0.0005527424083452394,0.0005527424083452394
252.9,0.0010812362046503938,-0.0010812362046503938
252.901,0.002492192462893418,-0.002492192462893418
252.90200000000002,0.0032102303958227406,-0.0032102303958227406
252.90300000000002,0.0029677688225051195,-0.0029677688225051195
252.904,0.0017944968869569734,-0.0017944968869569734
252.905,1.9047701601370933e-05,-1.9047701601370933e-05
252.906,0.0018260541553187886,0.0018260541553187886
252.907,0.003167440071839056,0.003167440071839056
252.90800000000002,0.003570061831730368,0.003570061831730368
252.90900000000002,0.0028745309383202407,0.0028745309383202407
252.91,0.0012479781714268058,0.0012479781714268058
252.911,0.0008679447607282597,-0.0008679447607282597
252.912,0.0028945574685629106,-0.0028945574685629106
252.913,0.00429396857526314,-0.00429396857526314
252.91400000000002,0.004729526098404741,-0.004729526098404741
252.91500000000002,0.004158029762129331,-0.004158029762129331
252.916,0.0028264288978860313,-0.0028264288978860313
252.917,0.0011778380930573134,-0.0011778380930573134
252.918,0.0002986958098275604,0.0002986958098275604
252.919,0.0012230875797114606,0.0012230875797114606
252.92000000000002,0.0014329249311963571,0.0014329249311963571
252.92100000000002,0.0010129743846162146,0.0010129743846162146
252.922,0.00024069486278759572,0.00024069486278759572
252.923,0.0005284128516347945,-0.0005284128516347945
252.924,0.0009926325245057216,-0.0009926325245057216
252.925,0.0010065564896672478,-0.0010065564896672478
252.92600000000002,0.0006205549925635211,-0.0006205549925635211
252.92700000000002,4.7256163466594505e-05,-4.7256163466594505e-05
252.928,0.0004287887716490849,0.0004287887716490849
252.929,0.0005629283866920817,0.0005629283866920817
252.93,0.00024262078015328445,0.00024262078015328445
252.931,0.00047203992540630866,-0.00047203992540630866
252.93200000000002,0.0013715899910024347,-0.0013715899910024347
252.93300000000002,0.0021730696027380697,-0.0021730696027380697
252.934,0.00261914116183751,-0.00261914116183751
252.935,0.0025642864175480138,-0.0025642864175480138
252.936,0.0020183858911900225,-0.0020183858911900225
252.937,0.0011347665848994266,-0.0011347665848994266
252.93800000000002,0.00015034990324758687,-0.00015034990324758687
252.93900000000002,0.0006977775852241954,0.0006977775852241954
252.94,0.0012480866288038202,0.0012480866288038202
252.941,0.0014561644742063682,0.0014561644742063682
252.942,0.0013899168609299768,0.0013899168609299768
252.943,0.0011841933601348666,0.0011841933601348666
252.94400000000002,0.0009754527846980104,0.0009754527846980104
252.94500000000002,0.0008433852222302386,0.0008433852222302386
252.946,0.000782174992203143,0.000782174992203143
252.947,0.0007113530208548673,0.0007113530208548673
252.948,0.000520104899657257,0.000520104899657257
252.949,0.00012572401686634574,0.00012572401686634574
252.95000000000002,0.00047840785606597297,-0.00047840785606597297
252.95100000000002,0.0012055222035665964,-0.0012055222035665964
252.952,0.001896822565319064,-0.001896822565319064
252.953,0.0023742333234680617,-0.0023742333234680617
252.954,0.002504890496605073,-0.002504890496605073
252.955,0.0022528927099483035,-0.0022528927099483035
252.95600000000002,0.0016983069756526408,-0.0016983069756526408
252.95700000000002,0.0010154444466953952,-0.0010154444466953952
252.958,0.00041741645267634925,-0.00041741645267634925
252.959,8.633759217995631e-05,-8.633759217995631e-05
252.96,0.00011371616034666056,-0.00011371616034666056
252.961,0.0004717577744648013,-0.0004717577744648013
252.96200000000002,0.001025054894351715,-0.001025054894351715
252.96300000000002,0.0015777002348682024,-0.0015777002348682024
252.964,0.0019385737178213855,-0.0019385737178213855
252.965,0.001981813485383005,-0.001981813485383005
252.966,0.0016821672093114914,-0.0016821672093114914
252.967,0.0011147568731146795,-0.0011147568731146795
252.96800000000002,0.00042192052258040896,-0.00042192052258040896
252.96900000000002,0.00023871391334749837,0.00023871391334749837
252.97,0.0007450551437560269,0.0007450551437560269
252.971,0.0010423087538717752,0.0010423087538717752
252.972,0.0011461418179515733,0.0011461418179515733
252.973,0.0011192131585959384,0.0011192131585959384
252.97400000000002,0.0010330811219337523,0.0010330811219337523
252.97500000000002,0.0009323422839724552,0.0009323422839724552
252.976,0.000815851074420249,0.000815851074420249
252.977,0.0006420765290871659,0.0006420765290871659
252.978,0.0003553292002051006,0.0003553292002051006
252.979,7.91103430156055e-05,-7.91103430156055e-05
252.98000000000002,0.0006465955871996799,-0.0006465955871996799
252.98100000000002,0.0012743445223244757,-0.0012743445223244757
252.982,0.0018472124680914393,-0.0018472124680914393
252.983,0.0022429202439934984,-0.0022429202439934984
252.984,0.0023736009697674742,-0.0023736009697674742
252.985,0.0022176205782449753,-0.0022176205782449753
252.98600000000002,0.0018290242123231333,-0.0018290242123231333
252.98700000000002,0.0013203629027049451,-0.0013203629027049451
252.988,0.0008248135844784537,-0.0008248135844784537
252.989,0.00045148718210249165,-0.00045148718210249165
252.99,0.0002505267838508513,-0.0002505267838508513
252.991,0.0002009617761614537,-0.0002009617761614537
252.99200000000002,0.00022567228990254303,-0.00022567228990254303
252.99300000000002,0.00022750981738137095,-0.00022750981738137095
252.994,0.00013254685751496275,-0.00013254685751496275
252.995,7.632506966766885e-05,7.632506966766885e-05
252.996,0.0003486030377711866,0.0003486030377711866
252.997,0.0005826969632855958,0.0005826969632855958
252.99800000000002,0.0006638890349710613,0.0006638890349710613
252.99900000000002,0.0005096327833582521,0.0005096327833582521
253.0,0.00010516123570049359,0.00010516123570049359
253.001,0.0004841779532672772,-0.0004841779532672772
253.002,0.001128911846741111,-0.001128911846741111
253.00300000000001,0.001674400351651149,-0.001674400351651149
253.00400000000002,0.0019890169860681804,-0.0019890169860681804
253.00500000000002,0.0020045442270722877,-0.0020045442270722877
253.006,0.001734807837474012,-0.001734807837474012
253.007,0.0012666985100080249,-0.0012666985100080249
253.008,0.0007278463091086487,-0.0007278463091086487
253.00900000000001,0.00024351462754774263,-0.00024351462754774263
253.01000000000002,0.0001013108208664241,0.0001013108208664241
253.01100000000002,0.00028133486217208584,0.00028133486217208584
253.012,0.0003261869192224369,0.0003261869192224369
253.013,0.00029536672898485293,0.00029536672898485293
253.014,0.000244596988557694,0.000244596988557694
253.01500000000001,0.00019831014885826544,0.00019831014885826544
253.01600000000002,0.00014010534321559179,0.00014010534321559179
253.017,2.5342093910483027e-05,2.5342093910483027e-05
253.018,0.00018940444325541802,-0.00018940444325541802
253.019,0.0005127946360507354,-0.0005127946360507354
253.02,0.0008963774239330131,-0.0008963774239330131
253.02100000000002,0.0012351560443184869,-0.0012351560443184869
253.02200000000002,0.0013942669174025143,-0.0013942669174025143
253.023,0.0012546451141971732,-0.0012546451141971732
253.024,0.000762298336990291,-0.000762298336990291
253.025,3.713423198796248e-05,3.713423198796248e-05
253.026,0.0009931499213309337,0.0009931499213309337
253.02700000000002,0.0018797837237097491,0.0018797837237097491
253.02800000000002,0.0024531856786471798,0.0024531856786471798
253.029,0.002520800757616391,0.002520800757616391
253.03,0.002000718371835868,0.002000718371835868
253.031,0.0009519829764188619,0.0009519829764188619
253.032,0.00043465205337357086,-0.00043465205337357086
253.03300000000002,0.0018837390215703032,-0.0018837390215703032
253.03400000000002,0.0031062991928985013,-0.0031062991928985013
253.035,0.0038740675176909423,-0.0038740675176909423
253.036,0.0040750806055691695,-0.0040750806055691695
253.037,0.0037350640686131626,-0.0037350640686131626
253.038,0.00299994652897698,-0.00299994652897698
253.03900000000002,0.0020867177235819106,-0.0020867177235819106
253.04000000000002,0.0012189128344971285,-0.0012189128344971285
253.041,0.0005665087898901775,-0.0005665087898901775
253.042,0.00020719182285810757,-0.00020719182285810757
253.043,0.00011814019137676966,-0.00011814019137676966
253.044,0.0001975292023266898,-0.0001975292023266898
253.04500000000002,0.000306234473306551,-0.000306234473306551
253.04600000000002,0.00031532091549673485,-0.00031532091549673485
253.047,0.00014498226483628852,-0.00014498226483628852
253.048,0.00021498602637234606,0.00021498602637234606
253.049,0.0007063189161033468,0.0007063189161033468
253.05,0.0012215222737903806,0.0012215222737903806
253.05100000000002,0.0016333324402877732,0.0016333324402877732
253.05200000000002,0.0018253627912759901,0.0018253627912759901
253.053,0.0017167190413153513,0.0017167190413153513
253.054,0.0012768392159965736,0.0012768392159965736
253.055,0.0005302944654505905,0.0005302944654505905
253.056,0.000446531157444426,-0.000446531157444426
253.05700000000002,0.0015345490617005343,-0.0015345490617005343
253.05800000000002,0.002585430790557764,-0.002585430790557764
253.059,0.003439163535234926,-0.003439163535234926
253.06,0.0039457787546901555,-0.0039457787546901555
253.061,0.003990302821013174,-0.003990302821013174
253.062,0.003517825001762548,-0.003517825001762548
253.06300000000002,0.0025533063001610162,-0.0025533063001610162
253.06400000000002,0.0012096733948071094,-0.0012096733948071094
253.065,0.00032112741264055035,0.00032112741264055035
253.066,0.0017958925556953674,0.0017958925556953674
253.067,0.0029633558797859676,0.0029633558797859676
253.068,0.003614273555759787,0.003614273555759787
253.06900000000002,0.0036265641829559903,0.0036265641829559903
253.07000000000002,0.002993650870929837,0.002993650870929837
253.071,0.0018277883638131679,0.0018277883638131679
253.072,0.0003365772079172472,0.0003365772079172472
253.073,0.001221821121840228,-0.001221821121840228
253.074,0.0025933396951999337,-0.0025933396951999337
253.07500000000002,0.003578493868769617,-0.003578493868769617
253.07600000000002,0.004066214282553997,-0.004066214282553997
253.077,0.004043748461222467,-0.004043748461222467
253.078,0.0035825277094687735,-0.0035825277094687735
253.079,0.0028067217772024208,-0.0028067217772024208
253.08,0.001855543717283354,-0.001855543717283354
253.08100000000002,0.0008509697784597608,-0.0008509697784597608
253.08200000000002,0.0001205681583236466,0.0001205681583236466
253.083,0.0010095278852702368,0.0010095278852702368
253.084,0.0017906821137633965,0.0017906821137633965
253.085,0.0024441288161402867,0.0024441288161402867
253.086,0.0029389047829909225,0.0029389047829909225
253.08700000000002,0.0032264831071914814,0.0032264831071914814
253.08800000000002,0.003247261005020646,0.003247261005020646
253.089,0.002948110109381578,0.002948110109381578
253.09,0.0023049201137488725,0.0023049201137488725
253.091,0.0013421442482580903,0.0013421442482580903
253.092,0.00014214220088535332,0.00014214220088535332
253.09300000000002,0.001159819054847958,-0.001159819054847958
253.09400000000002,0.0023948236693279216,-0.0023948236693279216
253.095,0.0033897290785621405,-0.0033897290785621405
253.096,0.003999997250554998,-0.003999997250554998
253.097,0.004138463473711228,-0.004138463473711228
253.098,0.003793737235320116,-0.003793737235320116
253.09900000000002,0.003034412962584533,-0.003034412962584533
253.10000000000002,0.00199828167541483,-0.00199828167541483
253.101,0.0008685641809080029,-0.0008685641809080029
253.102,0.0001586215230457971,0.0001586215230457971
253.103,0.00090996003121473,0.00090996003121473
253.104,0.0012676188562272415,0.0012676188562272415
253.10500000000002,0.0011929023598340972,0.0011929023598340972
253.10600000000002,0.0007358670077893145,0.0007358670077893145
253.107,2.7798357856331848e-05,2.7798357856331848e-05
253.108,0.0007436977736425812,-0.0007436977736425812
253.109,0.0013736865336404617,-0.0013736865336404617
253.11,0.0016860382876716735,-0.0016860382876716735
253.11100000000002,0.0015769836553461522,-0.0015769836553461522
253.11200000000002,0.0010454596804390644,-0.0010454596804390644
253.113,0.00020132383404650699,-0.00020132383404650699
253.114,0.0007530777503272713,0.0007530777503272713
253.115,0.0015661493810394612,0.0015661493810394612
253.116,0.0019964939597834777,0.0019964939597834777
253.11700000000002,0.0018747344693087092,0.0018747344693087092
253.11800000000002,0.0011519009080838741,0.0011519009080838741
253.119,7.917897538133876e-05,-7.917897538133876e-05
253.12,0.0015968240969016893,-0.0015968240969016893
253.121,0.003096400542002629,-0.003096400542002629
253.122,0.004258940250040456,-0.004258940250040456
253.12300000000002,0.004825786464307033,-0.004825786464307033
253.12400000000002,0.004660478581450814,-0.004660478581450814
253.125,0.0037820777668032416,-0.0037820777668032416
253.126,0.002361450166995021,-0.002361450166995021
253.127,0.0006816306996508439,-0.0006816306996508439
253.12800000000001,0.0009274134531969227,0.0009274134531969227
253.12900000000002,0.0021630581987527662,0.0021630581987527662
253.13000000000002,0.002815112466401967,0.002815112466401967
253.131,0.002806666945868352,0.002806666945868352
253.132,0.002202511677043779,0.002202511677043779
253.133,0.0011853937156408151,0.0011853937156408151
253.13400000000001,8.063245556999944e-06,8.063245556999944e-06
253.13500000000002,0.0010659840606428936,-0.0010659840606428936
253.13600000000002,0.0018188875711017344,-0.0018188875711017344
253.137,0.002119996096655702,-0.002119996096655702
253.138,0.001945398786364654,-0.001945398786364654
253.139,0.001373763556969879,-0.001373763556969879
253.14000000000001,0.0005618522888878245,-0.0005618522888878245
253.14100000000002,0.0002934522087169805,0.0002934522087169805
253.142,0.0009981958941559146,0.0009981958941559146
253.143,0.0014011726299986394,0.0014011726299986394
253.144,0.0014235070169693882,0.0014235070169693882
253.145,0.0010730245833866004,0.0010730245833866004
253.14600000000002,0.00044090866608747614,0.00044090866608747614
253.14700000000002,0.0003190397371425971,-0.0003190397371425971
253.148,0.0010251570680740428,-0.0010251570680740428
253.149,0.001510276526776557,-0.001510276526776557
253.15,0.0016628795381869164,-0.0016628795381869164
253.151,0.0014572653697368797,-0.0014572653697368797
253.15200000000002,0.0009641952245424605,-0.0009641952245424605
253.15300000000002,0.000337201147182682,-0.000337201147182682
253.154,0.000224457759556644,0.000224457759556644
253.155,0.0005286418568784681,0.0005286418568784681
253.156,0.0004459589425766976,0.0004459589425766976
253.157,4.730803388765412e-05,-4.730803388765412e-05
253.15800000000002,0.0008526250837144743,-0.0008526250837144743
253.15900000000002,0.0017664383736064352,-0.0017664383736064352
253.16,0.0025294573886525443,-0.0025294573886525443
253.161,0.0028965350906501063,-0.0028965350906501063
253.162,0.0027084941593856645,-0.0027084941593856645
253.163,0.001945067381799009,-0.001945067381799009
253.16400000000002,0.0007420956596838222,-0.0007420956596838222
253.16500000000002,0.0006344741886951686,0.0006344741886951686
253.166,0.0018529501507616518,0.0018529501507616518
253.167,0.0026021922348296762,0.0026021922348296762
253.168,0.0026761763810926797,0.0026761763810926797
253.169,0.0020326798830003,0.0020326798830003
253.17000000000002,0.0008086654238724093,0.0008086654238724093
253.17100000000002,0.0007129470003832749,-0.0007129470003832749
253.172,0.0021764694754322477,-0.0021764694754322477
253.173,0.0032463316426713943,-0.0032463316426713943
253.174,0.0036936688383684955,-0.0036936688383684955
253.175,0.003452536032741083,-0.003452536032741083
253.17600000000002,0.0026306456166133073,-0.0026306456166133073
253.17700000000002,0.0014728119658379932,-0.0014728119658379932
253.178,0.00028884134274939746,-0.00028884134274939746
253.179,0.0006326237149839151,0.0006326237149839151
253.18,0.0010996216315963992,0.0010996216315963992
253.181,0.001061211409230407,0.001061211409230407
253.18200000000002,0.0006100344723490228,0.0006100344723490228
253.18300000000002,5.498788739874827e-05,-5.498788739874827e-05
253.184,0.000692668422400596,-0.000692668422400596
253.185,0.0010904181059319354,-0.0010904181059319354
253.186,0.0011216168552559142,-0.0011216168552559142
253.187,0.0007745912288882358,-0.0007745912288882358
253.18800000000002,0.00014760334545179475,-0.00014760334545179475
253.18900000000002,0.0005856514868968943,0.0005856514868968943
253.19,0.0012277060111226437,0.0012277060111226437
253.191,0.0016103190015587725,0.0016103190015587725
253.192,0.0016344131569416452,0.0016344131569416452
253.193,0.0012879220590357753,0.0012879220590357753
253.19400000000002,0.0006397673972289126,0.0006397673972289126
253.19500000000002,0.00018505085917913967,-0.00018505085917913967
253.196,0.0010399192462006196,-0.0010399192462006196
253.197,0.0017902861073091844,-0.0017902861073091844
253.198,0.0023383005127148504,-0.0023383005127148504
253.199,0.0026342307390670697,-0.0026342307390670697
253.20000000000002,0.0026749429511433577,-0.0026749429511433577
253.20100000000002,0.0024931671669734205,-0.0024931671669734205
253.202,0.002142858881050735,-0.002142858881050735
253.203,0.0016855804597691142,-0.0016855804597691142
253.204,0.0011810207863503649,-0.0011810207863503649
253.205,0.0006824357386956645,-0.0006824357386956645
253.20600000000002,0.0002358056555945168,-0.0002358056555945168
253.20700000000002,0.0001195479729033738,0.0001195479729033738
253.208,0.00035110760179119226,0.00035110760179119226
253.209,0.00043538616739413985,0.00043538616739413985
253.21,0.00036224146705531214,0.00036224146705531214
253.211,0.00014004788305756,0.00014004788305756
253.21200000000002,0.00020029085695119706,-0.00020029085695119706
