Czas,AbsSum,Sum
116.536,0.007164106063849539,-0.007164106063849539
116.537,0.003926538684473448,-0.003926538684473448
116.53800000000001,1.4235413601732594e-05,1.4235413601732594e-05
116.539,0.0040540901378111225,0.0040540901378111225
116.54,0.007460677540305388,0.007460677540305388
116.54100000000001,0.00956270648669397,0.00956270648669397
116.542,0.009938963097086136,0.009938963097086136
116.543,0.0085471688903604,0.0085471688903604
116.54400000000001,0.005749968280036074,0.005749968280036074
116.545,0.0022272434037982677,0.0022272434037982677
116.546,0.0012000391770152514,-0.0012000391770152514
116.54700000000001,0.0037812792244445283,-0.0037812792244445283
116.548,0.005019341357899476,-0.005019341357899476
116.549,0.004772114456426038,-0.004772114456426038
116.55000000000001,0.003247010480753348,-0.003247010480753348
116.551,0.0008981408444925167,-0.0008981408444925167
116.552,0.0017333363037482818,0.0017333363037482818
116.55300000000001,0.0041793058050139205,0.0041793058050139205
116.554,0.006152802382614475,0.006152802382614475
116.555,0.007573554227950889,0.007573554227950889
116.55600000000001,0.008511877848182676,0.008511877848182676
116.557,0.009081563358064329,0.009081563358064329
116.558,0.00932979505829083,0.00932979505829083
116.55900000000001,0.009171294723138788,0.009171294723138788
116.56,0.008395455636070505,0.008395455636070505
116.561,0.006746249363188149,0.006746249363188149
116.56200000000001,0.004045835895651352,0.004045835895651352
116.563,0.0003146243160278096,0.0003146243160278096
116.56400000000001,0.004160381792377563,-0.004160381792377563
116.56500000000001,0.008840401347063265,-0.008840401347063265
116.566,0.013035889911091936,-0.013035889911091936
116.56700000000001,0.01606673282440186,-0.01606673282440186
116.56800000000001,0.01743346360536127,-0.01743346360536127
116.569,0.016946466920156552,-0.016946466920156552
116.57000000000001,0.014773067630257751,-0.014773067630257751
116.57100000000001,0.011388562640730189,-0.011388562640730189
116.572,0.007447551587531876,-0.007447551587531876
116.57300000000001,0.003616108666710303,-0.003616108666710303
116.57400000000001,0.0004155556544422429,-0.0004155556544422429
116.575,0.0018779718713472849,0.0018779718713472849
116.57600000000001,0.0032543253757416454,0.0032543253757416454
116.57700000000001,0.0039132757210496435,0.0039132757210496435
116.578,0.0041579578469502654,0.0041579578469502654
116.57900000000001,0.004277185081201156,0.004277185081201156
116.58000000000001,0.004454835567639103,0.004454835567639103
116.581,0.004730860710734433,0.004730860710734433
116.58200000000001,0.005018159835033077,0.005018159835033077
116.58300000000001,0.005160293589995008,0.005160293589995008
116.584,0.005003412136204813,0.005003412136204813
116.58500000000001,0.004455122818026306,0.004455122818026306
116.58600000000001,0.00351227869666494,0.00351227869666494
116.587,0.0022542147826505638,0.0022542147826505638
116.58800000000001,0.0008116163924774271,0.0008116163924774271
116.58900000000001,0.0006712714218840023,-0.0006712714218840023
116.59,0.0020643284051487178,-0.0020643284051487178
116.59100000000001,0.0032604825558211676,-0.0032604825558211676
116.59200000000001,0.004168302853546284,-0.004168302853546284
116.593,0.004699547933187922,-0.004699547933187922
116.59400000000001,0.004765580345306137,-0.004765580345306137
116.59500000000001,0.004291799283676269,-0.004291799283676269
116.596,0.003249264681231851,-0.003249264681231851
116.59700000000001,0.0016920113718344304,-0.0016920113718344304
116.59800000000001,0.00021783138698530725,0.00021783138698530725
116.599,0.002213772123871945,0.002213772123871945
116.60000000000001,0.003965166749521913,0.003965166749521913
116.60100000000001,0.005147833226068458,0.005147833226068458
116.602,0.005525943167862996,0.005525943167862996
116.60300000000001,0.005019049545138929,0.005019049545138929
116.60400000000001,0.003730448226349993,0.003730448226349993
116.605,0.0019245542236657617,0.0019245542236657617
116.60600000000001,4.2195239296770955e-05,-4.2195239296770955e-05
116.60700000000001,0.001816269014257142,-0.001816269014257142
116.608,0.003137774275075511,-0.003137774275075511
116.60900000000001,0.00389803364609876,-0.00389803364609876
116.61000000000001,0.0041464574738908,-0.0041464574738908
116.611,0.004046917876552884,-0.004046917876552884
116.61200000000001,0.003801486065616985,-0.003801486065616985
116.61300000000001,0.0035704387965693803,-0.0035704387965693803
116.614,0.0034177667934392787,-0.0034177667934392787
116.61500000000001,0.0033009126681299403,-0.0033009126681299403
116.61600000000001,0.00310609951017792,-0.00310609951017792
116.617,0.002712979748207178,-0.002712979748207178
116.61800000000001,0.0020611733300936836,-0.0020611733300936836
116.61900000000001,0.0011908783451551636,-0.0011908783451551636
116.62,0.00024031709060001106,-0.00024031709060001106
116.62100000000001,0.000599724434630707,0.000599724434630707
116.62200000000001,0.0011563914752215625,0.0011563914752215625
116.623,0.0013416470419596429,0.0013416470419596429
116.62400000000001,0.0011874156922942775,0.0011874156922942775
116.62500000000001,0.0008327680756631381,0.0008327680756631381
116.626,0.0004659169044240514,0.0004659169044240514
116.62700000000001,0.00024259220678843918,0.00024259220678843918
116.628,0.00021350720701448353,0.00021350720701448353
116.629,0.00029232180604844317,0.00029232180604844317
116.63000000000001,0.0002815784289191262,0.0002815784289191262
116.631,4.77888274967943e-05,-4.77888274967943e-05
116.632,0.0008496179780026614,-0.0008496179780026614
116.63300000000001,0.002108049519124476,-0.002108049519124476
116.634,0.003594517038895337,-0.003594517038895337
116.635,0.004899945284601664,-0.004899945284601664
116.63600000000001,0.005540525840518107,-0.005540525840518107
116.637,0.0051086526683981875,-0.0051086526683981875
116.638,0.0034219403002757717,-0.0034219403002757717
116.63900000000001,0.0006197702554707091,-0.0006197702554707091
116.64,0.002829514928088551,0.002829514928088551
116.641,0.006220783233055055,0.006220783233055055
116.64200000000001,0.008782238632987747,0.008782238632987747
116.643,0.00987650359027043,0.00987650359027043
116.644,0.00917450559631906,0.00917450559631906
116.64500000000001,0.006751109843792123,0.006751109843792123
116.646,0.003074531477747801,0.003074531477747801
116.647,0.0011068865512112028,-0.0011068865512112028
116.64800000000001,0.004947137288176348,-0.004947137288176348
116.649,0.007702193929161479,-0.007702193929161479
116.65,0.008892686435913538,-0.008892686435913538
116.65100000000001,0.0083897589358072,-0.0083897589358072
116.652,0.006409392839854174,-0.006409392839854174
116.653,0.0034277004119378156,-0.0034277004119378156
116.65400000000001,5.017132796318508e-05,-5.017132796318508e-05
116.655,0.0031242865039446833,0.0031242865039446833
116.656,0.005609538529037294,0.005609538529037294
116.65700000000001,0.007089576616124411,0.007089576616124411
116.658,0.007427094042892332,0.007427094042892332
116.659,0.006638490485823689,0.006638490485823689
116.66000000000001,0.00485674156440988,0.00485674156440988
116.661,0.002299874935240898,0.002299874935240898
116.662,0.0007478032507242626,-0.0007478032507242626
116.66300000000001,0.003946542910408375,-0.003946542910408375
116.664,0.006916477446552209,-0.006916477446552209
116.665,0.009269672840431646,-0.009269672840431646
116.66600000000001,0.010663197562162175,-0.010663197562162175
116.667,0.010865434772196028,-0.010865434772196028
116.668,0.009817170084644682,-0.009817170084644682
116.66900000000001,0.007664865060866874,-0.007664865060866874
116.67,0.004748593989589631,-0.004748593989589631
116.671,0.0015402726535528291,-0.0015402726535528291
116.67200000000001,0.001455492237219387,0.001455492237219387
116.673,0.003811630622718442,0.003811630622718442
116.674,0.005267952150123427,0.005267952150123427
116.67500000000001,0.005772972538848707,0.005772972538848707
116.676,0.005466516030711399,0.005466516030711399
116.677,0.004610836899261271,0.004610836899261271
116.67800000000001,0.0034950440272896077,0.0034950440272896077
116.679,0.002346014969557142,0.002346014969557142
116.68,0.0012755833392477428,0.0012755833392477428
116.68100000000001,0.00027972010657547215,0.00027972010657547215
116.682,0.0007141926149444766,-0.0007141926149444766
116.683,0.0017738620991803132,-0.0017738620991803132
116.68400000000001,0.002893867990079004,-0.002893867990079004
116.685,0.003961923809679749,-0.003961923809679749
116.686,0.00477534072478861,-0.00477534072478861
116.68700000000001,0.00510375029281737,-0.00510375029281737
116.688,0.0047756131029815805,-0.0047756131029815805
116.68900000000001,0.0037556428211044587,-0.0037556428211044587
116.69000000000001,0.0021820668491393897,-0.0021820668491393897
116.691,0.0003462094060891187,-0.0003462094060891187
116.69200000000001,0.0013825611497952513,0.0013825611497952513
116.69300000000001,0.0026633595425368983,0.0026633595425368983
116.694,0.0032863129635787446,0.0032863129635787446
116.69500000000001,0.003235736245111696,0.003235736245111696
116.69600000000001,0.002691305571276076,0.002691305571276076
116.697,0.0019655169146498034,0.0019655169146498034
116.69800000000001,0.0013975341977115721,0.0013975341977115721
116.69900000000001,0.0012385636796529535,0.0012385636796529535
116.7,0.0015668741769991497,0.0015668741769991497
116.70100000000001,0.0022605270767823427,0.0022605270767823427
116.70200000000001,0.003036375808121062,0.003036375808121062
116.703,0.0035417802581401764,0.0035417802581401764
116.70400000000001,0.0034683763261761894,0.0034683763261761894
116.70500000000001,0.0026508463467861307,0.0026508463467861307
116.706,0.001119786243177071,0.001119786243177071
116.70700000000001,0.0009060979267418846,-0.0009060979267418846
116.70800000000001,0.003083005080918409,-0.003083005080918409
116.709,0.005037526565705481,-0.005037526565705481
116.71000000000001,0.006463187656526294,-0.006463187656526294
116.71100000000001,0.007188906773301236,-0.007188906773301236
116.712,0.007201896005013496,-0.007201896005013496
116.71300000000001,0.006623839119305402,-0.006623839119305402
116.71400000000001,0.005654167127727399,-0.005654167127727399
116.715,0.004502896309898746,-0.004502896309898746
116.71600000000001,0.0033354897397971845,-0.0033354897397971845
116.71700000000001,0.0022445614914286265,-0.0022445614914286265
116.718,0.0012516368258520595,-0.0012516368258520595
116.71900000000001,0.0003313404179649666,-0.0003313404179649666
116.72000000000001,0.0005557971134345936,0.0005557971134345936
116.721,0.001435607678788167,0.001435607678788167
116.72200000000001,0.002305953267551884,0.002305953267551884
116.72300000000001,0.0031365470088361093,0.0031365470088361093
116.724,0.0038775230612728994,0.0038775230612728994
116.72500000000001,0.004469183628502321,0.004469183628502321
116.72600000000001,0.004847667815311416,0.004847667815311416
116.727,0.004946383713948435,0.004946383713948435
116.72800000000001,0.004697897334144665,0.004697897334144665
116.72900000000001,0.00404269191007823,0.00404269191007823
116.73,0.0029484515453374526,0.0029484515453374526
116.73100000000001,0.001437205674248639,0.001437205674248639
116.73200000000001,0.00038930326564643814,-0.00038930326564643814
116.733,0.0023396351651486023,-0.0023396351651486023
116.73400000000001,0.004149855450618615,-0.004149855450618615
116.73500000000001,0.005531689395932371,-0.005531689395932371
116.736,0.0062434408198667555,-0.0062434408198667555
116.73700000000001,0.006164097282675345,-0.006164097282675345
116.73800000000001,0.005345159314824963,-0.005345159314824963
116.739,0.004017751880925549,-0.004017751880925549
116.74000000000001,0.002544755103986352,-0.002544755103986352
116.74100000000001,0.0013256611256862864,-0.0013256611256862864
116.742,0.0006795709166025087,-0.0006795709166025087
116.74300000000001,0.0007425319417801987,-0.0007425319417801987
116.74400000000001,0.0014145299482423072,-0.0014145299482423072
116.745,0.0023780159302231067,-0.0023780159302231067
116.74600000000001,0.0031875467646119387,-0.0031875467646119387
116.74700000000001,0.0034061559423267623,-0.0034061559423267623
116.748,0.002746796207993241,-0.002746796207993241
116.74900000000001,0.0011731151693676924,-0.0011731151693676924
116.75000000000001,0.0010748710805121246,0.0010748710805121246
116.751,0.0035411060086937224,0.0035411060086937224
116.75200000000001,0.005682584836174671,0.005682584836174671
116.753,0.007026806197322134,0.007026806197322134
116.754,0.007307154035445757,0.007307154035445757
116.75500000000001,0.006532708124211984,0.006532708124211984
116.756,0.0049708134896398045,0.0049708134896398045
116.757,0.003050134825562721,0.003050134825562721
116.75800000000001,0.001218730624906818,0.001218730624906818
116.759,0.0001935051284098954,-0.0001935051284098954
116.76,0.0010611649202483797,-0.0010611649202483797
116.76100000000001,0.0014705371567532647,-0.0014705371567532647
116.762,0.0016486594188108964,-0.0016486594188108964
116.763,0.001843576930841712,-0.001843576930841712
116.76400000000001,0.002202916759400558,-0.002202916759400558
116.765,0.002698467523128058,-0.002698467523128058
116.766,0.0031274604194741966,-0.0031274604194741966
116.76700000000001,0.0031926193681999877,-0.0031926193681999877
116.768,0.0026330212131366187,-0.0026330212131366187
116.769,0.0013572918338673825,-0.0013572918338673825
116.77000000000001,0.00047266635881679946,0.00047266635881679946
116.771,0.002443734104415245,0.002443734104415245
116.772,0.003986523384769794,0.003986523384769794
116.77300000000001,0.0045374500632516,0.0045374500632516
116.774,0.003717216029468963,0.003717216029468963
116.775,0.0014669061835696807,0.0014669061835696807
116.77600000000001,0.0019051426794174653,-0.0019051426794174653
116.777,0.00578436367148059,-0.00578436367148059
116.778,0.009402604604923924,-0.009402604604923924
116.77900000000001,0.012036313862095253,-0.012036313862095253
116.78,0.0131896105679405,-0.0131896105679405
116.781,0.012707114435517823,-0.012707114435517823
116.78200000000001,0.01078500144980492,-0.01078500144980492
116.783,0.0078822029492791,-0.0078822029492791
116.784,0.0045655345274147364,-0.0045655345274147364
116.78500000000001,0.0013421402511291263,-0.0013421402511291263
116.786,0.0014662859236393576,0.0014662859236393576
116.787,0.0037702359564617317,0.0037702359564617317
116.78800000000001,0.005671772598864615,0.005671772598864615
116.789,0.007358623726477238,0.007358623726477238
116.79,0.008976343928563502,0.008976343928563502
116.79100000000001,0.010527167052543232,0.010527167052543232
116.792,0.0118322819807339,0.0118322819807339
116.793,0.012570112792491353,0.012570112792491353
116.79400000000001,0.012375751889645462,0.012375751889645462
116.795,0.010965718598329703,0.010965718598329703
116.796,0.00824472116430626,0.00824472116430626
116.79700000000001,0.004359021238890406,0.004359021238890406
116.798,0.0003192848823362587,-0.0003192848823362587
116.799,0.005268873176186183,-0.005268873176186183
116.80000000000001,0.009929146019341535,-0.009929146019341535
116.801,0.013807750932906902,-0.013807750932906902
116.802,0.016554888558470572,-0.016554888558470572
116.80300000000001,0.017989039078615182,-0.017989039078615182
116.804,0.018077993787565028,-0.018077993787565028
116.805,0.016894583751361787,-0.016894583751361787
116.80600000000001,0.014572520945887192,-0.014572520945887192
116.807,0.011282581690568333,-0.011282581690568333
116.808,0.007235775296386689,-0.007235775296386689
116.80900000000001,0.002704266098841221,-0.002704266098841221
116.81,0.0019604154128458643,0.0019604154128458643
116.811,0.006333956211753036,0.006333956211753036
116.81200000000001,0.009963710086865087,0.009963710086865087
116.813,0.012447812589460221,0.012447812589460221
116.81400000000001,0.01352872267793314,0.01352872267793314
116.81500000000001,0.013170242123690414,0.013170242123690414
116.816,0.01158759641389187,0.01158759641389187
116.81700000000001,0.009212669584595516,0.009212669584595516
116.81800000000001,0.006597088063539735,0.006597088063539735
116.819,0.004277365796938322,0.004277365796938322
116.82000000000001,0.0026408786699346283,0.0026408786699346283
116.82100000000001,0.0018333841313078894,0.0018333841313078894
116.822,0.0017368872799578884,0.0017368872799578884
116.82300000000001,0.002024594923685145,0.002024594923685145
116.82400000000001,0.002274943894096249,0.002274943894096249
116.825,0.0021077924371330106,0.0021077924371330106
116.82600000000001,0.0012994120254819805,0.0012994120254819805
116.82700000000001,0.00015885531226350513,-0.00015885531226350513
116.828,0.0020734562504730104,-0.0020734562504730104
116.82900000000001,0.004123607461146375,-0.004123607461146375
116.83000000000001,0.005968505950893905,-0.005968505950893905
116.831,0.007347624646164492,-0.007347624646164492
116.83200000000001,0.008139999099287467,-0.008139999099287467
116.83300000000001,0.008365604950775013,-0.008365604950775013
116.834,0.008134699499621739,-0.008134699499621739
116.83500000000001,0.007570792757302917,-0.007570792757302917
116.83600000000001,0.006742311534964094,-0.006742311534964094
116.837,0.005633500863966427,-0.005633500863966427
116.83800000000001,0.004168363899004193,-0.004168363899004193
116.83900000000001,0.002278806737727822,-0.002278806737727822
116.84,1.1692484377173913e-05,1.1692484377173913e-05
116.84100000000001,0.002526792766902621,0.002526792766902621
116.84200000000001,0.004930815859200662,0.004930815859200662
116.843,0.006790700705896297,0.006790700705896297
116.84400000000001,0.007694200607993685,0.007694200607993685
116.84500000000001,0.007388645241869158,0.007388645241869158
116.846,0.005892296678481788,0.005892296678481788
116.84700000000001,0.0035345070248132384,0.0035345070248132384
116.84800000000001,0.0009011565823511236,0.0009011565823511236
116.849,0.0013079008627689872,-0.0013079008627689872
116.85000000000001,0.00247235659193204,-0.00247235659193204
116.85100000000001,0.002238953261440826,-0.002238953261440826
116.852,0.0006437329572663016,-0.0006437329572663016
116.85300000000001,0.0018731834370040706,0.0018731834370040706
116.85400000000001,0.004570942329134293,0.004570942329134293
116.855,0.006603780102797243,0.006603780102797243
116.85600000000001,0.007254221124982834,0.007254221124982834
116.85700000000001,0.006135590149806262,0.006135590149806262
116.858,0.003303783632087108,0.003303783632087108
116.85900000000001,0.0007550070528275157,-0.0007550070528275157
116.86000000000001,0.005256690753455734,-0.005256690753455734
116.861,0.009331785462667979,-0.009331785462667979
116.86200000000001,0.012254422319062664,-0.012254422319062664
116.86300000000001,0.013620393270070627,-0.013620393270070627
116.864,0.013423756559285061,-0.013423756559285061
116.86500000000001,0.01201371370754001,-0.01201371370754001
116.86600000000001,0.009950600355581672,-0.009950600355581672
116.867,0.007810186319262932,-0.007810186319262932
116.86800000000001,0.0059996946921757645,-0.0059996946921757645
116.86900000000001,0.00464293933973624,-0.00464293933973624
116.87,0.003568131977302615,-0.003568131977302615
116.87100000000001,0.002398194373772803,-0.002398194373772803
116.87200000000001,0.0007107287251106372,-0.0007107287251106372
116.873,0.001786546979289954,0.001786546979289954
116.87400000000001,0.005122652943500208,0.005122652943500208
116.87500000000001,0.009015378977451716,0.009015378977451716
116.876,0.0129233074153472,0.0129233074153472
116.87700000000001,0.01618063005968031,0.01618063005968031
116.878,0.018171878372960068,0.018171878372960068
116.879,0.018492299970253645,0.018492299970253645
116.88000000000001,0.017045722110323014,0.017045722110323014
116.881,0.014052878934430128,0.014052878934430128
116.882,0.009972154787709563,0.009972154787709563
116.88300000000001,0.005362020549246498,0.005362020549246498
116.884,0.000731417079445873,0.000731417079445873
116.885,0.0035741671496305567,-0.0035741671496305567
116.88600000000001,0.007417185758176951,-0.007417185758176951
116.887,0.01083387767665333,-0.01083387767665333
116.888,0.013939022017435668,-0.013939022017435668
116.88900000000001,0.01680736834601361,-0.01680736834601361
116.89,0.019376646765970836,-0.019376646765970836
116.891,0.021409016187287265,-0.021409016187287265
116.89200000000001,0.022527446509983007,-0.022527446509983007
116.893,0.02231770672207841,-0.02231770672207841
116.894,0.020463906215861395,-0.020463906215861395
116.89500000000001,0.016873372502751997,-0.016873372502751997
116.896,0.011748992907945888,-0.011748992907945888
116.897,0.0055831846832715025,-0.0055831846832715025
116.89800000000001,0.000927884895179247,0.000927884895179247
116.899,0.007026304051364258,0.007026304051364258
116.9,0.012049831780015443,0.012049831780015443
116.90100000000001,0.015559737776823023,0.015559737776823023
116.902,0.017404219500267704,0.017404219500267704
116.903,0.01770349743531591,0.01770349743531591
116.90400000000001,0.016767457347853502,0.016767457347853502
116.905,0.014977136493130684,0.014977136493130684
116.906,0.012670819732222983,0.012670819732222983
116.90700000000001,0.010071128218717734,0.010071128218717734
116.908,0.007273024351223967,0.007273024351223967
116.909,0.004289950580905263,0.004289950580905263
116.91000000000001,0.001134269123830088,0.001134269123830088
116.911,0.002103929899285672,-0.002103929899285672
116.912,0.005214532488270208,-0.005214532488270208
116.91300000000001,0.007882642104478789,-0.007882642104478789
116.914,0.009760537463972426,-0.009760537463972426
116.915,0.010573358652615104,-0.010573358652615104
116.91600000000001,0.0102209630540452,-0.0102209630540452
116.917,0.008836852955683554,-0.008836852955683554
116.918,0.0067775882694634665,-0.0067775882694634665
116.91900000000001,0.004538814244166023,-0.004538814244166023
116.92,0.0026194464082894067,-0.0026194464082894067
116.921,0.0013749745142941686,-0.0013749745142941686
116.92200000000001,0.0009073461450466946,-0.0009073461450466946
116.923,0.0010297092167134902,-0.0010297092167134902
116.924,0.0013218849025706586,-0.0013218849025706586
116.92500000000001,0.0012637799674408414,-0.0012637799674408414
116.926,0.00040828526243427894,-0.00040828526243427894
116.927,0.0014589585582769407,0.0014589585582769407
116.92800000000001,0.004223316946745358,0.004223316946745358
116.929,0.007440576469629929,0.007440576469629929
116.93,0.01043547175305723,0.01043547175305723
116.93100000000001,0.012472669427685797,0.012472669427685797
116.932,0.012951522410622847,0.012951522410622847
116.933,0.011568842991430153,0.011568842991430153
116.93400000000001,0.008403900326888127,0.008403900326888127
116.935,0.0039034298683913514,0.0039034298683913514
116.936,0.0012260123017940638,-0.0012260123017940638
116.93700000000001,0.006184856512596367,-0.006184856512596367
116.938,0.01025817012933916,-0.01025817012933916
116.93900000000001,0.012956356133740875,-0.012956356133740875
116.94000000000001,0.014085876679581538,-0.014085876679581538
116.941,0.013740380185026746,-0.013740380185026746
116.94200000000001,0.01222657145498195,-0.01222657145498195
116.94300000000001,0.009955989219612743,-0.009955989219612743
116.944,0.007338795165748769,-0.007338795165748769
116.94500000000001,0.004708370605132234,-0.004708370605132234
116.94600000000001,0.0022898318878136733,-0.0022898318878136733
116.947,0.00020798100151227713,-0.00020798100151227713
116.94800000000001,0.0014827145459475118,0.0014827145459475118
116.94900000000001,0.0027674788258098544,0.0027674788258098544
116.95,0.0036557481888975646,0.0036557481888975646
116.95100000000001,0.004184861208612113,0.004184861208612113
116.95200000000001,0.004434384324329089,0.004434384324329089
116.953,0.0045349202927283715,0.0045349202927283715
116.95400000000001,0.004656004456738289,0.004656004456738289
116.95500000000001,0.004966722293994308,0.004966722293994308
116.956,0.0055763245768924155,0.0055763245768924155
116.95700000000001,0.006474579881093978,0.006474579881093978
116.95800000000001,0.007497235882381908,0.007497235882381908
116.959,0.008337535005614086,0.008337535005614086
116.96000000000001,0.008610860992119475,0.008610860992119475
116.96100000000001,0.00796071623682289,0.00796071623682289
116.962,0.006177113891991721,0.006177113891991721
116.96300000000001,0.003289773489166461,0.003289773489166461
116.96400000000001,0.00039772866430886396,-0.00039772866430886396
116.965,0.004350721993297358,-0.004350721993297358
116.96600000000001,0.007917454857491105,-0.007917454857491105
116.96700000000001,0.010485265317007273,-0.010485265317007273
116.968,0.011634525631065398,-0.011634525631065398
116.96900000000001,0.011244439618683674,-0.011244439618683674
116.97000000000001,0.009518117137423674,-0.009518117137423674
116.971,0.006918676870835844,-0.006918676870835844
116.97200000000001,0.004035703191476703,-0.004035703191476703
116.97300000000001,0.0014231868872872228,-0.0014231868872872228
116.974,0.0005411499575637338,0.0005411499575637338
116.97500000000001,0.0017325322463960713,0.0017325322463960713
116.97600000000001,0.002270266179358683,0.002270266179358683
116.977,0.0024297657716224343,0.0024297657716224343
116.97800000000001,0.002507642664856351,0.002507642664856351
116.97900000000001,0.0026870941548770093,0.0026870941548770093
116.98,0.0029503283539845477,0.0029503283539845477
116.98100000000001,0.003068947229626355,0.003068947229626355
116.98200000000001,0.0026773055782699394,0.0026773055782699394
116.983,0.0014063364960608333,0.0014063364960608333
116.98400000000001,0.0009649437867541395,-0.0009649437867541395
116.98500000000001,0.004389659848384138,-0.004389659848384138
116.986,0.008505467987206902,-0.008505467987206902
116.98700000000001,0.012678025414216695,-0.012678025414216695
116.98800000000001,0.0161272458292893,-0.0161272458292893
116.989,0.01810358890492398,-0.01810358890492398
116.99000000000001,0.018067177891482912,-0.018067177891482912
116.99100000000001,0.015822014028603212,-0.015822014028603212
116.992,0.011570520453896723,-0.011570520453896723
116.99300000000001,0.00587571223950596,-0.00587571223950596
116.99400000000001,0.00045729077312802873,0.00045729077312802873
116.995,0.006548826117892395,0.006548826117892395
116.99600000000001,0.011619470603437593,0.011619470603437593
116.99700000000001,0.015131401729546757,0.015131401729546757
116.998,0.016866962434001206,0.016866962434001206
116.99900000000001,0.016932407237733343,0.016932407237733343
117.00000000000001,0.015693208687200207,0.015693208687200207
117.001,0.013662147632926086,0.013662147632926086
117.00200000000001,0.011369676519167102,0.011369676519167102
117.003,0.00924677103420266,0.00924677103420266
117.004,0.00754459447614292,0.00754459447614292
117.00500000000001,0.006304967052053248,0.006304967052053248
117.006,0.005383520483382522,0.005383520483382522
117.007,0.004516036560643512,0.004516036560643512
117.00800000000001,0.003409804123910976,0.003409804123910976
117.009,0.0018372213997631984,0.0018372213997631984
117.01,0.00029099511360057556,-0.00029099511360057556
117.01100000000001,0.002890743458406577,-0.002890743458406577
117.012,0.005716449366547196,-0.005716449366547196
117.013,0.008417442724774939,-0.008417442724774939
117.01400000000001,0.010624832225244064,-0.010624832225244064
117.015,0.012046176284496604,-0.012046176284496604
117.016,0.012541837284617316,-0.012541837284617316
117.01700000000001,0.012160423985952119,-0.012160423985952119
117.018,0.01112103126521677,-0.01112103126521677
117.019,0.009744865390129717,-0.009744865390129717
117.02000000000001,0.008354338631778046,-0.008354338631778046
117.021,0.0071691228725721924,-0.0071691228725721924
117.022,0.006231953022270848,-0.006231953022270848
117.02300000000001,0.005390274984607983,-0.005390274984607983
117.024,0.004344272769748849,-0.004344272769748849
117.025,0.0027515210186081648,-0.0027515210186081648
117.02600000000001,0.0003595737886318259,-0.0003595737886318259
117.027,0.002873591556245311,0.002873591556245311
117.028,0.0067109544393873545,0.0067109544393873545
117.02900000000001,0.010646394799037581,0.010646394799037581
117.03,0.013997729905664072,0.013997729905664072
117.031,0.016062355009897077,0.016062355009897077
117.03200000000001,0.0162948915859054,0.0162948915859054
117.033,0.014457566841988094,0.014457566841988094
117.034,0.010699928824994114,0.010699928824994114
117.03500000000001,0.005543557180030778,0.005543557180030778
117.036,0.0002259224220113282,-0.0002259224220113282
117.037,0.005731034777320322,-0.005731034777320322
117.03800000000001,0.010192646747949516,-0.010192646747949516
117.039,0.013087977934139771,-0.013087977934139771
117.04,0.01423702814562266,-0.01423702814562266
117.04100000000001,0.013799862130981133,-0.013799862130981133
117.042,0.012193065378671132,-0.012193065378671132
117.043,0.009955524911971011,-0.009955524911971011
117.04400000000001,0.007605043841463874,-0.007605043841463874
117.045,0.005525361501434737,-0.005525361501434737
117.046,0.003909518529937927,-0.003909518529937927
117.04700000000001,0.0027654367612977003,-0.0027654367612977003
117.048,0.0019700592623509024,-0.0019700592623509024
117.049,0.0013456897898880447,-0.0013456897898880447
117.05000000000001,0.0007297778757718274,-0.0007297778757718274
117.051,1.7021865806390763e-05,-1.7021865806390763e-05
117.052,0.00083341884574093,0.00083341884574093
117.05300000000001,0.0018182251378492107,0.0018182251378492107
117.054,0.0029205120520835143,0.0029205120520835143
117.055,0.004131664530833249,0.004131664530833249
117.05600000000001,0.00545163013728267,0.00545163013728267
117.057,0.00686628732277392,0.00686628732277392
117.058,0.008312293345796216,0.008312293345796216
117.05900000000001,0.009647265316880677,0.009647265316880677
117.06,0.010643317772178085,0.010643317772178085
117.061,0.011014720930760339,0.011014720930760339
117.06200000000001,0.010478365116508289,0.010478365116508289
117.063,0.008833163667026665,0.008833163667026665
117.06400000000001,0.006035979932018724,0.006035979932018724
117.06500000000001,0.002250165418290419,0.002250165418290419
117.066,0.0021510474103013564,-0.0021510474103013564
117.06700000000001,0.006632173392288647,-0.006632173392288647
117.06800000000001,0.010586097383963248,-0.010586097383963248
117.069,0.013447912902250178,-0.013447912902250178
117.07000000000001,0.01480588896442311,-0.01480588896442311
117.07100000000001,0.014484090186897069,-0.014484090186897069
117.072,0.012578123977824974,-0.012578123977824974
117.07300000000001,0.00943654575688194,-0.00943654575688194
117.07400000000001,0.005592606411123922,-0.005592606411123922
117.075,0.00166141176074773,-0.00166141176074773
117.07600000000001,0.0017758463409950857,0.0017758463409950857
117.07700000000001,0.004277047920128935,0.004277047920128935
117.078,0.005612885687220006,0.005612885687220006
117.07900000000001,0.005794926836144972,0.005794926836144972
117.08000000000001,0.005052882821845081,0.005052882821845081
117.081,0.003766277402632077,0.003766277402632077
117.08200000000001,0.0023654934491055563,0.0023654934491055563
117.08300000000001,0.0012245941780823638,0.0012245941780823638
117.084,0.0005714829327796988,0.0005714829327796988
117.08500000000001,0.00043844059592953045,0.00043844059592953045
117.08600000000001,0.0006674499402804032,0.0006674499402804032
117.087,0.000971154748868196,0.000971154748868196
117.08800000000001,0.0010347372081516847,0.0010347372081516847
117.08900000000001,0.000630664468362373,0.000630664468362373
117.09,0.00028840487701793275,-0.00028840487701793275
117.09100000000001,0.0015500940430369199,-0.0015500940430369199
117.09200000000001,0.0027942084576761603,-0.0027942084576761603
117.093,0.0035731672924662287,-0.0035731672924662287
117.09400000000001,0.003495513260580829,-0.003495513260580829
117.09500000000001,0.0023701273900268694,-0.0023701273900268694
117.096,0.00030382765040325177,-0.00030382765040325177
117.09700000000001,0.002284871476394779,0.002284871476394779
117.09800000000001,0.004749610291176633,0.004749610291176633
117.099,0.00638106238057193,0.00638106238057193
117.10000000000001,0.006608487632840845,0.006608487632840845
117.10100000000001,0.005177968257936255,0.005177968257936255
117.102,0.00225010561748844,0.00225010561748844
117.10300000000001,0.0016183362311544686,-0.0016183362311544686
117.10400000000001,0.005609594057698568,-0.005609594057698568
117.105,0.008860579082323407,-0.008860579082323407
117.10600000000001,0.010695676717227908,-0.010695676717227908
117.10700000000001,0.010805757963478033,-0.010805757963478033
117.108,0.009317950905846459,-0.009317950905846459
117.10900000000001,0.006734915101487367,-0.006734915101487367
117.11000000000001,0.0037644088980852445,-0.0037644088980852445
117.111,0.0010958196233447097,-0.0010958196233447097
117.11200000000001,0.0008023637950198209,0.0008023637950198209
117.11300000000001,0.0017977927979739496,0.0017977927979739496
117.114,0.002086336368868678,0.002086336368868678
117.11500000000001,0.0020682355242666707,0.0020682355242666707
117.11600000000001,0.002156462535495045,0.002156462535495045
117.117,0.002589573697617057,0.002589573697617057
117.11800000000001,0.003319867749824628,0.003319867749824628
117.11900000000001,0.004020554278248037,0.004020554278248037
117.12,0.004212084928860257,0.004212084928860257
117.12100000000001,0.0034631428754456173,0.0034631428754456173
117.12200000000001,0.0015921750352596486,0.0015921750352596486
117.123,0.0012080377888127808,-0.0012080377888127808
117.12400000000001,0.0043754172896439585,-0.0043754172896439585
117.12500000000001,0.007120876591208854,-0.007120876591208854
117.126,0.008665984876846037,-0.008665984876846037
117.12700000000001,0.008497780500000673,-0.008497780500000673
117.128,0.006552790740097912,-0.006552790740097912
117.129,0.003263510875145318,-0.003263510875145318
117.13000000000001,0.0005539850850292409,0.0005539850850292409
117.131,0.003938487574876572,0.003938487574876572
117.132,0.006071427085276015,0.006071427085276015
117.13300000000001,0.0065192777622666,0.0065192777622666
117.134,0.005350565178482961,0.005350565178482961
117.135,0.0030900242464521805,0.0030900242464521805
117.13600000000001,0.0005281613509057688,0.0005281613509057688
117.137,0.0015462505887921488,-0.0015462505887921488
117.138,0.002597801031001799,-0.002597801031001799
117.13900000000001,0.0024946987087381104,-0.0024946987087381104
117.14,0.0015097370037608123,-0.0015097370037608123
117.141,0.0001781935876769746,-0.0001781935876769746
117.14200000000001,0.0009299445466180585,0.0009299445466180585
117.143,0.0014363329052240255,0.0014363329052240255
117.144,0.0012945355281911786,0.0012945355281911786
117.14500000000001,0.0007930754552400918,0.0007930754552400918
117.146,0.00042233032087413125,0.00042233032087413125
117.147,0.0006578605073179245,0.0006578605073179245
117.14800000000001,0.0017444982703517498,0.0017444982703517498
117.149,0.0035656229149783063,0.0035656229149783063
117.15,0.005650343760153171,0.005650343760153171
117.15100000000001,0.007319501141651878,0.007319501141651878
117.152,0.00791876321454291,0.00791876321454291
117.153,0.007053402878011804,0.007053402878011804
117.15400000000001,0.004737438014189689,0.004737438014189689
117.155,0.0014007644703585747,0.0014007644703585747
117.156,0.002249581728680554,-0.002249581728680554
117.15700000000001,0.00546338441147747,-0.00546338441147747
117.158,0.007689851557723688,-0.007689851557723688
117.159,0.008738813355385202,-0.008738813355385202
117.16000000000001,0.008801251912955268,-0.008801251912955268
117.161,0.008323770862085383,-0.008323770862085383
117.162,0.007788368032521152,-0.007788368032521152
117.16300000000001,0.007486755001915709,-0.007486755001915709
117.164,0.0073823772670780176,-0.0073823772670780176
117.165,0.007120710869658126,-0.007120710869658126
117.16600000000001,0.006190732120878969,-0.006190732120878969
117.167,0.004179078023971351,-0.004179078023971351
117.168,0.0010169640929981716,-0.0010169640929981716
117.16900000000001,0.0028846209586710515,0.0028846209586710515
117.17,0.006679919881653222,0.006679919881653222
117.171,0.009317115397894624,0.009317115397894624
117.17200000000001,0.009883392095354594,0.009883392095354594
117.173,0.007948683792923794,0.007948683792923794
117.174,0.0037807054272627144,0.0037807054272627144
117.17500000000001,0.0016593186529528952,-0.0016593186529528952
117.176,0.006958381698521587,-0.006958381698521587
117.177,0.010665465936183935,-0.010665465936183935
117.17800000000001,0.011746929125024447,-0.011746929125024447
117.179,0.009930861812888957,-0.009930861812888957
117.18,0.005818225594606437,-0.005818225594606437
117.18100000000001,0.0007131200190512279,-0.0007131200190512279
117.182,0.003781431445020176,0.003781431445020176
117.183,0.00627452364906705,0.00627452364906705
117.18400000000001,0.006037835310057372,0.006037835310057372
117.185,0.003244768856723759,0.003244768856723759
117.186,0.0010839385150446651,-0.0010839385150446651
117.18700000000001,0.0054126351650139615,-0.0054126351650139615
117.188,0.008192128227200376,-0.008192128227200376
117.18900000000001,0.008363751043691003,-0.008363751043691003
117.19000000000001,0.0056990374751029246,-0.0056990374751029246
117.191,0.000863945071454239,-0.000863945071454239
117.19200000000001,0.004809797761329364,0.004809797761329364
117.19300000000001,0.009764767986476668,0.009764767986476668
117.194,0.012717921668356296,0.012717921668356296
117.19500000000001,0.013052121105808175,0.013052121105808175
117.19600000000001,0.010971659253292194,0.010971659253292194
117.197,0.00737855107607611,0.00737855107607611
117.19800000000001,0.0035236575326129506,0.0035236575326129506
117.19900000000001,0.0005627408886956011,0.0005627408886956011
117.2,0.0008240662771625014,-0.0008240662771625014
117.20100000000001,0.0006192766848052588,-0.0006192766848052588
117.20200000000001,0.0005946655492429281,0.0005946655492429281
117.203,0.0019120561894105364,0.0019120561894105364
117.20400000000001,0.002482253460481711,0.002482253460481711
117.20500000000001,0.0018437861741588658,0.0018437861741588658
117.206,8.935643638151721e-05,8.935643638151721e-05
117.20700000000001,0.002196146165648109,-0.002196146165648109
117.20800000000001,0.004194810132601739,-0.004194810132601739
117.209,0.005206704069816059,-0.005206704069816059
117.21000000000001,0.004952237603885253,-0.004952237603885253
117.21100000000001,0.0037038979060594504,-0.0037038979060594504
117.212,0.002190784602266071,-0.002190784602266071
117.21300000000001,0.0013074043626201178,-0.0013074043626201178
117.21400000000001,0.0017358755103979132,-0.0017358755103979132
117.215,0.0036284821482892022,-0.0036284821482892022
117.21600000000001,0.006480274724061373,-0.006480274724061373
117.21700000000001,0.00925423154785825,-0.00925423154785825
117.218,0.010728135097155792,-0.010728135097155792
117.21900000000001,0.009946782868084264,-0.009946782868084264
117.22000000000001,0.006617390171167164,-0.006617390171167164
117.221,0.001298194320942809,-0.001298194320942809
117.22200000000001,0.004702225392383215,0.004702225392383215
117.22300000000001,0.009697295787418146,0.009697295787418146
117.224,0.012151266199991604,0.012151266199991604
117.22500000000001,0.01118927592521954,0.01118927592521954
117.22600000000001,0.006913388748487554,0.006913388748487554
117.227,0.0004106802281486106,0.0004106802281486106
117.22800000000001,0.006558015226700309,-0.006558015226700309
117.22900000000001,0.012091582386009032,-0.012091582386009032
117.23,0.014730497011863096,-0.014730497011863096
117.23100000000001,0.01389540538333631,-0.01389540538333631
117.23200000000001,0.010038446554297047,-0.010038446554297047
117.233,0.004460489571783069,-0.004460489571783069
117.23400000000001,0.001139478089761194,0.001139478089761194
117.23500000000001,0.005226719065257093,0.005226719065257093
117.236,0.006913200873401536,0.006913200873401536
117.23700000000001,0.006199262572330763,0.006199262572330763
117.23800000000001,0.0038996824235046777,0.0038996824235046777
117.239,0.0012902792536396792,0.0012902792536396792
117.24000000000001,0.00039195482510453626,-0.00039195482510453626
117.24100000000001,0.0004132311169971371,-0.0004132311169971371
117.242,0.0011943444086812945,0.0011943444086812945
117.24300000000001,0.003663502893727565,0.003663502893727565
117.24400000000001,0.005801234415054537,0.005801234415054537
117.245,0.006461541119203012,0.006461541119203012
117.24600000000001,0.005007047642252029,0.005007047642252029
117.24700000000001,0.0015883094602497016,0.0015883094602497016
117.248,0.0028657478205841793,-0.0028657478205841793
117.24900000000001,0.006949724015595853,-0.006949724015595853
117.25000000000001,0.009274174134509405,-0.009274174134509405
117.251,0.00897648565899266,-0.00897648565899266
117.25200000000001,0.006067750526866778,-0.006067750526866778
117.253,0.0014867733649108828,-0.0014867733649108828
117.254,0.0031683181137772865,0.0031683181137772865
117.25500000000001,0.006149462223645823,0.006149462223645823
117.256,0.006143272153328889,0.006143272153328889
117.257,0.002736277344689134,0.002736277344689134
117.25800000000001,0.0033970572502282173,-0.0033970572502282173
117.259,0.010651487980972584,-0.010651487980972584
117.26,0.01694851168511446,-0.01694851168511446
117.26100000000001,0.02035155246620858,-0.02035155246620858
117.262,0.019645470162069408,-0.019645470162069408
117.263,0.014699746914525783,-0.014699746914525783
117.26400000000001,0.006505556035112297,-0.006505556035112297
117.265,0.0031184263495790173,0.0031184263495790173
117.266,0.012053015247989839,0.012053015247989839
117.26700000000001,0.01847084935201531,0.01847084935201531
117.268,0.021313220744143387,0.021313220744143387
117.269,0.020514903101049402,0.020514903101049402
117.27000000000001,0.016925677691020914,0.016925677691020914
117.271,0.011973892224219025,0.011973892224219025
117.272,0.0071937965074840475,0.0071937965074840475
117.27300000000001,0.003771253659484858,0.003771253659484858
117.274,0.002244008706771436,0.002244008706771436
117.275,0.0024325587048038408,0.0024325587048038408
117.27600000000001,0.003598399276218528,0.003598399276218528
117.277,0.004755280087940176,0.004755280087940176
117.278,0.00501858642420034,0.00501858642420034
117.27900000000001,0.003878610224704822,0.003878610224704822
117.28,0.00132119672744733,0.00132119672744733
117.281,0.0022221276840471214,-0.0022221276840471214
117.28200000000001,0.006054703902115595,-0.006054703902115595
117.283,0.009448698798300756,-0.009448698798300756
117.284,0.011848652989026962,-0.011848652989026962
117.28500000000001,0.01298387298443548,-0.01298387298443548
117.286,0.012870078588396098,-0.012870078588396098
117.287,0.01172311347589913,-0.01172311347589913
117.28800000000001,0.009835579045027442,-0.009835579045027442
117.289,0.0074721996703929405,-0.0074721996703929405
117.29,0.0048222930444092,-0.0048222930444092
117.29100000000001,0.002017059389283231,-0.002017059389283231
117.292,0.0008110085585512118,0.0008110085585512118
117.293,0.0034671349204677343,0.0034671349204677343
117.29400000000001,0.005671019792022086,0.005671019792022086
117.295,0.007091957829945656,0.007091957829945656
117.296,0.007435236267202562,0.007435236267202562
117.29700000000001,0.0065479312299937505,0.0065479312299937505
117.298,0.004500660603029802,0.004500660603029802
117.299,0.0016083155139965714,0.0016083155139965714
117.30000000000001,0.0016252656988489894,-0.0016252656988489894
117.301,0.004625027362676339,-0.004625027362676339
117.302,0.006887115164113292,-0.006887115164113292
117.30300000000001,0.00809835274826417,-0.00809835274826417
117.304,0.008193316716286153,-0.008193316716286153
117.305,0.007332671903219347,-0.007332671903219347
117.30600000000001,0.005815541754752844,-0.005815541754752844
117.307,0.003962518906747044,-0.003962518906747044
117.308,0.0020152636347885357,-0.0020152636347885357
117.30900000000001,8.993048451805064e-05,-8.993048451805064e-05
117.31,0.0018016196956588994,0.0018016196956588994
117.311,0.0036775317162801866,0.0036775317162801866
117.31200000000001,0.005495970134424346,0.005495970134424346
117.313,0.0070943123528349064,0.0070943123528349064
117.31400000000001,0.008191359070232095,0.008191359070232095
117.31500000000001,0.008460678645905084,0.008460678645905084
117.316,0.007652547706449544,0.007652547706449544
117.31700000000001,0.005718408822051029,0.005718408822051029
117.31800000000001,0.0028851188820901317,0.0028851188820901317
117.319,0.00035979268360386866,-0.00035979268360386866
117.32000000000001,0.0033801215655830962,-0.0033801215655830962
117.32100000000001,0.005571967604674877,-0.005571967604674877
117.322,0.006556259311544571,-0.006556259311544571
117.32300000000001,0.006315029428561586,-0.006315029428561586
117.32400000000001,0.005217253278129089,-0.005217253278129089
117.325,0.003914373504701308,-0.003914373504701308
117.32600000000001,0.00312976712395017,-0.00312976712395017
117.32700000000001,0.0034053933893595715,-0.0034053933893595715
117.328,0.0048887420172625115,-0.0048887420172625115
117.32900000000001,0.007235958698812375,-0.007235958698812375
117.33000000000001,0.009673571352230974,-0.009673571352230974
117.331,0.011211443574533936,-0.011211443574533936
117.33200000000001,0.010949231509487792,-0.010949231509487792
117.33300000000001,0.008384322549104997,-0.008384322549104997
117.334,0.0036229153578245387,-0.0036229153578245387
117.33500000000001,0.0025792421901616666,0.0025792421901616666
117.33600000000001,0.008970685790184743,0.008970685790184743
117.337,0.014117977409935074,0.014117977409935074
117.33800000000001,0.01679432525089363,0.01679432525089363
117.33900000000001,0.016332017613354663,0.016332017613354663
117.34,0.012834412298484607,0.012834412298484607
117.34100000000001,0.007181339242052227,0.007181339242052227
117.34200000000001,0.0008201140726167194,0.0008201140726167194
117.343,0.0046042992623462784,-0.0046042992623462784
117.34400000000001,0.007680174320570093,-0.007680174320570093
117.34500000000001,0.007603427826615561,-0.007603427826615561
117.346,0.004393714398173623,-0.004393714398173623
117.34700000000001,0.0011054694013804232,0.0011054694013804232
117.34800000000001,0.0074408614037668325,0.0074408614037668325
117.349,0.012918220561331243,0.012918220561331243
117.35000000000001,0.016026605042220903,0.016026605042220903
117.35100000000001,0.015807461437844752,0.015807461437844752
117.352,0.01207661177837301,0.01207661177837301
117.35300000000001,0.005449589956633465,0.005449589956633465
117.35400000000001,0.002826094702173734,-0.002826094702173734
117.355,0.01117932500047642,-0.01117932500047642
117.35600000000001,0.01808015065720316,-0.01808015065720316
117.35700000000001,0.02236921267176076,-0.02236921267176076
117.358,0.023476720937654898,-0.023476720937654898
117.35900000000001,0.021490101152971862,-0.021490101152971862
117.36000000000001,0.01707041887198332,-0.01707041887198332
117.361,0.011253979678352346,-0.011253979678352346
117.36200000000001,0.0051981933503956355,-0.0051981933503956355
117.36300000000001,6.424457824924562e-05,6.424457824924562e-05
117.364,0.003810322483836875,0.003810322483836875
117.36500000000001,0.005720767989327074,0.005720767989327074
117.36600000000001,0.005878863068581144,0.005878863068581144
117.367,0.004691436079753155,0.004691436079753155
117.36800000000001,0.0027623803474046645,0.0027623803474046645
117.36900000000001,0.0007518205295166166,0.0007518205295166166
117.37,0.0007514554367008872,-0.0007514554367008872
117.37100000000001,0.0013265685797950687,-0.0013265685797950687
117.37200000000001,0.0007784678962395972,-0.0007784678962395972
117.373,0.0008431840797460073,0.0008431840797460073
117.37400000000001,0.0032609812382654547,0.0032609812382654547
117.37500000000001,0.006018524061151147,0.006018524061151147
117.376,0.008556466091790152,0.008556466091790152
117.37700000000001,0.01030942551723675,0.01030942551723675
117.378,0.010813077870028146,0.010813077870028146
117.379,0.009805199742924153,0.009805199742924153
117.38000000000001,0.00730008776621855,0.00730008776621855
117.381,0.003615595369688459,0.003615595369688459
117.382,0.0006618975494772321,-0.0006618975494772321
117.38300000000001,0.004776868325619323,-0.004776868325619323
117.384,0.007954366943612208,-0.007954366943612208
117.385,0.009570272553666173,-0.009570272553666173
117.38600000000001,0.009302248426268924,-0.009302248426268924
117.387,0.007221379634933148,-0.007221379634933148
117.388,0.003795733800289395,-0.003795733800289395
117.38900000000001,0.00020215264468571254,0.00020215264468571254
117.39,0.0038667467712424743,0.0038667467712424743
117.391,0.006370403012970322,0.006370403012970322
117.39200000000001,0.007161184915572277,0.007161184915572277
117.393,0.006096161996065564,0.006096161996065564
117.394,0.0034741623826942745,0.0034741623826942745
117.39500000000001,4.197961377173378e-05,-4.197961377173378e-05
117.396,0.0035941198271152632,-0.0035941198271152632
117.397,0.006344310772970671,-0.006344310772970671
117.39800000000001,0.00768049926455283,-0.00768049926455283
117.399,0.007359058379012363,-0.007359058379012363
117.4,0.005548836387988969,-0.005548836387988969
117.40100000000001,0.002768894389793255,-0.002768894389793255
117.402,0.0002590097768923494,0.0002590097768923494
117.403,0.002800160264879247,0.002800160264879247
117.40400000000001,0.004286796190941907,0.004286796190941907
117.405,0.004442096673396902,0.004442096673396902
117.406,0.003320545487073976,0.003320545487073976
117.40700000000001,0.001261796475767088,0.001261796475767088
117.408,0.0012212197664791308,-0.0012212197664791308
117.409,0.003583510885353277,-0.003583510885353277
117.41000000000001,0.005378203193350485,-0.005378203193350485
117.411,0.006343194888337414,-0.006343194888337414
117.412,0.006427903606029093,-0.006427903606029093
117.41300000000001,0.005762439235860068,-0.005762439235860068
117.414,0.004587033127177243,-0.004587033127177243
117.415,0.0031677293422954864,-0.0031677293422954864
117.41600000000001,0.0017238616660614039,-0.0017238616660614039
117.417,0.0003852137983286365,-0.0003852137983286365
117.418,0.0008145519062084601,0.0008145519062084601
117.41900000000001,0.0019126377347369655,0.0019126377347369655
117.42,0.0029721186367053258,0.0029721186367053258
117.421,0.004032241101940415,0.004032241101940415
117.42200000000001,0.0050677233412931314,0.0050677233412931314
117.423,0.005966853716550311,0.005966853716550311
117.424,0.00653352821107898,0.00653352821107898
117.42500000000001,0.0065141732170093235,0.0065141732170093235
117.426,0.005646964526234554,0.005646964526234554
117.427,0.003727333974689989,0.003727333974689989
117.42800000000001,0.0006798789767240228,0.0006798789767240228
117.429,0.0033773844427701202,-0.0033773844427701202
117.43,0.00809369221028795,-0.00809369221028795
117.43100000000001,0.012888541384341196,-0.012888541384341196
117.432,0.01700952383866336,-0.01700952383866336
117.433,0.01964670185241613,-0.01964670185241613
117.43400000000001,0.020090048410430016,-0.020090048410430016
117.435,0.017900601358542118,-0.017900601358542118
117.436,0.013054663173259921,-0.013054663173259921
117.43700000000001,0.00601865041983344,-0.00601865041983344
117.438,0.0022770981832505918,0.0022770981832505918
117.43900000000001,0.010574988254484295,0.010574988254484295
117.44000000000001,0.017517926438102203,0.017517926438102203
117.441,0.02192143768944835,0.02192143768944835
117.44200000000001,0.023026266480978087,0.023026266480978087
117.44300000000001,0.020667149307754977,0.020667149307754977
117.444,0.015311547953629358,0.015311547953629358
117.44500000000001,0.007954813659440299,0.007954813659440299
117.44600000000001,0.0001034359739171211,-0.0001034359739171211
117.447,0.007544359112882808,-0.007544359112882808
117.44800000000001,0.01330229308127851,-0.01330229308127851
117.44900000000001,0.016755232862945255,-0.016755232862945255
117.45,0.017789237788348497,-0.017789237788348497
117.45100000000001,0.01673048226934903,-0.01673048226934903
117.45200000000001,0.014177389151205607,-0.014177389151205607
117.453,0.010792623816641733,-0.010792623816641733
117.45400000000001,0.0071221362909885426,-0.0071221362909885426
117.45500000000001,0.0034939719676044595,-0.0034939719676044595
117.456,1.8585181967944865e-05,-1.8585181967944865e-05
117.45700000000001,0.0033242580053361483,0.0033242580053361483
117.45800000000001,0.006556566003743263,0.006556566003743263
117.459,0.00958838754784102,0.00958838754784102
117.46000000000001,0.012168002869611921,0.012168002869611921
117.46100000000001,0.013918716420923755,0.013918716420923755
117.462,0.014450865055952078,0.014450865055952078
117.46300000000001,0.013507996024305129,0.013507996024305129
117.46400000000001,0.011091653043389963,0.011091653043389963
117.465,0.007515090375449595,0.007515090375449595
117.46600000000001,0.003360412170534687,0.003360412170534687
117.46700000000001,0.0006525815520862054,-0.0006525815520862054
117.468,0.003846306984256211,-0.003846306984256211
117.46900000000001,0.005757012443877116,-0.005757012443877116
117.47000000000001,0.006243493755450754,-0.006243493755450754
117.471,0.005499753379870755,-0.005499753379870755
117.47200000000001,0.003971106818778089,-0.003971106818778089
117.47300000000001,0.00220536619332726,-0.00220536619332726
117.474,0.0006909187493460087,-0.0006909187493460087
117.47500000000001,0.0002651511112145883,0.0002651511112145883
117.47600000000001,0.0005832232075964722,0.0005832232075964722
117.477,0.00037527272974595323,0.00037527272974595323
117.47800000000001,0.00014925718038542166,-0.00014925718038542166
117.47900000000001,0.0007924582260811489,-0.0007924582260811489
117.48,0.00144636701868551,-0.00144636701868551
117.48100000000001,0.0021110450695096027,-0.0021110450695096027
117.48200000000001,0.002849601900795781,-0.002849601900795781
117.483,0.003704888276864616,-0.003704888276864616
117.48400000000001,0.004619514202967165,-0.004619514202967165
117.48500000000001,0.0054003856103508946,-0.0054003856103508946
117.486,0.0057510495040673975,-0.0057510495040673975
117.48700000000001,0.0053666538743060745,-0.0053666538743060745
117.48800000000001,0.004058493822322705,-0.004058493822322705
117.489,0.0018592320616095874,-0.0018592320616095874
117.49000000000001,0.0009370851213679828,0.0009370851213679828
117.49100000000001,0.003824369671644136,0.003824369671644136
117.492,0.006214495429661261,0.006214495429661261
117.49300000000001,0.007607545446988453,0.007607545446988453
117.49400000000001,0.007743671399095307,0.007743671399095307
117.495,0.006680987676373606,0.006680987676373606
117.49600000000001,0.004768218916760682,0.004768218916760682
117.49700000000001,0.002518232530529267,0.002518232530529267
117.498,0.00042563275603413813,0.00042563275603413813
117.49900000000001,0.001205706234906015,-0.001205706234906015
117.50000000000001,0.002360164968173702,-0.002360164968173702
117.501,0.003293235344057467,-0.003293235344057467
117.50200000000001,0.004401427186080459,-0.004401427186080459
117.50300000000001,0.006023931368196904,-0.006023931368196904
117.504,0.008249420011773222,-0.008249420011773222
117.50500000000001,0.010804411197617868,-0.010804411197617868
117.506,0.013074609760486303,-0.013074609760486303
117.507,0.014265233030062024,-0.014265233030062024
117.50800000000001,0.013655930935482778,-0.013655930935482778
117.509,0.01086835177203677,-0.01086835177203677
117.51,0.006053665457304157,-0.006053665457304157
117.51100000000001,7.155529205124867e-05,7.155529205124867e-05
117.512,0.006365783817722675,0.006365783817722675
117.513,0.011546481239047036,0.011546481239047036
117.51400000000001,0.014535872274402561,0.014535872274402561
117.515,0.014763569651655126,0.014763569651655126
117.516,0.012331644092497616,0.012331644092497616
117.51700000000001,0.007989262211247667,0.007989262211247667
117.518,0.0029230532506652604,0.0029230532506652604
117.519,0.0015734392864981417,-0.0015734392864981417
117.52000000000001,0.004451218314757743,-0.004451218314757743
117.521,0.005173828118193017,-0.005173828118193017
117.522,0.0038262559219469,-0.0038262559219469
117.52300000000001,0.0010408526369598975,-0.0010408526369598975
117.524,0.002226372844470072,0.002226372844470072
117.525,0.004991754352559756,0.004991754352559756
117.52600000000001,0.006517905008213097,0.006517905008213097
117.527,0.006485317861341276,0.006485317861341276
117.528,0.0050201774484514945,0.0050201774484514945
117.52900000000001,0.0025861738578203523,0.0025861738578203523
117.53,0.00020919940492931529,-0.00020919940492931529
117.531,0.002820970184420787,-0.002820970184420787
117.53200000000001,0.004916551195051459,-0.004916551195051459
117.533,0.006426677538648649,-0.006426677538648649
117.534,0.007493391636944187,-0.007493391636944187
117.53500000000001,0.00834707727462924,-0.00834707727462924
117.536,0.009165914275274233,-0.009165914275274233
117.537,0.009971748070715913,-0.009971748070715913
117.53800000000001,0.010598007385786807,-0.010598007385786807
117.539,0.010736311500787788,-0.010736311500787788
117.54,0.010040156607862671,-0.010040156607862671
117.54100000000001,0.008246530855867079,-0.008246530855867079
117.542,0.005274497651037517,-0.005274497651037517
117.543,0.0012723606982283076,-0.0012723606982283076
117.54400000000001,0.003394592032513467,0.003394592032513467
117.545,0.008204301512542193,0.008204301512542193
117.546,0.012563291293719445,0.012563291293719445
117.54700000000001,0.01589399435147846,0.01589399435147846
117.548,0.01770932658521327,0.01770932658521327
117.549,0.017671131758917737,0.017671131758917737
117.55000000000001,0.015636796686737685,0.015636796686737685
117.551,0.011698213670634597,0.011698213670634597
117.552,0.006209698008309007,0.006209698008309007
117.55300000000001,0.00020880688436564375,-0.00020880688436564375
117.554,0.006712909375230075,-0.006712909375230075
117.555,0.01233488482121107,-0.01233488482121107
117.55600000000001,0.01614439711952958,-0.01614439711952958
117.557,0.017444920001376495,-0.017444920001376495
117.558,0.015959451343658546,-0.015959451343658546
117.55900000000001,0.011947986550297274,-0.011947986550297274
117.56,0.006207008541956891,-0.006207008541956891
117.561,7.08880151077697e-05,7.08880151077697e-05
117.56200000000001,0.005557887225369199,0.005557887225369199
117.563,0.009111381011495381,0.009111381011495381
117.56400000000001,0.010065972321219792,0.010065972321219792
117.56500000000001,0.008408311065035468,0.008408311065035468
117.566,0.004774832088209872,0.004774832088209872
117.56700000000001,0.0002639440127751471,0.0002639440127751471
117.56800000000001,0.003887290163681008,-0.003887290163681008
117.569,0.006665914727604712,-0.006665914727604712
117.57000000000001,0.007572274253536724,-0.007572274253536724
117.57100000000001,0.00674238562615231,-0.00674238562615231
117.572,0.004862046514164284,-0.004862046514164284
117.57300000000001,0.002899080904845993,-0.002899080904845993
117.57400000000001,0.0017416219108066452,-0.0017416219108066452
117.575,0.0018642640570732166,-0.0018642640570732166
117.57600000000001,0.003137662796303694,-0.003137662796303694
117.57700000000001,0.004851444584844691,-0.004851444584844691
117.578,0.005949431587795616,-0.005949431587795616
117.57900000000001,0.005403585093537491,-0.005403585093537491
117.58000000000001,0.0026034122826391775,-0.0026034122826391775
117.581,0.0023716579227879868,0.0023716579227879868
117.58200000000001,0.008694157286634379,0.008694157286634379
117.58300000000001,0.014973173817369116,0.014973173817369116
117.584,0.01963042980678362,0.01963042980678362
117.58500000000001,0.021352644833075776,0.021352644833075776
117.58600000000001,0.019478358991178224,0.019478358991178224
117.587,0.014197289429694383,0.014197289429694383
117.58800000000001,0.006500253784640842,0.006500253784640842
117.58900000000001,0.002102250689292504,-0.002102250689292504
117.59,0.010001267234214163,-0.010001267234214163
117.59100000000001,0.015916330743034772,-0.015916330743034772
117.59200000000001,0.019196213583897268,-0.019196213583897268
117.593,0.01990685164047466,-0.01990685164047466
117.59400000000001,0.01869235945305391,-0.01869235945305391
117.59500000000001,0.016469888645578135,-0.016469888645578135
117.596,0.014071091485984153,-0.014071091485984153
117.59700000000001,0.011955262087917211,-0.011955262087917211
117.59800000000001,0.010088868486420374,-0.010088868486420374
117.599,0.008024781021606016,-0.008024781021606016
117.60000000000001,0.005143932585316911,-0.005143932585316911
117.60100000000001,0.0009667965566965052,-0.0009667965566965052
117.602,0.004579625933571565,0.004579625933571565
117.60300000000001,0.011035337865677427,0.011035337865677427
117.60400000000001,0.017466778658409475,0.017466778658409475
117.605,0.022692987706149425,0.022692987706149425
117.60600000000001,0.025603454946770098,0.025603454946770098
117.60700000000001,0.025464155838693502,0.025464155838693502
117.608,0.02211578126603004,0.02211578126603004
117.60900000000001,0.0160074586342321,0.0160074586342321
117.61000000000001,0.008065351742657942,0.008065351742657942
117.611,0.0005516280075619321,-0.0005516280075619321
117.61200000000001,0.008725063018965406,-0.008725063018965406
117.61300000000001,0.015594284064176785,-0.015594284064176785
117.614,0.02066065308742444,-0.02066065308742444
117.61500000000001,0.02376694117912795,-0.02376694117912795
117.61600000000001,0.024984781975994765,-0.024984781975994765
117.617,0.0244718048199733,-0.0244718048199733
117.61800000000001,0.022363103311848393,-0.022363103311848393
117.61900000000001,0.018739795518000604,-0.018739795518000604
117.62,0.013680408238263884,-0.013680408238263884
117.62100000000001,0.007363657119571278,-0.007363657119571278
117.62200000000001,0.0001682667930397177,-0.0001682667930397177
117.623,0.007284798267061369,0.007284798267061369
117.62400000000001,0.014180402185356829,0.014180402185356829
117.62500000000001,0.01964508061350264,0.01964508061350264
117.626,0.022933290932715115,0.022933290932715115
117.62700000000001,0.023605514074650988,0.023605514074650988
117.62800000000001,0.02163997426555108,0.02163997426555108
117.629,0.017441222748520557,0.017441222748520557
117.63000000000001,0.011743243233849053,0.011743243233849053
117.631,0.005439248504688603,0.005439248504688603
117.632,0.0006075851815373476,-0.0006075851815373476
117.63300000000001,0.00571612595193317,-0.00571612595193317
117.634,0.009463559764162917,-0.009463559764162917
117.635,0.011677713475099674,-0.011677713475099674
117.63600000000001,0.012368001634766502,-0.012368001634766502
117.637,0.011637218562089345,-0.011637218562089345
117.638,0.009617868871217376,-0.009617868871217376
117.63900000000001,0.006460208594397987,-0.006460208594397987
117.64,0.0023718474928262176,-0.0023718474928262176
117.641,0.0023180293067232086,0.0023180293067232086
117.64200000000001,0.007111973205327773,0.007111973205327773
117.643,0.011354398102399124,0.011354398102399124
117.644,0.01431741416647887,0.01431741416647887
117.64500000000001,0.015350830957604304,0.015350830957604304
117.646,0.01405590095011648,0.01405590095011648
117.647,0.010426387794233561,0.010426387794233561
117.64800000000001,0.004904318814100237,0.004904318814100237
117.649,0.0016789558850946091,-0.0016789558850946091
117.65,0.008270443319213953,-0.008270443319213953
117.65100000000001,0.013830535065407826,-0.013830535065407826
117.652,0.017570708034118008,-0.017570708034118008
117.653,0.01912629979898809,-0.01912629979898809
117.65400000000001,0.01861545566650174,-0.01861545566650174
117.655,0.016569574327279818,-0.016569574327279818
117.656,0.013759081112622883,-0.013759081112622883
117.65700000000001,0.01096863312124179,-0.01096863312124179
117.658,0.008788440416279289,-0.008788440416279289
117.659,0.007479932390334952,-0.007479932390334952
117.66000000000001,0.006948181937971727,-0.006948181937971727
117.661,0.006819460497668054,-0.006819460497668054
117.662,0.006591301063507472,-0.006591301063507472
117.66300000000001,0.005804012367398714,-0.005804012367398714
117.664,0.00418144230834838,-0.00418144230834838
117.665,0.0017036618186889005,-0.0017036618186889005
117.66600000000001,0.0014012080416826343,0.0014012080416826343
117.667,0.00473339872566867,0.00473339872566867
117.668,0.007835349332432703,0.007835349332432703
117.66900000000001,0.01030607930584429,0.01030607930584429
117.67,0.01188514210685303,0.01188514210685303
117.671,0.012489493258603556,0.012489493258603556
117.67200000000001,0.012203111192881031,0.012203111192881031
117.673,0.011232189465618016,0.011232189465618016
117.674,0.009844698499648691,0.009844698499648691
117.67500000000001,0.00831178594796011,0.00831178594796011
117.676,0.006862262205819243,0.006862262205819243
117.677,0.005654001382053274,0.005654001382053274
117.67800000000001,0.0047607237205656025,0.0047607237205656025
117.679,0.004170812544292475,0.004170812544292475
117.68,0.003795959584280398,0.003795959584280398
117.68100000000001,0.0034894755022468857,0.0034894755022468857
117.682,0.0030748009095227583,0.0030748009095227583
117.683,0.0023829152052299634,0.0023829152052299634
117.68400000000001,0.0012934815886873987,0.0012934815886873987
117.685,0.00022932781802870213,-0.00022932781802870213
117.686,0.002116861885204608,-0.002116861885204608
117.68700000000001,0.004199851376630556,-0.004199851376630556
117.688,0.0062376467584511685,-0.0062376467584511685
117.68900000000001,0.007966187498020385,-0.007966187498020385
117.69000000000001,0.009151375431851778,-0.009151375431851778
117.691,0.009632373860505358,-0.009632373860505358
117.69200000000001,0.00934307725245742,-0.00934307725245742
117.69300000000001,0.008308465779035202,-0.008308465779035202
117.694,0.006622434883731067,-0.006622434883731067
117.69500000000001,0.004420707399309391,-0.004420707399309391
117.69600000000001,0.0018632304960359458,-0.0018632304960359458
117.697,0.0008658241822568233,0.0008658241822568233
117.69800000000001,0.0035433949366105192,0.0035433949366105192
117.69900000000001,0.00589217251671564,0.00589217251671564
117.7,0.007584109356195082,0.007584109356195082
117.70100000000001,0.008278762505500846,0.008278762505500846
117.70200000000001,0.007699531016762824,0.007699531016762824
117.703,0.005732653029066873,0.005732653029066873
117.70400000000001,0.0025174078358212817,0.0025174078358212817
117.70500000000001,0.001511117099612161,-0.001511117099612161
117.706,0.005658111594882016,-0.005658111594882016
117.70700000000001,0.009093901250091393,-0.009093901250091393
117.70800000000001,0.011047483035109225,-0.011047483035109225
117.709,0.011020114181310372,-0.011020114181310372
117.71000000000001,0.008954245687866322,-0.008954245687866322
117.71100000000001,0.0052972891159559716,-0.0052972891159559716
117.712,0.0009255772878553027,-0.0009255772878553027
117.71300000000001,0.0030648966576562442,0.0030648966576562442
117.71400000000001,0.0056503716883368905,0.0056503716883368905
117.715,0.006171377199929596,0.006171377199929596
117.71600000000001,0.004534886363801775,0.004534886363801775
117.71700000000001,0.0012579701007447988,0.0012579701007447988
117.718,0.0026699056901445953,-0.0026699056901445953
117.71900000000001,0.006072315337768895,-0.006072315337768895
117.72000000000001,0.007936333644405432,-0.007936333644405432
117.721,0.007720445837411149,-0.007720445837411149
117.72200000000001,0.00552131497748631,-0.00552131497748631
117.72300000000001,0.0020424083807208874,-0.0020424083807208874
117.724,0.0016305636367870912,0.0016305636367870912
117.72500000000001,0.0043797596327958144,0.0043797596327958144
117.72600000000001,0.005420494927264532,0.005420494927264532
117.727,0.004563338691565806,0.004563338691565806
117.72800000000001,0.002285143079282339,0.002285143079282339
117.72900000000001,0.0004188309740909183,-0.0004188309740909183
117.73,0.002358899137341809,-0.002358899137341809
117.73100000000001,0.002549968258798937,-0.002549968258798937
117.73200000000001,0.0005578797385988968,-0.0005578797385988968
117.733,0.0033203102415945234,0.0033203102415945234
117.73400000000001,0.008104315873742817,0.008104315873742817
117.73500000000001,0.012397176305316225,0.012397176305316225
117.736,0.014791154055416159,0.014791154055416159
117.73700000000001,0.01428902062052037,0.01428902062052037
117.73800000000001,0.010611259400990693,0.010611259400990693
117.739,0.004295112739197474,0.004295112739197474
117.74000000000001,0.0034438295596816476,-0.0034438295596816476
117.74100000000001,0.011043560323281281,-0.011043560323281281
117.742,0.017018809482096012,-0.017018809482096012
117.74300000000001,0.020347852603403164,-0.020347852603403164
117.74400000000001,0.020710415592330535,-0.020710415592330535
117.745,0.018513550814165503,-0.018513550814165503
117.74600000000001,0.014709501778735158,-0.014709501778735158
117.74700000000001,0.01047259462254267,-0.01047259462254267
117.748,0.006841382922682763,-0.006841382922682763
117.74900000000001,0.004436340894436241,-0.004436340894436241
117.75000000000001,0.0033328109826458053,-0.0033328109826458053
117.751,0.00311522256138222,-0.00311522256138222
117.75200000000001,0.0030801961920018414,-0.0030801961920018414
117.75300000000001,0.0025119336150924232,-0.0025119336150924232
117.754,0.0009364979586755567,-0.0009364979586755567
117.75500000000001,0.001724233151032841,0.001724233151032841
117.756,0.005139727318396292,0.005139727318396292
117.757,0.008691337961787369,0.008691337961787369
117.75800000000001,0.011676373025499323,0.011676373025499323
117.759,0.013523326315296591,0.013523326315296591
117.76,0.01394879336833701,0.01394879336833701
117.76100000000001,0.013011855104525596,0.013011855104525596
117.762,0.011059149534461353,0.011059149534461353
117.763,0.008590035060933648,0.008590035060933648
117.76400000000001,0.006094266837726495,0.006094266837726495
117.765,0.003917957365420869,0.003917957365420869
117.766,0.0021979479751839956,0.0021979479751839956
117.76700000000001,0.0008771230751051202,0.0008771230751051202
117.768,0.00021585051286936695,-0.00021585051286936695
117.769,0.0012593064072640022,-0.0012593064072640022
117.77000000000001,0.002346408087087452,-0.002346408087087452
117.771,0.0034407074910890135,-0.0034407074910890135
117.772,0.004391674264254985,-0.004391674264254985
117.77300000000001,0.004999479498170487,-0.004999479498170487
117.774,0.0051011099881805135,-0.0051011099881805135
117.775,0.004643992346640943,-0.004643992346640943
117.77600000000001,0.0037198717358402533,-0.0037198717358402533
117.777,0.002547432118491024,-0.002547432118491024
117.778,0.0014108622100408677,-0.0014108622100408677
117.77900000000001,0.0005765478481973151,-0.0005765478481973151
117.78,0.00021644382750737827,-0.00021644382750737827
117.781,0.00036294454463066254,-0.00036294454463066254
117.78200000000001,0.0009082986036815039,-0.0009082986036815039
117.783,0.0016463879024941092,-0.0016463879024941092
117.784,0.0023413279765289916,-0.0023413279765289916
117.78500000000001,0.0028000176576300755,-0.0028000176576300755
117.786,0.002926244462138013,-0.002926244462138013
117.787,0.00274130274888887,-0.00274130274888887
117.78800000000001,0.002367303471053647,-0.002367303471053647
117.789,0.001980620228810333,-0.001980620228810333
117.79,0.0017509034723628986,-0.0017509034723628986
117.79100000000001,0.0017839370187309111,-0.0017839370187309111
117.792,0.0020842141529559557,-0.0020842141529559557
117.793,0.0025468414119957567,-0.0025468414119957567
117.79400000000001,0.0029803648903639077,-0.0029803648903639077
117.795,0.0031544867567428257,-0.0031544867567428257
117.796,0.0028609902816518367,-0.0028609902816518367
117.79700000000001,0.001973374177437922,-0.001973374177437922
117.798,0.0004909182116450923,-0.0004909182116450923
117.799,0.0014440660627411679,0.0014440660627411679
117.80000000000001,0.0035617055882904885,0.0035617055882904885
117.801,0.005511771756560396,0.005511771756560396
117.802,0.006934281280981257,0.006934281280981257
117.80300000000001,0.007538784379417478,0.007538784379417478
117.804,0.007173914793944799,0.007173914793944799
117.805,0.005869168045577417,0.005869168045577417
117.80600000000001,0.0038360681491926463,0.0038360681491926463
117.807,0.0014252957248017835,0.0014252957248017835
117.808,0.0009520524644351561,-0.0009520524644351561
117.80900000000001,0.0029202652596645676,-0.0029202652596645676
117.81,0.004226792879519499,-0.004226792879519499
117.811,0.004797496762968458,-0.004797496762968458
117.81200000000001,0.0047429236421723,-0.0047429236421723
117.813,0.004312856927423855,-0.004312856927423855
117.81400000000001,0.003811856860958903,-0.003811856860958903
117.81500000000001,0.0035008493658501803,-0.0035008493658501803
117.816,0.0035148273063145856,-0.0035148273063145856
117.81700000000001,0.003822316806427538,-0.003822316806427538
117.81800000000001,0.004239423540928589,-0.004239423540928589
117.819,0.004493922756245091,-0.004493922756245091
117.82000000000001,0.0043186374887283045,-0.0043186374887283045
117.82100000000001,0.003543749201655199,-0.003543749201655199
117.822,0.0021580940967771047,-0.0021580940967771047
117.82300000000001,0.00031993008952136147,-0.00031993008952136147
117.82400000000001,0.0016853674094036465,0.0016853674094036465
117.825,0.0035255430447357406,0.0035255430447357406
117.82600000000001,0.004912263342123614,0.004912263342123614
117.82700000000001,0.005672595938925247,0.005672595938925247
117.828,0.005779272202249147,0.005779272202249147
117.82900000000001,0.005333332664320511,0.005333332664320511
117.83000000000001,0.004509992159196403,0.004509992159196403
117.831,0.0034911445500014912,0.0034911445500014912
117.83200000000001,0.002411202867130769,0.002411202867130769
117.83300000000001,0.0013358118043082165,0.0013358118043082165
117.834,0.000278253893703117,0.000278253893703117
117.83500000000001,0.0007580542167529021,-0.0007580542167529021
117.83600000000001,0.0017340990718669178,-0.0017340990718669178
117.837,0.0025517620415418476,-0.0025517620415418476
117.83800000000001,0.003068187328438239,-0.003068187328438239
117.83900000000001,0.0031473914637638136,-0.0031473914637638136
117.84,0.002730819854300364,-0.002730819854300364
117.84100000000001,0.001897071732784601,-0.001897071732784601
117.84200000000001,0.0008809734464305005,-0.0008809734464305005
117.843,3.464027317870024e-05,-3.464027317870024e-05
117.84400000000001,0.0002657069569058206,0.0002657069569058206
117.84500000000001,0.0002588241598351012,-0.0002588241598351012
117.846,0.0016808190894699539,-0.0016808190894699539
117.84700000000001,0.0038115011759491287,-0.0038115011759491287
117.84800000000001,0.006226246466082235,-0.006226246466082235
117.849,0.008371040728963912,-0.008371040728963912
117.85000000000001,0.009721274509059125,-0.009721274509059125
117.85100000000001,0.009943029488581757,-0.009943029488581757
117.852,0.009001877001930166,-0.009001877001930166
117.85300000000001,0.0071782929612494275,-0.0071782929612494275
117.85400000000001,0.004978455978956968,-0.004978455978956968
117.855,0.0029649539995093674,-0.0029649539995093674
117.85600000000001,0.0015615089877180916,-0.0015615089877180916
117.85700000000001,0.0008984059888704621,-0.0008984059888704621
117.858,0.0007554138569949159,-0.0007554138569949159
117.85900000000001,0.0006287214852377682,-0.0006287214852377682
117.86000000000001,9.28828407858467e-05,9.28828407858467e-05
117.861,0.001896050537477358,0.001896050537477358
117.86200000000001,0.00493126610944013,0.00493126610944013
117.86300000000001,0.008895851875205675,0.008895851875205675
117.864,0.013058864506807322,0.013058864506807322
117.86500000000001,0.01643101764076495,0.01643101764076495
117.86600000000001,0.018035444324271253,0.018035444324271253
117.867,0.01720014259657348,0.01720014259657348
117.86800000000001,0.013782212874784077,0.013782212874784077
117.86900000000001,0.008251694758192372,0.008251694758192372
117.87,0.0016039127100013445,0.0016039127100013445
117.87100000000001,0.004878992478891533,-0.004878992478891533
117.87200000000001,0.009950578893815327,-0.009950578893815327
117.873,0.01271410933965728,-0.01271410933965728
117.87400000000001,0.012838146231449651,-0.012838146231449651
117.87500000000001,0.010613961967070523,-0.010613961967070523
117.876,0.006842892088195157,-0.006842892088195157
117.87700000000001,0.0025922317173188367,-0.0025922317173188367
117.87800000000001,0.0011043982265778367,0.0011043982265778367
117.879,0.0035132902976262553,0.0035132902976262553
117.88000000000001,0.004359075439850378,0.004359075439850378
117.881,0.0038373197997529354,0.0038373197997529354
117.882,0.002489309079906347,0.002489309079906347
117.88300000000001,0.0009879279163275195,0.0009879279163275195
117.884,9.311573409345136e-05,-9.311573409345136e-05
117.885,0.0004548830453127019,-0.0004548830453127019
117.88600000000001,0.000144282940391155,-0.000144282940391155
117.887,0.0004926280779551675,0.0004926280779551675
117.888,0.0009510151311810097,0.0009510151311810097
117.88900000000001,0.0007502878778153513,0.0007502878778153513
117.89,0.0004001232649274977,-0.0004001232649274977
117.891,0.002501788493587925,-0.002501788493587925
117.89200000000001,0.005260062539616386,-0.005260062539616386
117.893,0.008163825445598882,-0.008163825445598882
117.894,0.010622210124402084,-0.010622210124402084
117.89500000000001,0.01211505701693668,-0.01211505701693668
117.896,0.012315058195257161,-0.012315058195257161
117.897,0.01115295180401111,-0.01115295180401111
117.89800000000001,0.008816775462496415,-0.008816775462496415
117.899,0.00569501727817314,-0.00569501727817314
117.9,0.002285863855422047,-0.002285863855422047
117.90100000000001,0.0009018636838702699,0.0009018636838702699
117.902,0.003435041990114994,0.003435041990114994
117.903,0.0050176993752625455,0.0050176993752625455
117.90400000000001,0.005524348568067364,0.005524348568067364
117.905,0.005007625080085001,0.005007625080085001
117.906,0.0036841155448122474,0.0036841155448122474
117.90700000000001,0.0019008557232702387,0.0019008557232702387
117.908,8.341308160812661e-05,8.341308160812661e-05
117.909,0.0013327270941833418,-0.0013327270941833418
117.91000000000001,0.0019816072028037415,-0.0019816072028037415
117.911,0.0016449308670752028,-0.0016449308670752028
117.912,0.00031130589535476434,-0.00031130589535476434
117.91300000000001,0.0018021234438915556,0.0018021234438915556
117.914,0.0042789364818573775,0.0042789364818573775
117.915,0.0065850095748804715,0.0065850095748804715
117.91600000000001,0.008188492290055383,0.008188492290055383
117.917,0.008690417913264642,0.008690417913264642
117.918,0.00793102594840209,0.00793102594840209
117.91900000000001,0.006039939767901925,0.006039939767901925
117.92,0.003411901913925093,0.003411901913925093
117.921,0.0006104253017066379,0.0006104253017066379
117.92200000000001,0.001776699991163174,-0.001776699991163174
117.923,0.003290569442099273,-0.003290569442099273
117.924,0.0037194261209087752,-0.0037194261209087752
117.92500000000001,0.003147667570415372,-0.003147667570415372
117.926,0.0019213211086892405,-0.0019213211086892405
117.927,0.0005405545282799917,-0.0005405545282799917
117.92800000000001,0.0004884029031571372,0.0004884029031571372
117.929,0.0007977181211666519,0.0007977181211666519
117.93,0.0002564734069877539,0.0002564734069877539
117.93100000000001,0.0010041280045505053,-0.0010041280045505053
117.932,0.0026431480678002313,-0.0026431480678002313
117.933,0.004220387319175642,-0.004220387319175642
117.93400000000001,0.0053285317508742665,-0.0053285317508742665
117.935,0.005705692567556717,-0.005705692567556717
117.936,0.005295371519518065,-0.005295371519518065
117.93700000000001,0.004239219631362197,-0.004239219631362197
117.938,0.002810027315838806,-0.002810027315838806
117.93900000000001,0.0013109410019623278,-0.0013109410019623278
117.94000000000001,2.3855672876643274e-05,2.3855672876643274e-05
117.941,0.0010943493360573277,0.0010943493360573277
117.94200000000001,0.0019461397519933185,0.0019461397519933185
117.94300000000001,0.0027271409214807817,0.0027271409214807817
117.944,0.0036066264270242306,0.0036066264270242306
117.94500000000001,0.004685416668794571,0.004685416668794571
117.94600000000001,0.005928003390198236,0.005928003390198236
117.947,0.007139626877546453,0.007139626877546453
117.94800000000001,0.007996779041699355,0.007996779041699355
117.94900000000001,0.008123195181495256,0.008123195181495256
117.95,0.00719018556498996,0.00719018556498996
117.95100000000001,0.00501378459089908,0.00501378459089908
117.95200000000001,0.0016228952606283896,0.0016228952606283896
117.953,0.002718886967489833,-0.002718886967489833
117.95400000000001,0.007542832417629994,-0.007542832417629994
117.95500000000001,0.012248747875592688,-0.012248747875592688
117.956,0.01620618174910635,-0.01620618174910635
117.95700000000001,0.018862036287199554,-0.018862036287199554
117.95800000000001,0.019833844553094195,-0.019833844553094195
117.959,0.01897225496802743,-0.01897225496802743
117.96000000000001,0.016382857264016195,-0.016382857264016195
117.96100000000001,0.012404858773296378,-0.012404858773296378
117.962,0.007551190280255628,-0.007551190280255628
117.96300000000001,0.002420735005130441,-0.002420735005130441
117.96400000000001,0.0024019304736858185,0.0024019304736858185
117.965,0.006441175164052587,0.006441175164052587
117.96600000000001,0.00940121910772498,0.00940121910772498
117.96700000000001,0.01119860390056105,0.01119860390056105
117.968,0.011948566582085927,0.011948566582085927
117.96900000000001,0.011907567557847176,0.011907567557847176
117.97000000000001,0.011385079228506883,0.011385079228506883
117.971,0.01064670498133439,0.01064670498133439
117.97200000000001,0.009834785169377917,0.009834785169377917
117.97300000000001,0.008929778064024238,0.008929778064024238
117.974,0.007765662912794661,0.007765662912794661
117.97500000000001,0.006097503034102393,0.006097503034102393
117.97600000000001,0.0037032323309922712,0.0037032323309922712
117.977,0.0004896820363519621,0.0004896820363519621
117.97800000000001,0.003430868356532102,-0.003430868356532102
117.97900000000001,0.007720734266718245,-0.007720734266718245
117.98,0.0118648532549232,-0.0118648532549232
117.98100000000001,0.01527766628316861,-0.01527766628316861
117.98200000000001,0.017440706659832217,-0.017440706659832217
117.983,0.018031518864334305,-0.018031518864334305
117.98400000000001,0.017005220444461785,-0.017005220444461785
117.98500000000001,0.01460307614650565,-0.01460307614650565
117.986,0.011284234489177362,-0.011284234489177362
117.98700000000001,0.007600551692578753,-0.007600551692578753
117.98800000000001,0.004052483183036301,-0.004052483183036301
117.989,0.0009702248283678502,-0.0009702248283678502
117.99000000000001,0.0015437726346956633,0.0015437726346956633
117.99100000000001,0.003594821632331942,0.003594821632331942
117.992,0.005408062036920906,0.005408062036920906
117.99300000000001,0.007204805014514742,0.007204805014514742
117.99400000000001,0.009087489152447083,0.009087489152447083
117.995,0.01097472517099236,0.01097472517099236
117.99600000000001,0.012610737848850606,0.012610737848850606
117.99700000000001,0.0136475864820855,0.0136475864820855
117.998,0.013772558003788613,0.013772558003788613
117.99900000000001,0.012836036774715901,0.012836036774715901
118.00000000000001,0.010933114535348017,0.010933114535348017
118.001,0.008406376239596936,0.008406376239596936
118.00200000000001,0.005763321614421995,0.005763321614421995
118.00300000000001,0.0035312146757472272,0.0035312146757472272
118.004,0.002094871370686497,0.002094871370686497
118.00500000000001,0.0015710389758906683,0.0015710389758906683
118.006,0.0017633439115168914,0.0017633439115168914
118.007,0.0022169673466645176,0.0022169673466645176
118.00800000000001,0.002360087774677085,0.002360087774677085
118.009,0.0016901774585388297,0.0016901774585388297
118.01,5.289378853783983e-05,-5.289378853783983e-05
118.01100000000001,0.002782708538509399,-0.002782708538509399
118.012,0.006066531424899997,-0.006066531424899997
118.013,0.009233248072701223,-0.009233248072701223
118.01400000000001,0.011558673456534116,-0.011558673456534116
118.015,0.012473415851236045,-0.012473415851236045
118.016,0.011731031500788936,-0.011731031500788936
118.01700000000001,0.009486116919796117,-0.009486116919796117
118.018,0.0062593812829920365,-0.0062593812829920365
118.019,0.0028008392674079754,-0.0028008392674079754
118.02000000000001,0.00010770959391334129,0.00010770959391334129
118.021,0.0018530452687267592,0.0018530452687267592
118.022,0.0021372569295775895,0.0021372569295775895
118.02300000000001,0.0010327251100788219,0.0010327251100788219
118.024,0.001063879174448063,-0.001063879174448063
118.025,0.003557937118411752,-0.003557937118411752
118.02600000000001,0.005821396993060222,-0.005821396993060222
118.027,0.007346256863331904,-0.007346256863331904
118.028,0.007846366845935435,-0.007846366845935435
118.02900000000001,0.007287020490984812,-0.007287020490984812
118.03,0.005845978059084942,-0.005845978059084942
118.031,0.0038295489387412188,-0.0038295489387412188
118.03200000000001,0.001577019573016822,-0.001577019573016822
118.033,0.0006160218061275916,0.0006160218061275916
118.034,0.0025376114271619655,0.0025376114271619655
118.03500000000001,0.004061650834980247,0.004061650834980247
118.036,0.005125898621765005,0.005125898621765005
118.037,0.00570575804161693,0.00570575804161693
118.03800000000001,0.005800931481714194,0.005800931481714194
118.039,0.0054415527730357766,0.0054415527730357766
118.04,0.004707490308909604,0.004707490308909604
118.04100000000001,0.003745019102480579,0.003745019102480579
118.042,0.002763354855300819,0.002763354855300819
118.043,0.002000723180759358,0.002000723180759358
118.04400000000001,0.0016630472135532382,0.0016630472135532382
118.045,0.0018525554722651856,0.0018525554722651856
118.046,0.002512535811830821,0.002512535811830821
118.04700000000001,0.0034137120923826976,0.0034137120923826976
118.048,0.004196463715787596,0.004196463715787596
118.049,0.004464584323378238,0.004464584323378238
118.05000000000001,0.0039068017463749025,0.0039068017463749025
118.051,0.0024090525187541625,0.0024090525187541625
118.052,0.00011897070715307628,0.00011897070715307628
118.05300000000001,0.0025641842763804196,-0.0025641842763804196
118.054,0.005078910054060259,-0.005078910054060259
118.055,0.006849451912196078,-0.006849451912196078
118.05600000000001,0.007451234191339575,-0.007451234191339575
118.057,0.006744213053899897,-0.006744213053899897
118.058,0.004931740944523793,-0.004931740944523793
118.05900000000001,0.0025234148585362892,-0.0025234148585362892
118.06,0.00020874977883618371,-0.00020874977883618371
118.061,0.0013244915763377897,0.0013244915763377897
118.06200000000001,0.0015764125123435453,0.0015764125123435453
118.063,0.00037289243520413764,0.00037289243520413764
118.06400000000001,0.002083281447836743,-0.002083281447836743
118.06500000000001,0.005261270471761161,-0.005261270471761161
118.066,0.008435585176873055,-0.008435585176873055
118.06700000000001,0.010865458123055498,-0.010865458123055498
118.06800000000001,0.011970768717509891,-0.011970768717509891
118.069,0.011459135600757247,-0.011459135600757247
118.07000000000001,0.009375522439079081,-0.009375522439079081
118.07100000000001,0.0060691241136101035,-0.0060691241136101035
118.072,0.0020947880943311633,-0.0020947880943311633
118.07300000000001,0.0019188599905751317,0.0019188599905751317
118.07400000000001,0.005398635354858426,0.005398635354858426
118.075,0.007924339314576546,0.007924339314576546
118.07600000000001,0.009279417907237068,0.009279417907237068
118.07700000000001,0.009454633506625803,0.009454633506625803
118.078,0.0086159458640449,0.0086159458640449
118.07900000000001,0.0070524015479136,0.0070524015479136
118.08000000000001,0.005117895136036867,0.005117895136036867
118.081,0.003174925877756607,0.003174925877756607
118.08200000000001,0.001542792281755856,0.001542792281755856
118.08300000000001,0.0004502228275270878,0.0004502228275270878
118.084,5.690649094910813e-06,-5.690649094910813e-06
118.08500000000001,0.00011231781714588206,0.00011231781714588206
118.08600000000001,0.0005771854877627409,0.0005771854877627409
118.087,0.0010276859085248079,0.0010276859085248079
118.08800000000001,0.0010382644650029544,0.0010382644650029544
118.08900000000001,0.0002220520368920869,0.0002220520368920869
118.09,0.0016529677694733227,-0.0016529677694733227
118.09100000000001,0.004565016062835843,-0.004565016062835843
118.09200000000001,0.008189376313127541,-0.008189376313127541
118.093,0.01192302416644885,-0.01192302416644885
118.09400000000001,0.01498867273071048,-0.01498867273071048
118.09500000000001,0.016600686658898765,-0.016600686658898765
118.096,0.01615453468229779,-0.01615453468229779
118.09700000000001,0.013390325145529555,-0.013390325145529555
118.09800000000001,0.008484122472148543,-0.008484122472148543
118.099,0.0020383081105686484,-0.0020383081105686484
118.10000000000001,0.005030485562401324,0.005030485562401324
118.10100000000001,0.011678587185244149,0.011678587185244149
118.102,0.016949177339633203,0.016949177339633203
118.10300000000001,0.020157604851001223,0.020157604851001223
118.10400000000001,0.02100269934992972,0.02100269934992972
118.105,0.019581829561385142,0.019581829561385142
118.10600000000001,0.01631630608418909,0.01631630608418909
118.10700000000001,0.01181874874265957,0.01181874874265957
118.108,0.0067471979085815,0.0067471979085815
118.10900000000001,0.0016882665813333331,0.0016882665813333331
118.11000000000001,0.002904727605628209,-0.002904727605628209
118.111,0.006716317819458882,-0.006716317819458882
118.11200000000001,0.009535610789017126,-0.009535610789017126
118.11300000000001,0.011216544990803518,-0.011216544990803518
118.114,0.011660809403631943,-0.011660809403631943
118.11500000000001,0.010837471954364424,-0.010837471954364424
118.11600000000001,0.008831806265479693,-0.008831806265479693
118.117,0.005896799008158035,-0.005896799008158035
118.11800000000001,0.0024726666212288202,-0.0024726666212288202
118.11900000000001,0.0008532807207468774,0.0008532807207468774
118.12,0.003453445718819518,0.003453445718819518
118.12100000000001,0.004813236999465722,0.004813236999465722
118.12200000000001,0.004687137446349695,0.004687137446349695
118.123,0.0032036757533000543,0.0032036757533000543
118.12400000000001,0.0008740971026521754,0.0008740971026521754
118.12500000000001,0.0015140619565101657,-0.0015140619565101657
118.126,0.0031008260122713494,-0.0031008260122713494
118.12700000000001,0.0032028184272121316,-0.0032028184272121316
118.12800000000001,0.0015347618737291836,-0.0015347618737291836
118.129,0.0016674941201845288,0.0016674941201845288
118.13000000000001,0.0056682408167756035,0.0056682408167756035
118.131,0.009401641602298666,0.009401641602298666
118.132,0.011748590513227108,0.011748590513227108
118.13300000000001,0.011844552483460086,0.011844552483460086
118.134,0.009329725725891228,0.009329725725891228
118.135,0.004467353047383625,0.004467353047383625
118.13600000000001,0.001906412789181642,-0.001906412789181642
118.137,0.008588412929434682,-0.008588412929434682
118.138,0.014311775131676151,-0.014311775131676151
118.13900000000001,0.018060268822351396,-0.018060268822351396
118.14,0.019305730472353046,-0.019305730472353046
118.141,0.018105317190827818,-0.018105317190827818
118.14200000000001,0.015038309324002885,-0.015038309324002885
118.143,0.01100960074189705,-0.01100960074189705
118.144,0.006984128006385903,-0.006984128006385903
118.14500000000001,0.0037323141625126063,-0.0037323141625126063
118.146,0.0016573475028890878,-0.0016573475028890878
118.147,0.0007451223693796021,-0.0007451223693796021
118.14800000000001,0.0006376450536538272,-0.0006376450536538272
118.149,0.0007939246869976186,-0.0007939246869976186
118.15,0.000680179104130991,-0.000680179104130991
118.15100000000001,7.060591397320167e-05,7.060591397320167e-05
118.152,0.0015724412469990876,0.0015724412469990876
118.153,0.0036872743015314343,0.0036872743015314343
118.15400000000001,0.00609735366719747,0.00609735366719747
118.155,0.008412967273333013,0.008412967273333013
118.156,0.010274443670350155,0.010274443670350155
118.15700000000001,0.01141750206447641,0.01141750206447641
118.158,0.011690993674847746,0.011690993674847746
118.159,0.011037169904729959,0.011037169904729959
118.16000000000001,0.009458476066220557,0.009458476066220557
118.161,0.006996526491301016,0.006996526491301016
118.162,0.003738514175663341,0.003738514175663341
118.16300000000001,0.0001511402469184421,-0.0001511402469184421
118.164,0.004392800422028231,-0.004392800422028231
118.165,0.008574693736912777,-0.008574693736912777
118.16600000000001,0.012180595926601964,-0.012180595926601964
118.167,0.014670195115400717,-0.014670195115400717
118.168,0.01559868433418648,-0.01559868433418648
118.16900000000001,0.014742811503677736,-0.014742811503677736
118.17,0.012191419434840747,-0.012191419434840747
118.171,0.008363986006503652,-0.008363986006503652
118.17200000000001,0.003940163649461604,-0.003940163649461604
118.173,0.0002890411384121044,0.0002890411384121044
118.174,0.0036111676320548097,0.0036111676320548097
118.17500000000001,0.005569679107646634,0.005569679107646634
118.176,0.006075427345389519,0.006075427345389519
118.177,0.0054163864208523664,0.0054163864208523664
118.17800000000001,0.004159787716951595,0.004159787716951595
118.179,0.002973816423770743,0.002973816423770743
118.18,0.0024215499344609937,0.0024215499344609937
118.18100000000001,0.0027894318871683095,0.0027894318871683095
118.182,0.004002863910642168,0.004002863910642168
118.183,0.005655195630068774,0.005655195630068774
118.18400000000001,0.00714156233562812,0.00714156233562812
118.185,0.007856493126670298,0.007856493126670298
118.186,0.007394163156880916,0.007394163156880916
118.18700000000001,0.005688894261315762,0.005688894261315762
118.188,0.0030514863117217773,0.0030514863117217773
118.18900000000001,8.870096063677281e-05,8.870096063677281e-05
118.19000000000001,0.0024709878271915653,-0.0024709878271915653
118.191,0.003993335236668435,-0.003993335236668435
118.19200000000001,0.0041306515753418436,-0.0041306515753418436
118.19300000000001,0.0029316302900022455,-0.0029316302900022455
118.194,0.0008340154540938397,-0.0008340154540938397
118.19500000000001,0.0014597393355790227,0.0014597393355790227
118.19600000000001,0.003188583791113044,0.003188583791113044
118.197,0.0037605523260002315,0.0037605523260002315
118.19800000000001,0.002934386375544456,0.002934386375544456
118.19900000000001,0.000899910408928436,0.000899910408928436
118.2,0.0017691500260426391,-0.0017691500260426391
118.20100000000001,0.004279107401174259,-0.004279107401174259
118.20200000000001,0.005851504154598655,-0.005851504154598655
118.203,0.00596185030726864,-0.00596185030726864
118.20400000000001,0.004511178223185509,-0.004511178223185509
118.20500000000001,0.0018771839153929667,-0.0018771839153929667
118.206,0.001174742915721577,0.001174742915721577
118.20700000000001,0.0036999134902462264,0.0036999134902462264
118.20800000000001,0.0048456646617375185,0.0048456646617375185
118.209,0.004108406716496364,0.004108406716496364
118.21000000000001,0.0015001627762421855,0.0015001627762421855
118.21100000000001,0.0024283451878991894,-0.0024283451878991894
118.212,0.006721211390370468,-0.006721211390370468
118.21300000000001,0.010275172625753708,-0.010275172625753708
118.21400000000001,0.012151435667599617,-0.012151435667599617
118.215,0.011852143715169098,-0.011852143715169098
118.21600000000001,0.009478604901389753,-0.009478604901389753
118.21700000000001,0.005719775314220352,-0.005719775314220352
118.218,0.001667636628849854,-0.001667636628849854
118.21900000000001,0.001492541061859671,0.001492541061859671
118.22000000000001,0.0028297813071463747,0.0028297813071463747
118.221,0.0019507846604448905,0.0019507846604448905
118.22200000000001,0.0008675689964371078,-0.0008675689964371078
118.22300000000001,0.004741082563675403,-0.004741082563675403
118.224,0.008423621492075456,-0.008423621492075456
118.22500000000001,0.010666642248154369,-0.010666642248154369
118.22600000000001,0.010587948043450847,-0.010587948043450847
118.227,0.007939181910946176,-0.007939181910946176
118.22800000000001,0.0031898140277731757,-0.0031898140277731757
118.22900000000001,0.0026002332248488136,0.0026002332248488136
118.23,0.008082862505662775,0.008082862505662775
118.23100000000001,0.012008205821728546,0.012008205821728546
118.23200000000001,0.013577479326801613,0.013577479326801613
118.233,0.012654318167078805,0.012654318167078805
118.23400000000001,0.009770640718728818,0.009770640718728818
118.23500000000001,0.00592799589283067,0.00592799589283067
118.236,0.0022605875581137216,0.0022605875581137216
118.23700000000001,0.0003294161924399811,-0.0003294161924399811
118.23800000000001,0.00144493597601444,-0.00144493597601444
118.239,0.001286413917256014,-0.001286413917256014
118.24000000000001,0.0005347334681636976,-0.0005347334681636976
118.24100000000001,6.608576623773764e-05,-6.608576623773764e-05
118.242,0.0005975703919566709,-0.0005975703919566709
118.24300000000001,0.002387192938279315,-0.002387192938279315
118.24400000000001,0.0050953730379439625,-0.0050953730379439625
118.245,0.007861853876533908,-0.007861853876533908
118.24600000000001,0.00957919544703448,-0.00957919544703448
118.24700000000001,0.00927595623894656,-0.00927595623894656
118.248,0.006482290536074729,-0.006482290536074729
118.24900000000001,0.0014522290249791357,-0.0014522290249791357
118.25000000000001,0.004839238204663542,0.004839238204663542
118.251,0.010933823227427976,0.010933823227427976
118.25200000000001,0.015294716327700152,0.015294716327700152
118.25300000000001,0.016754470156249764,0.016754470156249764
118.254,0.014865450726836916,0.014865450726836916
118.25500000000001,0.010041565172366904,0.010041565172366904
118.256,0.0034457242306266305,0.0034457242306266305
118.257,0.0033417822471385897,-0.0033417822471385897
118.25800000000001,0.008769717089300274,-0.008769717089300274
118.259,0.011738098363117642,-0.011738098363117642
118.26,0.01186792329121642,-0.01186792329121642
118.26100000000001,0.009542404150144948,-0.009542404150144948
118.262,0.005719453304500593,-0.005719453304500593
118.263,0.0015887622024081268,-0.0015887622024081268
118.26400000000001,0.0018062862450658635,0.0018062862450658635
118.265,0.0038565865157812835,0.0038565865157812835
118.266,0.004497292986061823,0.004497292986061823
118.26700000000001,0.004117877164930475,0.004117877164930475
118.268,0.0033212274918817124,0.0033212274918817124
118.269,0.002631807144729404,0.002631807144729404
118.27000000000001,0.002266601055086289,0.002266601055086289
118.271,0.0020548955424176756,0.0020548955424176756
118.272,0.0015344739028895261,0.0015344739028895261
118.27300000000001,0.000184040881145655,0.000184040881145655
118.274,0.0023007685721722964,-0.0023007685721722964
118.275,0.0057985579699443325,-0.0057985579699443325
118.27600000000001,0.00970837712730389,-0.00970837712730389
118.277,0.013082960127726301,-0.013082960127726301
118.278,0.01491206654957013,-0.01491206654957013
118.27900000000001,0.014461778609392293,-0.014461778609392293
118.28,0.011550871980559839,-0.011550871980559839
118.281,0.006662562091449536,-0.006662562091449536
118.28200000000001,0.0008437004324428526,-0.0008437004324428526
118.283,0.00458445035654836,0.00458445035654836
118.284,0.008414324025183642,0.008414324025183642
118.28500000000001,0.009913583619370437,0.009913583619370437
118.286,0.009040975530676582,0.009040975530676582
118.287,0.006444259335955794,0.006444259335955794
118.28800000000001,0.0032396067014464694,0.0032396067014464694
118.289,0.0006440286143446036,0.0006440286143446036
118.29,0.0004193250086935217,-0.0004193250086935217
118.29100000000001,0.00038507114646447094,0.00038507114646447094
118.292,0.002706039407495745,0.002706039407495745
118.293,0.005630155131871751,0.005630155131871751
118.29400000000001,0.007985233092840207,0.007985233092840207
118.295,0.008721150195795276,0.008721150195795276
118.296,0.007243973414967876,0.007243973414967876
118.29700000000001,0.003598408255497571,0.003598408255497571
118.298,0.0015535525391878085,-0.0015535525391878085
118.299,0.007141942454201098,-0.007141942454201098
118.30000000000001,0.012010404475078333,-0.012010404475078333
118.301,0.015242232415382275,-0.015242232415382275
118.302,0.01638817052073806,-0.01638817052073806
118.30300000000001,0.015532098827970863,-0.015532098827970863
118.304,0.013188452758953507,-0.013188452758953507
118.305,0.010081264306016387,-0.010081264306016387
118.30600000000001,0.006890075775702211,-0.006890075775702211
118.307,0.004051757504803383,-0.004051757504803383
118.308,0.0016800595224631435,-0.0016800595224631435
118.30900000000001,0.0003820884302423097,0.0003820884302423097
118.31,0.0024113017487899665,0.0024113017487899665
118.311,0.0046206214085308,0.0046206214085308
118.31200000000001,0.007018598043115955,0.007018598043115955
118.313,0.009364106299755546,0.009364106299755546
118.31400000000001,0.01123136371431244,0.01123136371431244
118.31500000000001,0.012157210387651189,0.012157210387651189
118.316,0.011812598222020897,0.011812598222020897
118.31700000000001,0.010132929848067365,0.010132929848067365
118.31800000000001,0.007359084492471798,0.007359084492471798
118.319,0.003975330179866104,0.003975330179866104
118.32000000000001,0.0005684997423200642,0.0005684997423200642
118.32100000000001,0.002339433096462874,-0.002339433096462874
118.322,0.0044257583103240235,-0.0044257583103240235
118.32300000000001,0.005623589573153904,-0.005623589573153904
118.32400000000001,0.006086500247397171,-0.006086500247397171
118.325,0.006081817234367069,-0.006081817234367069
118.32600000000001,0.0058586305580310164,-0.0058586305580310164
118.32700000000001,0.005543609053112986,-0.005543609053112986
118.328,0.0051042330417533765,-0.0051042330417533765
118.32900000000001,0.004390773082385774,-0.004390773082385774
118.33000000000001,0.003236425497706523,-0.003236425497706523
118.331,0.0015717759551581079,-0.0015717759551581079
118.33200000000001,0.0004959838071123187,0.0004959838071123187
118.33300000000001,0.002674862940669585,0.002674862940669585
118.334,0.004558734850400079,0.004558734850400079
118.33500000000001,0.005753342420119645,0.005753342420119645
118.33600000000001,0.006011392622976133,0.006011392622976133
118.337,0.005325130316053666,0.005325130316053666
118.33800000000001,0.003939059297832449,0.003939059297832449
118.33900000000001,0.0022742942700118606,0.0022742942700118606
118.34,0.0007888099677055938,0.0007888099677055938
118.34100000000001,0.0001775449895838677,-0.0001775449895838677
118.34200000000001,0.0005172434932073438,-0.0005172434932073438
118.343,0.00038571222850518225,-0.00038571222850518225
118.34400000000001,0.0001348564291005435,-0.0001348564291005435
118.34500000000001,0.00017085440060326328,-0.00017085440060326328
118.346,0.0007857566541296518,-0.0007857566541296518
118.34700000000001,0.002023622445628606,-0.002023622445628606
118.34800000000001,0.0036318603822712518,-0.0036318603822712518
118.349,0.005120234726607304,-0.005120234726607304
118.35000000000001,0.005913137185975432,-0.005913137185975432
118.35100000000001,0.005547763424657835,-0.005547763424657835
118.352,0.0038530874137569534,-0.0038530874137569534
118.35300000000001,0.0010482087693230466,-0.0010482087693230466
118.35400000000001,0.002277201891381254,0.002277201891381254
118.355,0.0053007749276617906,0.0053007749276617906
118.35600000000001,0.007186387984568354,0.007186387984568354
118.35700000000001,0.007320581734323998,0.007320581734323998
118.358,0.0054961199490700064,0.0054961199490700064
118.35900000000001,0.0019872823803564654,0.0019872823803564654
118.36000000000001,0.002506805006533573,-0.002506805006533573
118.361,0.007035907127339116,-0.007035907127339116
118.36200000000001,0.010640879856658158,-0.010640879856658158
118.36300000000001,0.012596796198529632,-0.012596796198529632
118.364,0.012590412522557088,-0.012590412522557088
118.36500000000001,0.010785245538767045,-0.010785245538767045
118.36600000000001,0.0077598538266869434,-0.0077598538266869434
118.367,0.004340017123461399,-0.004340017123461399
118.36800000000001,0.0013734484949616535,-0.0013734484949616535
118.36900000000001,0.0004908757724408285,0.0004908757724408285
118.37,0.000960599318416946,0.000960599318416946
118.37100000000001,0.00015615924215548068,0.00015615924215548068
118.37200000000001,0.0014450912763373962,-0.0014450912763373962
118.373,0.0031572757090999526,-0.0031572757090999526
118.37400000000001,0.004284015604996431,-0.004284015604996431
118.37500000000001,0.004312000413265808,-0.004312000413265808
118.376,0.003049208031070168,-0.003049208031070168
118.37700000000001,0.0006729655770572492,-0.0006729655770572492
118.37800000000001,0.0023225205221987888,0.0023225205221987888
118.379,0.005263122395594644,0.005263122395594644
118.38000000000001,0.0074784447642168815,0.0074784447642168815
118.381,0.00848265997736379,0.00848265997736379
118.382,0.008104178900848306,0.008104178900848306
118.38300000000001,0.006529581856433425,0.006529581856433425
118.384,0.0042501642609279406,0.0042501642609279406
118.385,0.0019256985320680606,0.0019256985320680606
118.38600000000001,0.00020268343999139645,0.00020268343999139645
118.387,0.0004627747073299222,-0.0004627747073299222
118.388,7.192768334176587e-05,7.192768334176587e-05
118.38900000000001,0.0016015053618985788,0.0016015053618985788
118.39,0.003636949979150527,0.003636949979150527
118.391,0.005549772867931081,0.005549772867931081
118.39200000000001,0.006754306949865467,0.006754306949865467
118.393,0.006874441830828853,0.006874441830828853
118.394,0.005845409068034531,0.005845409068034531
118.39500000000001,0.003920559065469718,0.003920559065469718
118.396,0.0015819774145507195,0.0015819774145507195
118.397,0.0006164761516819133,-0.0006164761516819133
118.39800000000001,0.002223926052725667,-0.002223926052725667
118.399,0.003029569767941592,-0.003029569767941592
118.4,0.0031186371317812617,-0.0031186371317812617
118.40100000000001,0.0028299256267587526,-0.0028299256267587526
118.402,0.002629641837588325,-0.002629641837588325
118.403,0.0029437006287487766,-0.0029437006287487766
118.40400000000001,0.004004282617897437,-0.004004282617897437
118.405,0.0057615987801559135,-0.0057615987801559135
118.406,0.00788990605857208,-0.00788990605857208
118.40700000000001,0.009885140451487069,-0.009885140451487069
118.408,0.011220817654632778,-0.011220817654632778
118.409,0.011509627933649832,-0.011509627933649832
118.41000000000001,0.01061707247684061,-0.01061707247684061
118.411,0.008690922400426194,-0.008690922400426194
118.412,0.006100087530151711,-0.006100087530151711
118.41300000000001,0.0033080933609198823,-0.0033080933609198823
118.414,0.0007285026461227387,-0.0007285026461227387
118.415,0.0013856612326382728,0.0013856612326382728
118.41600000000001,0.0029808140036025844,0.0029808140036025844
118.417,0.004160557052864523,0.004160557052864523
118.418,0.005084367650206423,0.005084367650206423
118.41900000000001,0.005852423268548859,0.005852423268548859
118.42,0.006427453540081217,0.006427453540081217
118.421,0.006630241429726633,0.006630241429726633
118.42200000000001,0.006216029620313032,0.006216029620313032
118.423,0.005005387978531132,0.005005387978531132
118.424,0.0030178846629392952,0.0030178846629392952
118.42500000000001,0.0005503528702344726,0.0005503528702344726
118.426,0.001842709141949693,-0.001842709141949693
118.427,0.003475561758218127,-0.003475561758218127
118.42800000000001,0.0037335539557760058,-0.0037335539557760058
118.429,0.0022885643374621085,-0.0022885643374621085
118.43,0.000746896869198291,0.000746896869198291
118.43100000000001,0.0047872564525228735,0.0047872564525228735
118.432,0.008886975993104377,0.008886975993104377
118.433,0.011975752302214327,0.011975752302214327
118.43400000000001,0.013150184659880434,0.013150184659880434
118.435,0.011933923889509514,0.011933923889509514
118.436,0.008424289215513898,0.008424289215513898
118.43700000000001,0.0032766242663812327,0.0032766242663812327
118.438,0.0024721095454703773,-0.0024721095454703773
118.43900000000001,0.0076882101214583816,-0.0076882101214583816
118.44000000000001,0.011447793602612343,-0.011447793602612343
118.441,0.01327164032938668,-0.01327164032938668
118.44200000000001,0.013218531677169425,-0.013218531677169425
118.44300000000001,0.011813276293876298,-0.011813276293876298
118.444,0.00983871155270468,-0.00983871155270468
118.44500000000001,0.00806354833815983,-0.00806354833815983
118.44600000000001,0.006996086887199083,-0.006996086887199083
118.447,0.006742012506197997,-0.006742012506197997
118.44800000000001,0.007007271245960529,-0.007007271245960529
118.44900000000001,0.007237454108579748,-0.007237454108579748
118.45,0.006840082868492581,-0.006840082868492581
118.45100000000001,0.005410648205643323,-0.005410648205643323
118.45200000000001,0.0028851806729211517,-0.0028851806729211517
118.453,0.00043000023044088246,0.00043000023044088246
118.45400000000001,0.003957186676658688,0.003957186676658688
118.45500000000001,0.00703672749858149,0.00703672749858149
118.456,0.009139459939103246,0.009139459939103246
118.45700000000001,0.010029056156557076,0.010029056156557076
118.45800000000001,0.009820630235427704,0.009820630235427704
118.459,0.008918807069649192,0.008918807069649192
118.46000000000001,0.007859648392114435,0.007859648392114435
118.46100000000001,0.007112344779745109,0.007112344779745109
118.462,0.006908276495005494,0.006908276495005494
118.46300000000001,0.0071539111883560285,0.0071539111883560285
118.46400000000001,0.007454816928753266,0.007454816928753266
118.465,0.007241344900924017,0.007241344900924017
118.46600000000001,0.005954663979871168,0.005954663979871168
118.46700000000001,0.0032347875673186593,0.0032347875673186593
118.468,0.0009455757925810369,-0.0009455757925810369
118.46900000000001,0.006238303143390342,-0.006238303143390342
118.47000000000001,0.011976514276815401,-0.011976514276815401
118.471,0.017310481693323707,-0.017310481693323707
118.47200000000001,0.021383277319217096,-0.021383277319217096
118.47300000000001,0.023500908399979023,-0.023500908399979023
118.474,0.02325927962677867,-0.02325927962677867
118.47500000000001,0.02060665304300524,-0.02060665304300524
118.47600000000001,0.015838775214004994,-0.015838775214004994
118.477,0.009538527464825147,-0.009538527464825147
118.47800000000001,0.002479493458368487,-0.002479493458368487
118.47900000000001,0.004486747628714411,0.004486747628714411
118.48,0.010543832717998943,0.010543832717998943
118.48100000000001,0.01501341871359474,0.01501341871359474
118.48200000000001,0.017439593535645313,0.017439593535645313
118.483,0.017647241947400683,0.017647241947400683
118.48400000000001,0.015765939618114008,0.015765939618114008
118.48500000000001,0.012211691680366536,0.012211691680366536
118.486,0.007623271646004242,0.007623271646004242
118.48700000000001,0.002758404066450701,0.002758404066450701
118.48800000000001,0.0016344316463125692,-0.0016344316463125692
118.489,0.0049439566378011975,-0.0049439566378011975
118.49000000000001,0.0067959874043842725,-0.0067959874043842725
118.49100000000001,0.007102263572151953,-0.007102263572151953
118.492,0.006047556642138259,-0.006047556642138259
118.49300000000001,0.004020837544752961,-0.004020837544752961
118.49400000000001,0.0015114387107458857,-0.0015114387107458857
118.495,0.0010002193836519521,0.0010002193836519521
118.49600000000001,0.0031287433356903915,0.0031287433356903915
118.49700000000001,0.0046283289407371385,0.0046283289407371385
118.498,0.005392961354209344,0.005392961354209344
118.49900000000001,0.005424536923667754,0.005424536923667754
118.50000000000001,0.004790138492165288,0.004790138492165288
118.501,0.0035893217640576985,0.0035893217640576985
118.50200000000001,0.0019431752293841177,0.0019431752293841177
118.50300000000001,3.285208355193438e-06,3.285208355193438e-06
118.504,0.002033328246273173,-0.002033328246273173
118.50500000000001,0.003922229482108915,-0.003922229482108915
118.506,0.00539680676019169,-0.00539680676019169
118.507,0.00622227134530987,-0.00622227134530987
118.50800000000001,0.006264409534420221,-0.006264409534420221
118.509,0.005547619386383674,-0.005547619386383674
118.51,0.0042750886272252195,-0.0042750886272252195
118.51100000000001,0.002794076059931655,-0.002794076059931655
118.512,0.0015082997530324659,-0.0015082997530324659
118.513,0.0007605183400499374,-0.0007605183400499374
118.51400000000001,0.0007230917604202597,-0.0007230917604202597
118.515,0.0013359886629632186,-0.0013359886629632186
118.516,0.0023183583735092803,-0.0023183583735092803
118.51700000000001,0.003255197609450005,-0.003255197609450005
118.518,0.0037333527409066044,-0.0037333527409066044
118.519,0.003481373386188514,-0.003481373386188514
118.52000000000001,0.0024636653598537873,-0.0024636653598537873
118.521,0.0008935940143344991,-0.0008935940143344991
118.522,0.0008415789734721193,0.0008415789734721193
118.52300000000001,0.00231867122901925,0.00231867122901925
118.524,0.003229770005897303,0.003229770005897303
118.525,0.0034901492472824906,0.0034901492472824906
118.52600000000001,0.0032608002697187893,0.0032608002697187893
118.527,0.0028746031255760664,0.0028746031255760664
118.528,0.0026920104179650457,0.0026920104179650457
118.52900000000001,0.002940818613298791,0.002940818613298791
118.53,0.0036036850999773174,0.0036036850999773174
118.531,0.004401923816712585,0.004401923816712585
118.53200000000001,0.004889210631893071,0.004889210631893071
118.533,0.0046264076978849876,0.0046264076978849876
118.534,0.0033746125518499606,0.0033746125518499606
118.53500000000001,0.00123134728429705,0.00123134728429705
118.536,0.00134940877400924,-0.00134940877400924
118.537,0.00367305137974529,-0.00367305137974529
118.53800000000001,0.005025785403778043,-0.005025785403778043
118.539,0.004929160815296698,-0.004929160815296698
118.54,0.003337000764435288,-0.003337000764435288
118.54100000000001,0.0006981107146278499,-0.0006981107146278499
118.542,0.0021486646786464444,0.0021486646786464444
118.543,0.004222355753242855,0.004222355753242855
118.54400000000001,0.004713405602858292,0.004713405602858292
118.545,0.003257702425044888,0.003257702425044888
118.546,7.44015757237334e-05,7.44015757237334e-05
118.54700000000001,0.004085836611308337,-0.004085836611308337
118.548,0.008171325227194335,-0.008171325227194335
118.549,0.01116466472410378,-0.01116466472410378
118.55000000000001,0.012409817477016794,-0.012409817477016794
118.551,0.011817382062046048,-0.011817382062046048
118.552,0.00987426675302498,-0.00987426675302498
118.55300000000001,0.007451136743358777,-0.007451136743358777
118.554,0.005472533122104715,-0.005472533122104715
118.555,0.00456508821283044,-0.00456508821283044
118.55600000000001,0.004810181688651765,-0.004810181688651765
118.557,0.005693675185330876,-0.005693675185330876
118.558,0.006277767485943211,-0.006277767485943211
118.55900000000001,0.005541601979432597,-0.005541601979432597
118.56,0.0027755267311021506,-0.0027755267311021506
118.561,0.0021089109606747176,0.0021089109606747176
118.56200000000001,0.008466099008359249,0.008466099008359249
118.563,0.015048321352979978,0.015048321352979978
118.56400000000001,0.02034701191879878,0.02034701191879878
118.56500000000001,0.02303525009732931,0.02303525009732931
118.566,0.022367082404124574,0.022367082404124574
118.56700000000001,0.018402129375658296,0.018402129375658296
118.56800000000001,0.011982016330498672,0.011982016330498672
118.569,0.004468555664273066,0.004468555664273066
118.57000000000001,0.0026665663398083655,-0.0026665663398083655
118.57100000000001,0.008262312873922545,-0.008262312873922545
118.572,0.011760305008250658,-0.011760305008250658
118.57300000000001,0.013277145500826844,-0.013277145500826844
118.57400000000001,0.013444443966544841,-0.013444443966544841
118.575,0.013085588566157894,-0.013085588566157894
118.57600000000001,0.012854161840551239,-0.012854161840551239
118.57700000000001,0.012969290439435437,-0.012969290439435437
118.578,0.013144747968685753,-0.013144747968685753
118.57900000000001,0.012735360446453247,-0.012735360446453247
118.58000000000001,0.01104271040823147,-0.01104271040823147
118.581,0.007661799248016576,-0.007661799248016576
118.58200000000001,0.002733143761193053,-0.002733143761193053
118.58300000000001,0.0030027465537571484,0.0030027465537571484
118.584,0.00838074896202188,0.00838074896202188
118.58500000000001,0.012164584888026176,0.012164584888026176
118.58600000000001,0.013459423899406471,0.013459423899406471
118.587,0.012038709263740241,0.012038709263740241
118.58800000000001,0.008465310440092893,0.008465310440092893
118.58900000000001,0.003955041961092361,0.003955041961092361
118.59,1.8126282229982127e-05,1.8126282229982127e-05
118.59100000000001,0.002008993917830163,-0.002008993917830163
118.59200000000001,0.0013896755650407307,-0.0013896755650407307
118.593,0.0017691206153402986,0.0017691206153402986
118.59400000000001,0.006536255687422035,0.006536255687422035
118.59500000000001,0.011433937256193757,0.011433937256193757
118.596,0.014884237143234908,0.014884237143234908
118.59700000000001,0.015681900012032488,0.015681900012032488
118.59800000000001,0.01334497992721148,0.01334497992721148
118.599,0.00823781640225366,0.00823781640225366
118.60000000000001,0.001436964932561795,0.001436964932561795
118.60100000000001,0.0056064277513702306,-0.0056064277513702306
118.602,0.011492443270502724,-0.011492443270502724
118.60300000000001,0.015249820388918025,-0.015249820388918025
118.60400000000001,0.016552893974742803,-0.016552893974742803
118.605,0.01572548052662247,-0.01572548052662247
118.60600000000001,0.01355169688841901,-0.01355169688841901
118.60700000000001,0.010974009899337556,-0.010974009899337556
118.608,0.008787343155571517,-0.008787343155571517
118.60900000000001,0.007427497148674735,-0.007427497148674735
118.61000000000001,0.006909267422936644,-0.006909267422936644
118.611,0.0069121503724450155,-0.0069121503724450155
118.61200000000001,0.006960999760597888,-0.006960999760597888
118.61300000000001,0.006622918079441023,-0.006622918079441023
118.614,0.0056472832786523645,-0.0056472832786523645
118.61500000000001,0.004008089982376609,-0.004008089982376609
118.61600000000001,0.0018520176611592743,-0.0018520176611592743
118.617,0.0006064470782942696,0.0006064470782942696
118.61800000000001,0.0031845611838111935,0.0031845611838111935
118.61900000000001,0.005776807916220295,0.005776807916220295
118.62,0.008328146442087592,0.008328146442087592
118.62100000000001,0.010754611079880108,0.010754611079880108
118.62200000000001,0.012859207407407001,0.012859207407407001
118.623,0.014297511744943685,0.014297511744943685
118.62400000000001,0.014628514662737884,0.014628514662737884
118.62500000000001,0.013449192930119199,0.013449192930119199
118.626,0.010571015967351088,0.010571015967351088
118.62700000000001,0.0061700407053987836,0.0061700407053987836
118.62800000000001,0.0008416137793084336,0.0008416137793084336
118.629,0.004481606803541065,-0.004481606803541065
118.63000000000001,0.008742288676710293,-0.008742288676710293
118.631,0.011045686119311804,-0.011045686119311804
118.632,0.010931731361851119,-0.010931731361851119
118.63300000000001,0.00853852799230647,-0.00853852799230647
118.634,0.0045936556410934816,-0.0045936556410934816
118.635,0.00022415862083032887,-0.00022415862083032887
118.63600000000001,0.0033630562164874167,0.0033630562164874167
118.637,0.005232739512434417,0.005232739512434417
118.638,0.004992760393846135,0.004992760393846135
118.63900000000001,0.0028969170435771607,0.0028969170435771607
118.64,0.00025547801555143927,-0.00025547801555143927
118.641,0.0033910920624795776,-0.0033910920624795776
118.64200000000001,0.005516231661150634,-0.005516231661150634
118.643,0.006036439828805218,-0.006036439828805218
118.644,0.004937453137157552,-0.004937453137157552
118.64500000000001,0.002769704892377007,-0.002769704892377007
118.646,0.0004445345433587541,-0.0004445345433587541
118.647,0.0010869995041097719,0.0010869995041097719
118.64800000000001,0.0011635257195111877,0.0011635257195111877
118.649,0.0003593243212962142,-0.0003593243212962142
118.65,0.0030580865275117016,-0.0030580865275117016
118.65100000000001,0.006081278997903616,-0.006081278997903616
118.652,0.008430214881545628,-0.008430214881545628
118.653,0.00928536817988238,-0.00928536817988238
118.65400000000001,0.008270033070698827,-0.008270033070698827
118.655,0.005566622064748736,-0.005566622064748736
118.656,0.0018519874794400493,-0.0018519874794400493
