Czas,AbsSum,Sum
85.293,0.10003757949240522,-0.10003757949240522
85.29400000000001,0.07729630788153585,-0.07729630788153585
85.295,0.039823293690411266,-0.039823293690411266
85.296,0.007368721194355166,0.007368721194355166
85.29700000000001,0.0556390327369487,0.0556390327369487
85.298,0.09463786081736125,0.09463786081736125
85.299,0.11494388759931606,0.11494388759931606
85.30000000000001,0.11065881041613501,0.11065881041613501
85.301,0.08117342962442531,0.08117342962442531
85.302,0.031547990524973146,0.031547990524973146
85.30300000000001,0.02863940192759118,-0.02863940192759118
85.304,0.0876592896667805,-0.0876592896667805
85.305,0.1345292680153809,-0.1345292680153809
85.30600000000001,0.16161027672421568,-0.16161027672421568
85.307,0.1661777463032723,-0.1661777463032723
85.308,0.15057806310900157,-0.15057806310900157
85.30900000000001,0.12102468364214336,-0.12102468364214336
85.31,0.08549604450615556,-0.08549604450615556
85.311,0.05143817912665605,-0.05143817912665605
85.31200000000001,0.023976994010001307,-0.023976994010001307
85.313,0.005119114848876616,-0.005119114848876616
85.31400000000001,0.0059466657528444156,0.0059466657528444156
85.31500000000001,0.011711245151099225,0.011711245151099225
85.316,0.01488989308968014,0.01488989308968014
85.31700000000001,0.01722267429987223,0.01722267429987223
85.31800000000001,0.018947659757975188,0.018947659757975188
85.319,0.0190668735405628,0.0190668735405628
85.32000000000001,0.016203028511920792,0.016203028511920792
85.32100000000001,0.009619728766809832,0.009619728766809832
85.322,6.937593991063196e-05,-6.937593991063196e-05
85.32300000000001,0.010833292315377219,-0.010833292315377219
85.32400000000001,0.019854222718266756,-0.019854222718266756
85.325,0.024614937569077844,-0.024614937569077844
85.32600000000001,0.023999576357811025,-0.023999576357811025
85.32700000000001,0.018937025635376803,-0.018937025635376803
85.328,0.012277035122005064,-0.012277035122005064
85.32900000000001,0.007879862067624588,-0.007879862067624588
85.33000000000001,0.009210944842860336,-0.009210944842860336
85.331,0.017943552357046033,-0.017943552357046033
85.33200000000001,0.033100361787854804,-0.033100361787854804
85.33300000000001,0.051092815862390895,-0.051092815862390895
85.334,0.06670322123304584,-0.06670322123304584
85.33500000000001,0.07471171659213827,-0.07471171659213827
85.33600000000001,0.07162471202014309,-0.07162471202014309
85.337,0.05690609034940286,-0.05690609034940286
85.33800000000001,0.03327189365658201,-0.03327189365658201
85.33900000000001,0.005929368528561518,-0.005929368528561518
85.34,0.01899165038566042,0.01899165038566042
85.34100000000001,0.03628529881852094,0.03628529881852094
85.34200000000001,0.043170429716691716,0.043170429716691716
85.343,0.03994985921706595,0.03994985921706595
85.34400000000001,0.02963584842235223,0.02963584842235223
85.34500000000001,0.016717256375276213,0.016717256375276213
85.346,0.0055411377580754095,0.0055411377580754095
85.34700000000001,0.0010997623775743648,-0.0010997623775743648
85.34800000000001,0.0026836881129935763,-0.0026836881129935763
85.349,0.0007715763288909105,-0.0007715763288909105
85.35000000000001,0.0019436383642359445,0.0019436383642359445
85.35100000000001,0.002919857823648009,0.002919857823648009
85.352,0.0008373736719449187,0.0008373736719449187
85.35300000000001,0.003979464932329035,-0.003979464932329035
85.35400000000001,0.009947389769420112,-0.009947389769420112
85.355,0.015225624044699848,-0.015225624044699848
85.35600000000001,0.018869097306244087,-0.018869097306244087
85.35700000000001,0.021582384213426398,-0.021582384213426398
85.358,0.02566694832372196,-0.02566694832372196
85.35900000000001,0.03408091988188611,-0.03408091988188611
85.36000000000001,0.04891755627758754,-0.04891755627758754
85.361,0.06990214357593416,-0.06990214357593416
85.36200000000001,0.09358133242500488,-0.09358133242500488
85.363,0.11368570952765944,-0.11368570952765944
85.364,0.12273881981977175,-0.12273881981977175
85.36500000000001,0.11450370179261726,-0.11450370179261726
85.366,0.08647996227048937,-0.08647996227048937
85.367,0.04154292469356324,-0.04154292469356324
85.36800000000001,0.011981124293137135,0.011981124293137135
85.369,0.062030851784678154,0.062030851784678154
85.37,0.09594145680621846,0.09594145680621846
85.37100000000001,0.10409652563340321,0.10409652563340321
85.372,0.08295745049963754,0.08295745049963754
85.373,0.036456225095950145,0.036456225095950145
85.37400000000001,0.024782260575622606,-0.024782260575622606
85.375,0.08623872104903008,-0.08623872104903008
85.376,0.13350772382249088,-0.13350772382249088
85.37700000000001,0.15629160683386556,-0.15629160683386556
85.378,0.151138797835501,-0.151138797835501
85.379,0.12207918013860208,-0.12207918013860208
85.38000000000001,0.07898851932287954,-0.07898851932287954
85.381,0.03425285418770674,-0.03425285418770674
85.382,0.0011475108415079927,0.0011475108415079927
85.38300000000001,0.020843367956382863,0.020843367956382863
85.384,0.024545165850190065,0.024545165850190065
85.385,0.017358801540213076,0.017358801540213076
85.38600000000001,0.007277664137663509,0.007277664137663509
85.387,0.0018022131295927224,0.0018022131295927224
85.388,0.004922897523941261,0.004922897523941261
85.38900000000001,0.015551666581933965,0.015551666581933965
85.39,0.027956319167449895,0.027956319167449895
85.391,0.03402820895459824,0.03402820895459824
85.39200000000001,0.02655251630635047,0.02655251630635047
85.393,0.0022844924891889384,0.0022844924891889384
85.394,0.03630609621872627,-0.03630609621872627
85.39500000000001,0.0812968768424629,-0.0812968768424629
85.396,0.12155053248258096,-0.12155053248258096
85.397,0.146198101835607,-0.146198101835607
85.39800000000001,0.1481895374118748,-0.1481895374118748
85.399,0.12669362935150075,-0.12669362935150075
85.4,0.08751293587642794,-0.08751293587642794
85.40100000000001,0.041352483338640944,-0.041352483338640944
85.402,0.0005097685053496726,-0.0005097685053496726
85.403,0.024914140000060536,0.024914140000060536
85.40400000000001,0.03002910417804161,0.03002910417804161
85.405,0.01641741292170118,0.01641741292170118
85.406,0.008732757124087165,-0.008732757124087165
85.40700000000001,0.03527617970188346,-0.03527617970188346
85.408,0.05360701005740465,-0.05360701005740465
85.409,0.05781006235232067,-0.05781006235232067
85.41000000000001,0.04742802618324726,-0.04742802618324726
85.411,0.027308363209084363,-0.027308363209084363
85.412,0.005662998321593671,-0.005662998321593671
85.41300000000001,0.008924943660790552,0.008924943660790552
85.414,0.010484872168333048,0.010484872168333048
85.415,0.002381068551725818,-0.002381068551725818
85.41600000000001,0.026180562809234087,-0.026180562809234087
85.417,0.0538845363578665,-0.0538845363578665
85.418,0.07740504155456052,-0.07740504155456052
85.41900000000001,0.0902926663320689,-0.0902926663320689
85.42,0.08972152177822812,-0.08972152177822812
85.421,0.07712876575780858,-0.07712876575780858
85.42200000000001,0.05737994368015831,-0.05737994368015831
85.423,0.03685313016678571,-0.03685313016678571
85.424,0.021188059054394914,-0.021188059054394914
85.42500000000001,0.013513871879273442,-0.013513871879273442
85.426,0.013741496453048008,-0.013741496453048008
85.427,0.019081565563305203,-0.019081565563305203
85.42800000000001,0.025490880971904217,-0.025490880971904217
85.429,0.029428784601121638,-0.029428784601121638
85.43,0.02923085753734045,-0.02923085753734045
85.43100000000001,0.02559631964049358,-0.02559631964049358
85.432,0.021054472394702484,-0.021054472394702484
85.433,0.018678041317687577,-0.018678041317687577
85.43400000000001,0.020594117859801253,-0.020594117859801253
85.435,0.026904078808367426,-0.026904078808367426
85.436,0.03544725500464896,-0.03544725500464896
85.43700000000001,0.04250427717307803,-0.04250427717307803
85.438,0.04416900243201083,-0.04416900243201083
85.43900000000001,0.03786333249513396,-0.03786333249513396
85.44000000000001,0.023420804618022983,-0.023420804618022983
85.441,0.003335207710272292,-0.003335207710272292
85.44200000000001,0.01791131747837893,0.01791131747837893
85.44300000000001,0.03518538586534303,0.03518538586534303
85.444,0.04421595578640991,0.04421595578640991
85.44500000000001,0.04275461735392483,0.04275461735392483
85.44600000000001,0.031012424321531284,0.031012424321531284
85.447,0.01129388438080392,0.01129388438080392
85.44800000000001,0.012947694062352633,-0.012947694062352633
85.44900000000001,0.038212545172958134,-0.038212545172958134
85.45,0.0617772911271911,-0.0617772911271911
85.45100000000001,0.0819646452778573,-0.0819646452778573
85.45200000000001,0.0978557952770136,-0.0978557952770136
85.453,0.108700213419472,-0.108700213419472
85.45400000000001,0.11341454480110058,-0.11341454480110058
85.45500000000001,0.11051644981397057,-0.11051644981397057
85.456,0.09862678605541575,-0.09862678605541575
85.45700000000001,0.07738203946916378,-0.07738203946916378
85.45800000000001,0.048353837922878284,-0.048353837922878284
85.459,0.015486263426236047,-0.015486263426236047
85.46000000000001,0.015312879141306635,0.015312879141306635
85.46100000000001,0.037485973587147337,0.037485973587147337
85.462,0.04572905404199967,0.04572905404199967
85.46300000000001,0.03787138930834533,0.03787138930834533
85.46400000000001,0.01602563972499116,0.01602563972499116
85.465,0.013525119097943072,-0.013525119097943072
85.46600000000001,0.04184114626252167,-0.04184114626252167
85.46700000000001,0.05988708292295164,-0.05988708292295164
85.468,0.06137595683384256,-0.06137595683384256
85.46900000000001,0.04495948153274876,-0.04495948153274876
85.47000000000001,0.014975335210699936,-0.014975335210699936
85.471,0.0196014034791816,0.0196014034791816
85.47200000000001,0.04776694541059556,0.04776694541059556
85.47300000000001,0.05988054624219741,0.05988054624219741
85.474,0.05076050480687466,0.05076050480687466
85.47500000000001,0.02145961003992025,0.02145961003992025
85.47600000000001,0.020899380476460783,-0.020899380476460783
85.477,0.06521874891327861,-0.06521874891327861
85.47800000000001,0.09979941041845963,-0.09979941041845963
85.47900000000001,0.11590578801063056,-0.11590578801063056
85.48,0.1103601584560081,-0.1103601584560081
85.48100000000001,0.08632282027449434,-0.08632282027449434
85.48200000000001,0.05202143422624006,-0.05202143422624006
85.483,0.017883261132342843,-0.017883261132342843
85.48400000000001,0.006939079477963572,0.006939079477963572
85.48500000000001,0.01746027631807534,0.01746027631807534
85.486,0.014197111528619022,0.014197111528619022
85.48700000000001,0.0025180127038817446,0.0025180127038817446
85.488,0.009723485413156374,-0.009723485413156374
85.489,0.015400233341693048,-0.015400233341693048
85.49000000000001,0.010999592762749422,-0.010999592762749422
85.491,0.0018674410430057353,0.0018674410430057353
85.492,0.0169065551867984,0.0169065551867984
85.49300000000001,0.02541000666157145,0.02541000666157145
85.494,0.019580600442251184,0.019580600442251184
85.495,0.004257552353659655,-0.004257552353659655
85.49600000000001,0.043718005762501844,-0.043718005762501844
85.497,0.09042357308963156,-0.09042357308963156
85.498,0.13215596194290014,-0.13215596194290014
85.49900000000001,0.156438056850977,-0.156438056850977
85.5,0.15440229834631047,-0.15440229834631047
85.501,0.12367928788371052,-0.12367928788371052
85.50200000000001,0.06934585127444381,-0.06934585127444381
85.503,0.0026000258314547997,-0.0026000258314547997
85.504,0.062428536429047554,0.062428536429047554
85.50500000000001,0.11271812872973186,0.11271812872973186
85.506,0.13995992441519323,0.13995992441519323
85.507,0.14259740321904935,0.14259740321904935
85.50800000000001,0.12569227075896294,0.12569227075896294
85.509,0.09872427827552732,0.09872427827552732
85.51,0.07210195519539231,0.07210195519539231
85.51100000000001,0.0535652787722849,0.0535652787722849
85.512,0.04567108350521454,0.04567108350521454
85.513,0.0451710293515688,0.0451710293515688
85.51400000000001,0.044452095809347725,0.044452095809347725
85.515,0.03452509069846621,0.03452509069846621
85.516,0.008542001426072199,0.008542001426072199
85.51700000000001,0.035340878818712396,-0.035340878818712396
85.518,0.09271372724461235,-0.09271372724461235
85.519,0.15370691146684257,-0.15370691146684257
85.52000000000001,0.2055959997060769,-0.2055959997060769
85.521,0.23641000326182238,-0.23641000326182238
85.522,0.23842419971178763,-0.23842419971178763
85.52300000000001,0.21046580271087523,-0.21046580271087523
85.524,0.15834092425414314,-0.15834092425414314
85.525,0.09327636847103249,-0.09327636847103249
85.52600000000001,0.02887175748982118,-0.02887175748982118
85.527,0.022510049429969703,0.022510049429969703
85.528,0.05284990634842446,0.05284990634842446
85.52900000000001,0.060202170562458246,0.060202170562458246
85.53,0.04861752085116455,0.04861752085116455
85.531,0.02638274520427797,0.02638274520427797
85.53200000000001,0.0031920963999330088,0.0031920963999330088
85.533,0.012852201176832612,-0.012852201176832612
85.534,0.017512006159700055,-0.017512006159700055
85.53500000000001,0.011327027121864508,-0.011327027121864508
85.536,0.0010187587409518084,0.0010187587409518084
85.537,0.012591919726824718,0.012591919726824718
85.53800000000001,0.016714417050954555,0.016714417050954555
85.539,0.00927552410920951,0.00927552410920951
85.54,0.009855959382504165,-0.009855959382504165
85.54100000000001,0.03672236366886794,-0.03672236366886794
85.542,0.06446264211090647,-0.06446264211090647
85.543,0.08539280642417091,-0.08539280642417091
85.54400000000001,0.09332449301979862,-0.09332449301979862
85.545,0.08541393908651962,-0.08541393908651962
85.546,0.06299639512080546,-0.06299639512080546
85.54700000000001,0.031181822025843076,-0.031181822025843076
85.548,0.002633865146193015,0.002633865146193015
85.549,0.030866449527314987,0.030866449527314987
85.55000000000001,0.047805214808017915,0.047805214808017915
85.551,0.051024775226218066,0.051024775226218066
85.552,0.04175023530874378,0.04175023530874378
85.55300000000001,0.024113888877964174,0.024113888877964174
85.554,0.003589412871171316,0.003589412871171316
85.555,0.014858295466120053,-0.014858295466120053
85.55600000000001,0.028291923837559407,-0.028291923837559407
85.557,0.03649552958009317,-0.03649552958009317
85.558,0.04163342197354669,-0.04163342197354669
85.55900000000001,0.04701942412280258,-0.04701942412280258
85.56,0.055452722397739795,-0.055452722397739795
85.561,0.06773855281822472,-0.06773855281822472
85.56200000000001,0.08196578195944593,-0.08196578195944593
85.563,0.09386632589132815,-0.09386632589132815
85.56400000000001,0.09820807096651629,-0.09820807096651629
85.56500000000001,0.09079445055497826,-0.09079445055497826
85.566,0.07038949161775454,-0.07038949161775454
85.56700000000001,0.03985206729192858,-0.03985206729192858
85.56800000000001,0.005974096262739814,-0.005974096262739814
85.569,0.022080202185041697,0.022080202185041697
85.57000000000001,0.03536617951305465,0.03536617951305465
85.57100000000001,0.028029185078828345,0.028029185078828345
85.572,0.00046215245755154566,-0.00046215245755154566
85.57300000000001,0.04450674486052619,-0.04450674486052619
85.57400000000001,0.09337510354207468,-0.09337510354207468
85.575,0.13386275425204675,-0.13386275425204675
85.57600000000001,0.15389306522741153,-0.15389306522741153
85.57700000000001,0.14602672223541047,-0.14602672223541047
85.578,0.10980735326311042,-0.10980735326311042
85.57900000000001,0.05218437554831701,-0.05218437554831701
85.58000000000001,0.01418102128202725,0.01418102128202725
85.581,0.07427519462804844,0.07427519462804844
85.58200000000001,0.11478378571688252,0.11478378571688252
85.58300000000001,0.12763697564164134,0.12763697564164134
85.584,0.1119977535372465,0.1119977535372465
85.58500000000001,0.07412387199289827,0.07412387199289827
85.58600000000001,0.025196674772567595,0.025196674772567595
85.587,0.02215943799806086,-0.02215943799806086
85.58800000000001,0.057549565502724165,-0.057549565502724165
85.58900000000001,0.0755271990605636,-0.0755271990605636
85.59,0.07655813032115855,-0.07655813032115855
85.59100000000001,0.06602815422805053,-0.06602815422805053
85.59200000000001,0.0517463729253016,-0.0517463729253016
85.593,0.04088152519646282,-0.04088152519646282
85.59400000000001,0.0374241630474309,-0.0374241630474309
85.59500000000001,0.04104336601617531,-0.04104336601617531
85.596,0.047684563515929534,-0.047684563515929534
85.59700000000001,0.05161953369618322,-0.05161953369618322
85.59800000000001,0.04813468727537873,-0.04813468727537873
85.599,0.03581464361449349,-0.03581464361449349
85.60000000000001,0.017526523832109064,-0.017526523832109064
85.60100000000001,0.00031498260712758963,0.00031498260712758963
85.602,0.009988083533834624,0.009988083533834624
85.60300000000001,0.005428738016844958,0.005428738016844958
85.60400000000001,0.01515818329808205,-0.01515818329808205
85.605,0.04803480176600683,-0.04803480176600683
85.60600000000001,0.08456255415577685,-0.08456255415577685
85.60700000000001,0.11362661215970427,-0.11362661215970427
85.608,0.12511068955935567,-0.12511068955935567
85.60900000000001,0.1132834405316635,-0.1132834405316635
85.61000000000001,0.07894450698094668,-0.07894450698094668
85.611,0.029561295320014502,-0.029561295320014502
85.61200000000001,0.02271811198866258,0.02271811198866258
85.613,0.06458483660678316,0.06458483660678316
85.614,0.08551355813355688,0.08551355813355688
85.61500000000001,0.08087126754146512,0.08087126754146512
85.616,0.05319735229877076,0.05319735229877076
85.617,0.011258735986533486,0.011258735986533486
85.61800000000001,0.032790324371684165,-0.032790324371684165
85.619,0.06720277949618614,-0.06720277949618614
85.62,0.08415297856187864,-0.08415297856187864
85.62100000000001,0.08185397132882155,-0.08185397132882155
85.622,0.06464560156831434,-0.06464560156831434
85.623,0.04110312203218058,-0.04110312203218058
85.62400000000001,0.020864261482248736,-0.020864261482248736
85.625,0.011271597287218604,-0.011271597287218604
85.626,0.014950205300095387,-0.014950205300095387
85.62700000000001,0.029091006197941804,-0.029091006197941804
85.628,0.046616359434863974,-0.046616359434863974
85.629,0.05877280256508821,-0.05877280256508821
85.63000000000001,0.0582387194619286,-0.0582387194619286
85.631,0.04169814487857826,-0.04169814487857826
85.632,0.011048482285021533,-0.011048482285021533
85.63300000000001,0.02710779883605241,0.02710779883605241
85.634,0.06346222903312637,0.06346222903312637
85.635,0.08879260742610451,0.08879260742610451
85.63600000000001,0.09663272024417702,0.09663272024417702
85.637,0.08499725229829203,0.08499725229829203
85.638,0.056694268662463854,0.056694268662463854
85.63900000000001,0.018238243326888837,0.018238243326888837
85.64,0.022185253681506367,-0.022185253681506367
85.641,0.05699828604711643,-0.05699828604711643
85.64200000000001,0.08104669927444386,-0.08104669927444386
85.643,0.09247614796871262,-0.09247614796871262
85.644,0.0925487947274406,-0.0925487947274406
85.64500000000001,0.08463458613440977,-0.08463458613440977
85.646,0.07283891907593987,-0.07283891907593987
85.647,0.06076756413793205,-0.06076756413793205
85.64800000000001,0.05079024240176433,-0.05079024240176433
85.649,0.043919833359246985,-0.043919833359246985
85.65,0.04017851196486644,-0.04017851196486644
85.65100000000001,0.03916736136789989,-0.03916736136789989
85.652,0.040539034603011004,-0.040539034603011004
85.653,0.04418159628420737,-0.04418159628420737
85.65400000000001,0.050094667102125845,-0.050094667102125845
85.655,0.05809517532772024,-0.05809517532772024
85.656,0.06756273256060863,-0.06756273256060863
85.65700000000001,0.07739843026697435,-0.07739843026697435
85.658,0.08624962840167738,-0.08624962840167738
85.659,0.09290770368174961,-0.09290770368174961
85.66000000000001,0.09668547545443995,-0.09668547545443995
85.661,0.09757433925429793,-0.09757433925429793
85.662,0.09607381127070536,-0.09607381127070536
85.66300000000001,0.09273902559381564,-0.09273902559381564
85.664,0.08763717034406582,-0.08763717034406582
85.665,0.07997482379212473,-0.07997482379212473
85.66600000000001,0.06811712317854146,-0.06811712317854146
85.667,0.050075808291805024,-0.050075808291805024
85.668,0.02435015693709841,-0.02435015693709841
85.66900000000001,0.009159806236386236,0.009159806236386236
85.67,0.04851466994501008,0.04851466994501008
85.671,0.08965286938311645,0.08965286938311645
85.67200000000001,0.12696616160440888,0.12696616160440888
85.673,0.1544078880173272,0.1544078880173272
85.674,0.16681803516565252,0.16681803516565252
85.67500000000001,0.1610697961122185,0.1610697961122185
85.676,0.13670604277812948,0.13670604277812948
85.677,0.09591682156781589,0.09591682156781589
85.67800000000001,0.04293935321393483,0.04293935321393483
85.679,0.016850718718900204,-0.016850718718900204
85.68,0.07781766876657259,-0.07781766876657259
85.68100000000001,0.13464705445872305,-0.13464705445872305
85.682,0.18254576441261838,-0.18254576441261838
85.683,0.21718746823910562,-0.21718746823910562
85.68400000000001,0.23467415470045005,-0.23467415470045005
85.685,0.23179034586938407,-0.23179034586938407
85.686,0.20668023233690958,-0.20668023233690958
85.68700000000001,0.15983211594359736,-0.15983211594359736
85.688,0.09501174408243429,-0.09501174408243429
85.68900000000001,0.01965976443962114,-0.01965976443962114
85.69000000000001,0.05566382758017885,0.05566382758017885
85.691,0.11893804823196663,0.11893804823196663
85.69200000000001,0.15920122768971945,0.15920122768971945
85.69300000000001,0.16931507166157433,0.16931507166157433
85.694,0.14813980846017305,0.14813980846017305
85.69500000000001,0.10134154889138824,0.10134154889138824
85.69600000000001,0.04039159081353394,0.04039159081353394
85.697,0.02014659803019836,-0.02014659803019836
85.69800000000001,0.06638205992935164,-0.06638205992935164
85.69900000000001,0.08885295389176373,-0.08885295389176373
85.7,0.08513469944776642,-0.08513469944776642
85.70100000000001,0.060449547602262066,-0.060449547602262066
85.70200000000001,0.02601567792001358,-0.02601567792001358
85.703,0.004420427525672954,0.004420427525672954
85.70400000000001,0.018832172467029284,0.018832172467029284
85.70500000000001,0.010629258835625821,0.010629258835625821
85.706,0.019326278260866747,-0.019326278260866747
85.70700000000001,0.06304463684941453,-0.06304463684941453
85.70800000000001,0.1079673181020322,-0.1079673181020322
85.709,0.14093486546569822,-0.14093486546569822
85.71000000000001,0.15228451432958956,-0.15228451432958956
85.71100000000001,0.1387662688246063,-0.1387662688246063
85.712,0.10436594183184067,-0.10436594183184067
85.71300000000001,0.05882218951888585,-0.05882218951888585
85.71400000000001,0.014385392741511294,-0.014385392741511294
85.715,0.018067863135194928,0.018067863135194928
85.71600000000001,0.03226961639848791,0.03226961639848791
85.71700000000001,0.028109232713254606,0.028109232713254606
85.718,0.011065223003331903,0.011065223003331903
85.71900000000001,0.010175259861137764,-0.010175259861137764
85.72000000000001,0.02699584204355221,-0.02699584204355221
85.721,0.03384297731895247,-0.03384297731895247
85.72200000000001,0.02989583549915742,-0.02989583549915742
85.72300000000001,0.018892326615870814,-0.018892326615870814
85.724,0.007273815203006961,-0.007273815203006961
85.72500000000001,0.001417537370254962,-0.001417537370254962
85.72600000000001,0.00503654841709289,-0.00503654841709289
85.727,0.017733695733308186,-0.017733695733308186
85.72800000000001,0.03523808259560712,-0.03523808259560712
85.72900000000001,0.05120227908379904,-0.05120227908379904
85.73,0.05983863251159238,-0.05983863251159238
85.73100000000001,0.05834729868866584,-0.05834729868866584
85.73200000000001,0.048160221031239514,-0.048160221031239514
85.733,0.03447090543869402,-0.03447090543869402
85.73400000000001,0.02417702453155024,-0.02417702453155024
85.73500000000001,0.022988275888206955,-0.022988275888206955
85.736,0.03280963632939016,-0.03280963632939016
85.73700000000001,0.05045858001825587,-0.05045858001825587
85.738,0.06832028428106018,-0.06832028428106018
85.739,0.07684231443761647,-0.07684231443761647
85.74000000000001,0.06807017636667245,-0.06807017636667245
85.741,0.038984575572936664,-0.038984575572936664
85.742,0.0066087962112932885,0.0066087962112932885
85.74300000000001,0.058444480082555206,0.058444480082555206
85.744,0.10247174101055623,0.10247174101055623
85.745,0.12508302856719622,0.12508302856719622
85.74600000000001,0.1175581567157502,0.1175581567157502
85.747,0.07924112392696259,0.07924112392696259
85.748,0.01832424779060826,0.01832424779060826
85.74900000000001,0.05013331382952202,-0.05013331382952202
85.75,0.1084245343370841,-0.1084245343370841
85.751,0.14137456605005794,-0.14137456605005794
85.75200000000001,0.14086407260253897,-0.14086407260253897
85.753,0.10826329363687526,-0.10826329363687526
85.754,0.05399968962721513,-0.05399968962721513
85.75500000000001,0.005606676984533543,0.005606676984533543
85.756,0.053238621954995624,0.053238621954995624
85.757,0.07566821346262897,0.07566821346262897
85.75800000000001,0.06745801600816215,0.06745801600816215
85.759,0.0321733165079332,0.0321733165079332
85.76,0.01918076053781148,-0.01918076053781148
85.76100000000001,0.07189405737620869,-0.07189405737620869
85.762,0.11218659434159661,-0.11218659434159661
85.763,0.13123813488910907,-0.13123813488910907
85.76400000000001,0.1273691922111464,-0.1273691922111464
85.765,0.10578863021947016,-0.10578863021947016
85.766,0.0761452810889478,-0.0761452810889478
85.76700000000001,0.048829550615344774,-0.048829550615344774
85.768,0.03133513139198074,-0.03133513139198074
85.769,0.02590307967865768,-0.02590307967865768
85.77000000000001,0.029178135386866755,-0.029178135386866755
85.771,0.03389159202510961,-0.03389159202510961
85.772,0.03189560712801154,-0.03189560712801154
85.77300000000001,0.017441448482212185,-0.017441448482212185
85.774,0.010446035358569361,0.010446035358569361
85.775,0.04729597188006207,0.04729597188006207
85.77600000000001,0.0844141342321818,0.0844141342321818
85.777,0.11154773417292119,0.11154773417292119
85.778,0.12007193774688729,0.12007193774688729
85.77900000000001,0.10563867866482712,0.10563867866482712
85.78,0.06944977929196194,0.06944977929196194
85.781,0.017806963992920366,0.017806963992920366
85.78200000000001,0.03982709987555921,-0.03982709987555921
85.783,0.0935505095464928,-0.0935505095464928
85.784,0.13561113929013846,-0.13561113929013846
85.78500000000001,0.1620574427296515,-0.1620574427296515
85.786,0.1730192091511943,-0.1730192091511943
85.787,0.17168120038690216,-0.17168120038690216
85.78800000000001,0.16245174543292995,-0.16245174543292995
85.789,0.1490636474912772,-0.1490636474912772
85.79,0.1333060974595438,-0.1333060974595438
85.79100000000001,0.11480230784818457,-0.11480230784818457
85.792,0.09183105171172246,-0.09183105171172246
85.793,0.06279516302335053,-0.06279516302335053
85.79400000000001,0.02770614168025487,-0.02770614168025487
85.795,0.0109410539072623,0.0109410539072623
85.796,0.04829420837438314,0.04829420837438314
85.79700000000001,0.07828702912197616,0.07828702912197616
85.798,0.09543541728103389,0.09543541728103389
85.799,0.09667219741344502,0.09667219741344502
85.80000000000001,0.08256997892963969,0.08256997892963969
85.801,0.05749143489392461,0.05749143489392461
85.802,0.028554720383098475,0.028554720383098475
85.80300000000001,0.003690619458909694,0.003690619458909694
85.804,0.010631791002668978,-0.010631791002668978
85.805,0.011319399845839628,-0.011319399845839628
85.80600000000001,0.0003777450606636812,0.0003777450606636812
85.807,0.019146838419952905,0.019146838419952905
85.808,0.03706631056741183,0.03706631056741183
85.80900000000001,0.045814591300836316,0.045814591300836316
85.81,0.03900329345012121,0.03900329345012121
85.811,0.013984153062841287,0.013984153062841287
85.81200000000001,0.027352856011353843,-0.027352856011353843
85.813,0.07897516667088,-0.07897516667088
85.81400000000001,0.13214797753214058,-0.13214797753214058
85.81500000000001,0.1774973037740707,-0.1774973037740707
85.816,0.20713417479093987,-0.20713417479093987
85.81700000000001,0.2163010115148305,-0.2163010115148305
85.81800000000001,0.20416650626772737,-0.20416650626772737
85.819,0.17364606223070345,-0.17364606223070345
85.82000000000001,0.13038577790477235,-0.13038577790477235
85.82100000000001,0.0812485402921409,-0.0812485402921409
85.822,0.03273383334728397,-0.03273383334728397
85.82300000000001,0.01026550173354246,0.01026550173354246
85.82400000000001,0.04509689002056061,0.04509689002056061
85.825,0.07128863428524346,0.07128863428524346
85.82600000000001,0.08990802195360903,0.08990802195360903
85.82700000000001,0.10259582278716395,0.10259582278716395
85.828,0.11060434519133944,0.11060434519133944
85.82900000000001,0.11414200338203528,0.11414200338203528
85.83000000000001,0.11222158528361947,0.11222158528361947
85.831,0.10305243844884782,0.10305243844884782
85.83200000000001,0.08485068564510123,0.08485068564510123
85.83300000000001,0.056810363561294874,0.056810363561294874
85.834,0.019917800224900972,0.019917800224900972
85.83500000000001,0.022679696715711795,-0.022679696715711795
85.83600000000001,0.0659255493345361,-0.0659255493345361
85.837,0.10372807897184944,-0.10372807897184944
85.83800000000001,0.13027312624580156,-0.13027312624580156
85.83900000000001,0.14144397581121604,-0.14144397581121604
85.84,0.1359549901972783,-0.1359549901972783
85.84100000000001,0.11585287330686567,-0.11585287330686567
85.84200000000001,0.08619221625407358,-0.08619221625407358
85.843,0.053913472418950725,-0.053913472418950725
85.84400000000001,0.026181469620204734,-0.026181469620204734
85.84500000000001,0.008613021203007776,-0.008613021203007776
85.846,0.003877786290089613,-0.003877786290089613
85.84700000000001,0.011072831367771596,-0.011072831367771596
85.84800000000001,0.02606503865126275,-0.02606503865126275
85.849,0.042722232896003964,-0.042722232896003964
85.85000000000001,0.05469340895689112,-0.05469340895689112
85.85100000000001,0.05723085255292959,-0.05723085255292959
85.852,0.048527254753960025,-0.048527254753960025
85.85300000000001,0.0301801069106995,-0.0301801069106995
85.85400000000001,0.006655064156155466,-0.006655064156155466
85.855,0.01607841407396826,0.01607841407396826
85.85600000000001,0.032315650567765086,0.032315650567765086
85.85700000000001,0.038246808203717286,0.038246808203717286
85.858,0.032956403615960195,0.032956403615960195
85.85900000000001,0.018505863072715956,0.018505863072715956
85.86000000000001,0.000892407834733655,-0.000892407834733655
85.861,0.020312177436896728,-0.020312177436896728
85.86200000000001,0.03567590963492451,-0.03567590963492451
85.863,0.04492995576808112,-0.04492995576808112
85.864,0.048462678858606445,-0.048462678858606445
85.86500000000001,0.048659856802050205,-0.048659856802050205
85.866,0.04878740205112775,-0.04878740205112775
85.867,0.05161835374037771,-0.05161835374037771
85.86800000000001,0.0583020534681602,-0.0583020534681602
85.869,0.06788093511688875,-0.06788093511688875
85.87,0.0776264797163192,-0.0776264797163192
85.87100000000001,0.08407161252433748,-0.08407161252433748
85.872,0.0843646012030358,-0.0843646012030358
85.873,0.07744802535662831,-0.07744802535662831
85.87400000000001,0.06461967423824633,-0.06461967423824633
85.875,0.049243945361983066,-0.049243945361983066
85.876,0.03568068816668035,-0.03568068816668035
85.87700000000001,0.02778047724497046,-0.02778047724497046
85.878,0.02746211831564027,-0.02746211831564027
85.879,0.033879299830829046,-0.033879299830829046
85.88000000000001,0.04349804956771852,-0.04349804956771852
85.881,0.05110522884362578,-0.05110522884362578
85.882,0.051451776035594365,-0.051451776035594365
85.88300000000001,0.04101053386582909,-0.04101053386582909
85.884,0.019274828441965375,-0.019274828441965375
85.885,0.010838871089471347,0.010838871089471347
85.88600000000001,0.04363669748747667,0.04363669748747667
85.887,0.07215653298744007,0.07215653298744007
85.888,0.0900768428131018,0.0900768428131018
85.88900000000001,0.09343408317829804,0.09343408317829804
85.89,0.08162328120438711,0.08162328120438711
85.891,0.05739227513484946,0.05739227513484946
85.89200000000001,0.02586660877394542,0.02586660877394542
85.893,0.007049810868623885,-0.007049810868623885
85.894,0.036364941133979145,-0.036364941133979145
85.89500000000001,0.05923791303643278,-0.05923791303643278
85.896,0.07539575788815867,-0.07539575788815867
85.897,0.08664371733280729,-0.08664371733280729
85.89800000000001,0.09569184598563552,-0.09569184598563552
85.899,0.10474294658195071,-0.10474294658195071
85.9,0.11435291320054541,-0.11435291320054541
85.90100000000001,0.1229666157982855,-0.1229666157982855
85.902,0.12729177722756335,-0.12729177722756335
85.903,0.12338441791122601,-0.12338441791122601
85.90400000000001,0.10808033704678188,-0.10808033704678188
85.905,0.08029562002635382,-0.08029562002635382
85.906,0.04176752218463309,-0.04176752218463309
85.90700000000001,0.0030071803475626435,0.0030071803475626435
85.908,0.0476232740115754,0.0476232740115754
85.909,0.0851551412272582,0.0851551412272582
85.91000000000001,0.10968266984761654,0.10968266984761654
85.911,0.1175424028051717,0.1175424028051717
85.912,0.10800370249718538,0.10800370249718538
85.91300000000001,0.0832596082437751,0.0832596082437751
85.914,0.04781966613652533,0.04781966613652533
85.915,0.007532548392543914,0.007532548392543914
85.91600000000001,0.03148731024332596,-0.03148731024332596
85.917,0.0638011165713398,-0.0638011165713398
85.918,0.08533075028084292,-0.08533075028084292
85.91900000000001,0.09377157920563561,-0.09377157920563561
85.92,0.08878462310666002,-0.08878462310666002
85.921,0.0720246839061075,-0.0720246839061075
85.92200000000001,0.04701527465967881,-0.04701527465967881
85.923,0.018822206269002995,-0.018822206269002995
85.924,0.0065487309261316184,0.0065487309261316184
85.92500000000001,0.023066636309111654,0.023066636309111654
85.926,0.025836244630226712,0.025836244630226712
85.927,0.012302942207003342,0.012302942207003342
85.92800000000001,0.01680845130427,-0.01680845130427
85.929,0.05715556824948054,-0.05715556824948054
85.93,0.10127983824059938,-0.10127983824059938
85.93100000000001,0.13997907206387217,-0.13997907206387217
85.932,0.16431880767482454,-0.16431880767482454
85.933,0.1678137211810261,-0.1678137211810261
85.93400000000001,0.14819005706813726,-0.14819005706813726
85.935,0.10819337496124615,-0.10819337496124615
85.936,0.05513619555502536,-0.05513619555502536
85.93700000000001,0.0007706422635227472,0.0007706422635227472
85.938,0.048895141691119415,0.048895141691119415
85.93900000000001,0.08080099196814494,0.08080099196814494
85.94000000000001,0.09226826827981238,0.09226826827981238
85.941,0.0841409063673284,0.0841409063673284
85.94200000000001,0.061766480557705616,0.061766480557705616
85.94300000000001,0.03321574027927077,0.03321574027927077
85.944,0.006836476047320517,0.006836476047320517
85.94500000000001,0.011110570811044385,-0.011110570811044385
85.94600000000001,0.018030304601880487,-0.018030304601880487
85.947,0.015349736112686974,-0.015349736112686974
85.94800000000001,0.007615872436106841,-0.007615872436106841
85.94900000000001,0.0006985688609856266,-0.0006985688609856266
85.95,0.00027092423034047464,0.00027092423034047464
85.95100000000001,0.007453611123245607,-0.007453611123245607
85.95200000000001,0.023501637303060097,-0.023501637303060097
85.953,0.04472992245765228,-0.04472992245765228
85.95400000000001,0.0664290020589513,-0.0664290020589513
85.95500000000001,0.08390089476965845,-0.08390089476965845
85.956,0.09383034564331894,-0.09383034564331894
85.95700000000001,0.09499920691625985,-0.09499920691625985
85.95800000000001,0.08817845202539809,-0.08817845202539809
85.959,0.07536106366441409,-0.07536106366441409
85.96000000000001,0.0587437556297451,-0.0587437556297451
85.96100000000001,0.03993269871261296,-0.03993269871261296
85.962,0.019714963331745827,-0.019714963331745827
85.96300000000001,0.0015401071693743607,0.0015401071693743607
85.96400000000001,0.023091624413188017,0.023091624413188017
85.965,0.04309742644185688,0.04309742644185688
85.96600000000001,0.0584033184212851,0.0584033184212851
85.96700000000001,0.0651123125218247,0.0651123125218247
85.968,0.059855397678989286,0.059855397678989286
85.96900000000001,0.04133744707379572,0.04133744707379572
85.97000000000001,0.01152255326104279,0.01152255326104279
85.971,0.02414399676373391,-0.02414399676373391
85.97200000000001,0.05778914852950545,-0.05778914852950545
85.97300000000001,0.08129043965390015,-0.08129043965390015
85.974,0.0889575289644211,-0.0889575289644211
85.97500000000001,0.07979876517702056,-0.07979876517702056
85.97600000000001,0.058469072011018475,-0.058469072011018475
85.977,0.03435257118102908,-0.03435257118102908
85.97800000000001,0.018839742296266282,-0.018839742296266282
85.97900000000001,0.021518922949093855,-0.021518922949093855
85.98,0.046480810264421746,-0.046480810264421746
85.98100000000001,0.09004065535115369,-0.09004065535115369
85.98200000000001,0.14084044394481854,-0.14084044394481854
85.983,0.1825796936076376,-0.1825796936076376
85.98400000000001,0.19875324683893703,-0.19875324683893703
85.98500000000001,0.1780346474684118,-0.1780346474684118
85.986,0.11859868425920561,-0.11859868425920561
85.98700000000001,0.02987474660352485,-0.02987474660352485
85.988,0.06906278409105293,0.06906278409105293
85.989,0.15423295140912607,0.15423295140912607
85.99000000000001,0.20336097964464384,0.20336097964464384
85.991,0.2024348354485963,0.2024348354485963
85.992,0.1501830982885386,0.1501830982885386
85.99300000000001,0.05900208549934516,0.05900208549934516
85.994,0.04809730075084828,-0.04809730075084828
85.995,0.14373501055349136,-0.14373501055349136
85.99600000000001,0.2038037970436153,-0.2038037970436153
85.997,0.21424170856830638,-0.21424170856830638
85.998,0.1748984052520871,-0.1748984052520871
85.99900000000001,0.0993267145679515,-0.0993267145679515
86.0,0.010570724935076048,-0.010570724935076048
86.001,0.06575602975615125,0.06575602975615125
86.00200000000001,0.10899025609021606,0.10899025609021606
86.003,0.10926718064587337,0.10926718064587337
86.004,0.06997731753305403,0.06997731753305403
86.00500000000001,0.006186052922510399,0.006186052922510399
86.006,0.06037706038935853,-0.06037706038935853
86.007,0.1081204569503712,-0.1081204569503712
86.00800000000001,0.12205423206888522,-0.12205423206888522
86.009,0.09797444422836121,-0.09797444422836121
86.01,0.043213469724138864,-0.043213469724138864
86.01100000000001,0.02608664297037322,0.02608664297037322
86.012,0.09015087782039433,0.09015087782039433
86.013,0.13148083986400927,0.13148083986400927
86.01400000000001,0.13966946798218993,0.13966946798218993
86.015,0.11376379076224152,0.11376379076224152
86.016,0.06168255074557205,0.06168255074557205
86.01700000000001,0.0028531030682975578,-0.0028531030682975578
86.018,0.06469385151244289,-0.06469385151244289
86.019,0.1114810220958995,-0.1114810220958995
86.02000000000001,0.13646960735782487,-0.13646960735782487
86.021,0.1393137587573684,-0.1393137587573684
86.022,0.12491112365964141,-0.12491112365964141
86.02300000000001,0.10101291918961586,-0.10101291918961586
86.024,0.07559123610490037,-0.07559123610490037
86.025,0.0548502376527642,-0.0548502376527642
86.02600000000001,0.042358434968614245,-0.042358434968614245
86.027,0.039256173225165614,-0.039256173225165614
86.028,0.045073791492353354,-0.045073791492353354
86.02900000000001,0.058540629439811864,-0.058540629439811864
86.03,0.07791381499544936,-0.07791381499544936
86.031,0.10071985802916161,-0.10071985802916161
86.03200000000001,0.12320383761049125,-0.12320383761049125
86.033,0.14002915772666158,-0.14002915772666158
86.034,0.14474095115507302,-0.14474095115507302
86.03500000000001,0.13119399746463178,-0.13119399746463178
86.036,0.09567278964669301,-0.09567278964669301
86.037,0.038998101989563994,-0.038998101989563994
86.03800000000001,0.032278256278535755,0.032278256278535755
86.039,0.10632388301775908,0.10632388301775908
86.04,0.1683528981127962,0.1683528981127962
86.04100000000001,0.20438267662908327,0.20438267662908327
86.042,0.2053651089547428,0.2053651089547428
86.043,0.17034357615764906,0.17034357615764906
86.04400000000001,0.10745348573464208,0.10745348573464208
86.045,0.03219651551008962,0.03219651551008962
86.046,0.03670503025157179,-0.03670503025157179
86.04700000000001,0.0827198927495133,-0.0827198927495133
86.048,0.09651661209809625,-0.09651661209809625
86.049,0.07892235945672121,-0.07892235945672121
86.05000000000001,0.04077016372109432,-0.04077016372109432
86.051,0.00044926845315940156,0.00044926845315940156
86.052,0.026161375295613354,0.026161375295613354
86.05300000000001,0.022765769350038045,0.022765769350038045
86.054,0.013778400879617791,-0.013778400879617791
86.055,0.0763636663740973,-0.0763636663740973
86.05600000000001,0.14871258261731013,-0.14871258261731013
86.057,0.21033007810785875,-0.21033007810785875
86.058,0.24285197916741996,-0.24285197916741996
86.05900000000001,0.2357417977206998,-0.2357417977206998
86.06,0.189497447037273,-0.189497447037273
86.061,0.11535360383500215,-0.11535360383500215
86.06200000000001,0.03162803564207406,-0.03162803564207406
86.063,0.04203228097222622,0.04203228097222622
86.06400000000001,0.09057337613459127,0.09057337613459127
86.06500000000001,0.10767722016095593,0.10767722016095593
86.066,0.09682378124158197,0.09682378124158197
86.06700000000001,0.06905130906066126,0.06905130906066126
86.06800000000001,0.038332252077192264,0.038332252077192264
86.069,0.016282390847643047,0.016282390847643047
86.07000000000001,0.008106660651753916,0.008106660651753916
86.07100000000001,0.011196930252020953,0.011196930252020953
86.072,0.016812261340583667,0.016812261340583667
86.07300000000001,0.014143413648577852,0.014143413648577852
86.07400000000001,0.004806203888930716,-0.004806203888930716
86.075,0.04138998782645398,-0.04138998782645398
86.07600000000001,0.08902466682793064,-0.08902466682793064
86.07700000000001,0.1349945624279153,-0.1349945624279153
86.078,0.1647720235255905,-0.1647720235255905
86.07900000000001,0.1673240258369657,-0.1673240258369657
86.08000000000001,0.1394654659211344,-0.1394654659211344
86.081,0.08760613519566962,-0.08760613519566962
86.08200000000001,0.026131335986607662,-0.026131335986607662
86.08300000000001,0.027151658802369694,0.027151658802369694
86.084,0.056996958741917236,0.056996958741917236
86.08500000000001,0.056061696822489626,0.056061696822489626
86.08600000000001,0.027686224175673235,0.027686224175673235
86.087,0.01497113958521068,-0.01497113958521068
86.08800000000001,0.05328520167721862,-0.05328520167721862
86.08900000000001,0.06961461291332505,-0.06961461291332505
86.09,0.053684483345559975,-0.053684483345559975
86.09100000000001,0.006679667567400127,-0.006679667567400127
86.09200000000001,0.05846082331918079,0.05846082331918079
86.093,0.12080638624343076,0.12080638624343076
86.09400000000001,0.1581362728822644,0.1581362728822644
86.09500000000001,0.1544265172446404,0.1544265172446404
86.096,0.10563303752877196,0.10563303752877196
86.09700000000001,0.02177342980693453,0.02177342980693453
86.09800000000001,0.07551860909015029,-0.07551860909015029
86.099,0.15931927742227214,-0.15931927742227214
86.10000000000001,0.2056832069684681,-0.2056832069684681
86.10100000000001,0.20123690304840813,-0.20123690304840813
86.102,0.1476424730724012,-0.1476424730724012
86.10300000000001,0.06143937694097745,-0.06143937694097745
86.10400000000001,0.030771745770130865,0.030771745770130865
86.105,0.10035649146350045,0.10035649146350045
86.10600000000001,0.12540711289544393,0.12540711289544393
86.10700000000001,0.09750908897473187,0.09750908897473187
86.108,0.024400809244186084,0.024400809244186084
86.10900000000001,0.07230738557764926,-0.07230738557764926
86.11000000000001,0.16365172817839369,-0.16365172817839369
86.111,0.22205968462929715,-0.22205968462929715
86.11200000000001,0.22963767980463168,-0.22963767980463168
86.113,0.18348577740006133,-0.18348577740006133
86.114,0.09646401943061389,-0.09646401943061389
86.11500000000001,0.006755829822966852,0.006755829822966852
86.116,0.09708715787577371,0.09708715787577371
86.117,0.14959408935287732,0.14959408935287732
86.11800000000001,0.1506503850461125,0.1506503850461125
86.119,0.10160873514397162,0.10160873514397162
86.12,0.01800279794870674,0.01800279794870674
86.12100000000001,0.0753346648362695,-0.0753346648362695
86.122,0.1516593242245775,-0.1516593242245775
86.123,0.18995559730999256,-0.18995559730999256
86.12400000000001,0.18060286642389956,-0.18060286642389956
86.125,0.12752685439864941,-0.12752685439864941
86.126,0.046403040853593036,-0.046403040853593036
86.12700000000001,0.04034555103930604,0.04034555103930604
86.128,0.11012549522764825,0.11012549522764825
86.129,0.14634102258760695,0.14634102258760695
86.13000000000001,0.14242271909559157,0.14242271909559157
86.131,0.102732135170444,0.102732135170444
86.132,0.040339364256286814,0.040339364256286814
86.13300000000001,0.02742059241142225,-0.02742059241142225
86.134,0.08413661557991226,-0.08413661557991226
86.135,0.11869185745400701,-0.11869185745400701
86.13600000000001,0.1276353080820355,-0.1276353080820355
86.137,0.11507457919616737,-0.11507457919616737
86.138,0.09039051580642232,-0.09039051580642232
86.13900000000001,0.0646925053527585,-0.0646925053527585
86.14,0.04721616197785572,-0.04721616197785572
86.141,0.0427561468605403,-0.0427561468605403
86.14200000000001,0.050794867897402174,-0.050794867897402174
86.143,0.06639509234602381,-0.06639509234602381
86.144,0.08236953610363384,-0.08236953610363384
86.14500000000001,0.09189313578085567,-0.09189313578085567
86.146,0.09067442218544008,-0.09067442218544008
86.147,0.07803997011349062,-0.07803997011349062
86.14800000000001,0.05670867966836135,-0.05670867966836135
86.149,0.031487678823563625,-0.031487678823563625
86.15,0.007457306954041121,-0.007457306954041121
86.15100000000001,0.01167247060249954,0.01167247060249954
86.152,0.024479243626494895,0.024479243626494895
86.153,0.031772983408464794,0.031772983408464794
86.15400000000001,0.035695145179912124,0.035695145179912124
86.155,0.038401518774023646,0.038401518774023646
86.156,0.04088833639119116,0.04088833639119116
86.15700000000001,0.042439255963188094,0.042439255963188094
86.158,0.04091315654437655,0.04091315654437655
86.159,0.03375637710336554,0.03375637710336554
86.16000000000001,0.019331753402852758,0.019331753402852758
86.161,0.0019824231970301254,-0.0019824231970301254
86.162,0.02740443311534224,-0.02740443311534224
86.16300000000001,0.052301480286958135,-0.052301480286958135
86.164,0.07156100082594785,-0.07156100082594785
86.165,0.0813341464159999,-0.0813341464159999
86.16600000000001,0.08052440081304357,-0.08052440081304357
86.167,0.07143246111055324,-0.07143246111055324
86.168,0.059224529421456285,-0.059224529421456285
86.16900000000001,0.05028768634621161,-0.05028768634621161
86.17,0.04994229994291988,-0.04994229994291988
86.171,0.06025580427889221,-0.06025580427889221
86.17200000000001,0.0787401686918262,-0.0787401686918262
86.173,0.09848723744673915,-0.09848723744673915
86.174,0.1098608556938312,-0.1098608556938312
86.17500000000001,0.10335473343420087,-0.10335473343420087
86.176,0.07280544665994548,-0.07280544665994548
86.177,0.017965106355377403,-0.017965106355377403
86.17800000000001,0.05443746425357765,0.05443746425357765
86.179,0.1316078069304223,0.1316078069304223
86.18,0.1974506939594336,0.1974506939594336
86.18100000000001,0.2364990076540454,0.2364990076540454
86.182,0.23793424062525514,0.23793424062525514
86.183,0.19855851327130036,0.19855851327130036
86.18400000000001,0.12385453653564782,0.12385453653564782
86.185,0.02681150210092431,0.02681150210092431
86.186,0.075162735819854,-0.075162735819854
86.18700000000001,0.1643770541246219,-0.1643770541246219
86.188,0.22689219395261284,-0.22689219395261284
86.18900000000001,0.255373667839898,-0.255373667839898
86.19000000000001,0.25006677967233826,-0.25006677967233826
86.191,0.21777663659735547,-0.21777663659735547
86.19200000000001,0.16932034460593337,-0.16932034460593337
86.19300000000001,0.1163256244792884,-0.1163256244792884
86.194,0.06836009535733367,-0.06836009535733367
86.19500000000001,0.03116983003471485,-0.03116983003471485
86.19600000000001,0.0063703031716145775,-0.0063703031716145775
86.197,0.007574261059484444,0.007574261059484444
86.19800000000001,0.013651233758674941,0.013651233758674941
86.19900000000001,0.014617980695657895,0.014617980695657895
86.2,0.011969806119332738,0.011969806119332738
86.20100000000001,0.005861189468557182,0.005861189468557182
86.20200000000001,0.004131901286355544,-0.004131901286355544
86.203,0.01786577845920101,-0.01786577845920101
86.20400000000001,0.033702356244890264,-0.033702356244890264
86.20500000000001,0.04830296264445344,-0.04830296264445344
86.206,0.05733635163355788,-0.05733635163355788
86.20700000000001,0.056903568981836905,-0.056903568981836905
86.20800000000001,0.045159457010521264,-0.045159457010521264
86.209,0.023482380952255966,-0.023482380952255966
86.21000000000001,0.003335896676595951,0.003335896676595951
86.21100000000001,0.028078320863274664,0.028078320863274664
86.212,0.043045010539930706,0.043045010539930706
86.21300000000001,0.04236658048587416,0.04236658048587416
86.21400000000001,0.02394000002614738,0.02394000002614738
86.215,0.009667204334689483,-0.009667204334689483
86.21600000000001,0.05167465910946878,-0.05167465910946878
86.21700000000001,0.0927970832411692,-0.0927970832411692
86.218,0.12368486745754048,-0.12368486745754048
86.21900000000001,0.13735040130833764,-0.13735040130833764
86.22000000000001,0.1308571466970595,-0.1308571466970595
86.221,0.1058113416654306,-0.1058113416654306
86.22200000000001,0.06759967448129511,-0.06759967448129511
86.22300000000001,0.023714918923781525,-0.023714918923781525
86.224,0.018233048367959137,0.018233048367959137
86.22500000000001,0.05219227899956724,0.05219227899956724
86.22600000000001,0.07458997541690437,0.07458997541690437
86.227,0.0843831576274261,0.0843831576274261
86.22800000000001,0.08244799486280652,0.08244799486280652
86.22900000000001,0.0707201388916836,0.0707201388916836
86.23,0.051507575372279346,0.051507575372279346
86.23100000000001,0.02722313311193214,0.02722313311193214
86.23200000000001,0.0005121240020204976,0.0005121240020204976
86.233,0.025492160023369403,-0.025492160023369403
86.23400000000001,0.04715241082839661,-0.04715241082839661
86.23500000000001,0.060822249492305414,-0.060822249492305414
86.236,0.06386418646908387,-0.06386418646908387
86.23700000000001,0.05588734153925978,-0.05588734153925978
86.238,0.039672988425696665,-0.039672988425696665
86.239,0.021233072357427107,-0.021233072357427107
86.24000000000001,0.008673559162860944,-0.008673559162860944
86.241,0.009954147138438119,-0.009954147138438119
86.242,0.030104538440948514,-0.030104538440948514
86.24300000000001,0.06879284937124763,-0.06879284937124763
86.244,0.11919136688690268,-0.11919136688690268
86.245,0.16878832085211792,-0.16878832085211792
86.24600000000001,0.2022154911270978,-0.2022154911270978
86.247,0.20547631059058635,-0.20547631059058635
86.248,0.17040090833863597,-0.17040090833863597
86.24900000000001,0.09793357721815155,-0.09793357721815155
86.25,0.0009157870687441783,0.0009157870687441783
86.251,0.10698908689351572,0.10698908689351572
86.25200000000001,0.19743561114751929,0.19743561114751929
86.253,0.25155583221899636,0.25155583221899636
86.254,0.25638173536619147,0.25638173536619147
86.25500000000001,0.21033937274058978,0.21033937274058978
86.256,0.12385922563508966,0.12385922563508966
86.257,0.01669361179574058,0.01669361179574058
86.25800000000001,0.08730904256765015,-0.08730904256765015
86.259,0.16645157496237595,-0.16645157496237595
86.26,0.2066331583451836,-0.2066331583451836
86.26100000000001,0.20443511583168672,-0.20443511583168672
86.262,0.16704180158019166,-0.16704180158019166
86.263,0.10918265841025787,-0.10918265841025787
86.26400000000001,0.048191817752944455,-0.048191817752944455
86.265,0.0011828457546712023,0.0011828457546712023
86.266,0.030595181748285682,0.030595181748285682
86.26700000000001,0.039447476915322355,0.039447476915322355
86.268,0.0335453715609213,0.0335453715609213
86.269,0.021747028246977607,0.021747028246977607
86.27000000000001,0.01193461918590355,0.01193461918590355
86.271,0.007801393851862182,0.007801393851862182
86.272,0.0075920597344911744,0.0075920597344911744
86.27300000000001,0.005192341692690894,0.005192341692690894
86.274,0.0069004226291626836,-0.0069004226291626836
86.275,0.033878059517278514,-0.033878059517278514
86.27600000000001,0.0756148539651893,-0.0756148539651893
86.277,0.12553785350544633,-0.12553785350544633
86.278,0.17190160534247156,-0.17190160534247156
86.27900000000001,0.20114597791956879,-0.20114597791956879
86.28,0.2022680136864069,-0.2022680136864069
86.281,0.17074866536549083,-0.17074866536549083
86.28200000000001,0.11067656343357157,-0.11067656343357157
86.283,0.03427099443124593,-0.03427099443124593
86.284,0.04116093681300104,0.04116093681300104
86.28500000000001,0.09796744696864823,0.09796744696864823
86.286,0.12317307586941051,0.12317307586941051
86.287,0.11225013919473725,0.11225013919473725
86.28800000000001,0.07048917044166592,0.07048917044166592
86.289,0.011547712660433973,0.011547712660433973
86.29,0.04639330464003055,-0.04639330464003055
86.29100000000001,0.08573371209557412,-0.08573371209557412
86.292,0.09434217626457175,-0.09434217626457175
86.293,0.0688557997868654,-0.0688557997868654
86.29400000000001,0.015520389081506547,-0.015520389081506547
86.295,0.05157057172280477,0.05157057172280477
86.296,0.11425230894851146,0.11425230894851146
86.29700000000001,0.15497984275788612,0.15497984275788612
86.298,0.16116355625264278,0.16116355625264278
86.299,0.12807301302219587,0.12807301302219587
86.30000000000001,0.05969988457067754,0.05969988457067754
86.301,0.03244950380316458,-0.03244950380316458
86.302,0.1321436478634085,-0.1321436478634085
86.30300000000001,0.2219867360316573,-0.2219867360316573
86.304,0.2868719380071202,-0.2868719380071202
86.305,0.31660996780108974,-0.31660996780108974
86.30600000000001,0.3073223612556748,-0.3073223612556748
86.307,0.2615298609876112,-0.2615298609876112
86.308,0.18714499923854644,-0.18714499923854644
86.30900000000001,0.09573877584487711,-0.09573877584487711
86.31,0.0004879355777973604,-0.0004879355777973604
86.311,0.08584548107062262,0.08584548107062262
86.31200000000001,0.15264693917103123,0.15264693917103123
86.313,0.192733047576515,0.192733047576515
86.31400000000001,0.20309355448157018,0.20309355448157018
86.31500000000001,0.18504546307816816,0.18504546307816816
86.316,0.14379417572005937,0.14379417572005937
86.31700000000001,0.08745121466985961,0.08745121466985961
86.31800000000001,0.025632374799068547,0.025632374799068547
86.319,0.03215788305473266,-0.03215788305473266
86.32000000000001,0.07808660410928481,-0.07808660410928481
86.32100000000001,0.10721191392354068,-0.10721191392354068
86.322,0.11812609436568211,-0.11812609436568211
86.32300000000001,0.11289793094347533,-0.11289793094347533
86.32400000000001,0.09633940243726535,-0.09633940243726535
86.325,0.07476956888712827,-0.07476956888712827
86.32600000000001,0.054554611606629666,-0.054554611606629666
86.32700000000001,0.040739893357803814,-0.040739893357803814
86.328,0.03605151431643627,-0.03605151431643627
86.32900000000001,0.04044697535833286,-0.04044697535833286
86.33000000000001,0.051267805066927186,-0.051267805066927186
86.331,0.06392507756656318,-0.06392507756656318
86.33200000000001,0.07295740840697373,-0.07295740840697373
86.33300000000001,0.07325178273673272,-0.07325178273673272
86.334,0.06120809273972738,-0.06120809273972738
86.33500000000001,0.035648187024894584,-0.035648187024894584
86.33600000000001,0.0016909605521693294,0.0016909605521693294
86.337,0.04618772367360746,0.04618772367360746
86.33800000000001,0.09093018722253277,0.09093018722253277
86.33900000000001,0.12782964313891854,0.12782964313891854
86.34,0.14910892113023055,0.14910892113023055
86.34100000000001,0.1489213323349945,0.1489213323349945
86.34200000000001,0.12478130598926707,0.12478130598926707
86.343,0.07846887261560598,0.07846887261560598
86.34400000000001,0.016130792389965176,0.016130792389965176
86.34500000000001,0.0525539846530374,-0.0525539846530374
86.346,0.1160697741969473,-0.1160697741969473
86.34700000000001,0.1633239397431102,-0.1633239397431102
86.34800000000001,0.18599913833320136,-0.18599913833320136
86.349,0.1804542332572635,-0.1804542332572635
86.35000000000001,0.14869422621594064,-0.14869422621594064
86.35100000000001,0.09812509771242062,-0.09812509771242062
86.352,0.040092264814180156,-0.040092264814180156
86.35300000000001,0.012501057337657384,0.012501057337657384
86.35400000000001,0.04796707377289966,0.04796707377289966
86.355,0.05836649397617255,0.05836649397617255
86.35600000000001,0.041223698755630034,0.041223698755630034
86.35700000000001,4.1762634882980265e-05,4.1762634882980265e-05
86.358,0.056481205108722565,-0.056481205108722565
86.35900000000001,0.11633566012789975,-0.11633566012789975
86.36000000000001,0.16674793439892965,-0.16674793439892965
86.361,0.19682951356260636,-0.19682951356260636
86.36200000000001,0.19977231437559761,-0.19977231437559761
86.363,0.17415693980503666,-0.17415693980503666
86.364,0.12414242630298133,-0.12414242630298133
86.36500000000001,0.058537150426840934,-0.058537150426840934
86.366,0.011034666101155999,0.011034666101155999
86.367,0.07249257932286435,0.07249257932286435
86.36800000000001,0.11571543687477903,0.11571543687477903
86.369,0.13453208359875046,0.13453208359875046
86.37,0.12787915936395033,0.12787915936395033
86.37100000000001,0.09986788237963662,0.09986788237963662
86.372,0.05871355325403638,0.05871355325403638
86.373,0.014725531677636683,0.014725531677636683
86.37400000000001,0.022213979858858424,-0.022213979858858424
86.375,0.04509363565907709,-0.04509363565907709
86.376,0.05151514363347509,-0.05151514363347509
86.37700000000001,0.04423387057889472,-0.04423387057889472
86.378,0.030275662739497,-0.030275662739497
86.379,0.01878553151769169,-0.01878553151769169
86.38000000000001,0.018144703193061273,-0.018144703193061273
86.381,0.03316000881460479,-0.03316000881460479
86.382,0.06318382996993077,-0.06318382996993077
86.38300000000001,0.10181778749561232,-0.10181778749561232
86.384,0.1384217202184158,-0.1384217202184158
86.385,0.16110348013230147,-0.16110348013230147
86.38600000000001,0.16036917979439924,-0.16036917979439924
86.387,0.13233488365150903,-0.13233488365150903
86.388,0.08045199677000892,-0.08045199677000892
86.38900000000001,0.015093214558266288,-0.015093214558266288
86.39,0.049016823991894,0.049016823991894
86.391,0.09685333547624908,0.09685333547624908
86.39200000000001,0.11743696558139227,0.11743696558139227
86.393,0.10712459113072526,0.10712459113072526
86.394,0.07076875091705959,0.07076875091705959
86.39500000000001,0.02030767528877253,0.02030767528877253
86.396,0.028840200545748096,-0.028840200545748096
86.397,0.06248096669883263,-0.06248096669883263
86.39800000000001,0.0719660808671091,-0.0719660808671091
86.399,0.0567383147751247,-0.0567383147751247
86.4,0.024269211035241822,-0.024269211035241822
86.40100000000001,0.012596169504062837,0.012596169504062837
86.402,0.04000984383358763,0.04000984383358763
86.403,0.04774896325281319,0.04774896325281319
86.40400000000001,0.03254927877545888,0.03254927877545888
86.405,0.0009731997703196216,-0.0009731997703196216
86.406,0.0421058357880314,-0.0421058357880314
86.40700000000001,0.07788840104701256,-0.07788840104701256
86.408,0.09766872851428432,-0.09766872851428432
86.409,0.0967575822481328,-0.0967575822481328
86.41000000000001,0.07789212447057825,-0.07789212447057825
86.411,0.04999604746398545,-0.04999604746398545
86.412,0.024694801295618962,-0.024694801295618962
86.41300000000001,0.011861808851693079,-0.011861808851693079
86.414,0.01583881662711184,-0.01583881662711184
86.415,0.03374860010269409,-0.03374860010269409
86.41600000000001,0.05656964689827204,-0.05656964689827204
86.417,0.07263010519555568,-0.07263010519555568
86.418,0.07226486033308621,-0.07226486033308621
86.41900000000001,0.051902145674447286,-0.051902145674447286
86.42,0.015993243588309336,-0.015993243588309336
86.421,0.024062033430963803,0.024062033430963803
86.42200000000001,0.0537592617341236,0.0537592617341236
86.423,0.06082497533583142,0.06082497533583142
86.424,0.04014403653866805,0.04014403653866805
86.42500000000001,0.003578937303121421,-0.003578937303121421
86.426,0.05656267963565842,-0.05656267963565842
86.427,0.10006931255938434,-0.10006931255938434
86.42800000000001,0.116659171314337,-0.116659171314337
86.429,0.09650602738768566,-0.09650602738768566
86.43,0.04155896591370922,-0.04155896591370922
86.43100000000001,0.03403250049100581,0.03403250049100581
86.432,0.10760452751714489,0.10760452751714489
86.433,0.15476238277336418,0.15476238277336418
86.43400000000001,0.15715310259532966,0.15715310259532966
86.435,0.10870330650088289,0.10870330650088289
86.436,0.018220546809577964,0.018220546809577964
86.43700000000001,0.09260650219902533,-0.09260650219902533
86.438,0.1952919369585866,-0.1952919369585866
86.43900000000001,0.2628687171407599,-0.2628687171407599
86.44000000000001,0.27784425536558843,-0.27784425536558843
86.441,0.23730549533048328,-0.23730549533048328
86.44200000000001,0.15359634906474284,-0.15359634906474284
86.44300000000001,0.050408822649378626,-0.050408822649378626
86.444,0.04441824471423916,0.04441824471423916
86.44500000000001,0.1070895917343373,0.1070895917343373
86.44600000000001,0.12448588050615661,0.12448588050615661
86.447,0.09727264684285264,0.09727264684285264
86.44800000000001,0.03871229257853748,0.03871229257853748
86.44900000000001,0.0302054214343761,-0.0302054214343761
86.45,0.0875765828580416,-0.0875765828580416
86.45100000000001,0.11710282518741166,-0.11710282518741166
86.45200000000001,0.11233525871032424,-0.11233525871032424
86.453,0.07754072969919268,-0.07754072969919268
86.45400000000001,0.025260776225418557,-0.025260776225418557
86.45500000000001,0.028315299014822548,0.028315299014822548
86.456,0.06845742997380211,0.06845742997380211
86.45700000000001,0.08581917874152678,0.08581917874152678
86.45800000000001,0.07811780788993028,0.07811780788993028
86.459,0.0494056717244975,0.0494056717244975
86.46000000000001,0.007614915124495081,0.007614915124495081
86.46100000000001,0.038448606470140256,-0.038448606470140256
86.462,0.08149196108446422,-0.08149196108446422
86.46300000000001,0.11678475969534818,-0.11678475969534818
86.46400000000001,0.14183310491880197,-0.14183310491880197
86.465,0.15524999230162173,-0.15524999230162173
86.46600000000001,0.15568791456929232,-0.15568791456929232
86.46700000000001,0.14156952512585774,-0.14156952512585774
86.468,0.11187346032032375,-0.11187346032032375
86.46900000000001,0.06762608366561051,-0.06762608366561051
86.47000000000001,0.013291177173966329,-0.013291177173966329
86.471,0.042846529359391816,0.042846529359391816
86.47200000000001,0.08987701163530426,0.08987701163530426
86.47300000000001,0.11697068472776029,0.11697068472776029
86.474,0.1168268252096405,0.1168268252096405
86.47500000000001,0.08863718498214213,0.08863718498214213
86.47600000000001,0.03933101109324988,0.03933101109324988
86.477,0.01763897864293984,-0.01763897864293984
86.47800000000001,0.06586857520649736,-0.06586857520649736
86.47900000000001,0.09094084064614072,-0.09094084064614072
86.48,0.08514083417300977,-0.08514083417300977
86.48100000000001,0.05029572175886243,-0.05029572175886243
86.48200000000001,0.002370319219615835,0.002370319219615835
86.483,0.055499034667106706,0.055499034667106706
86.48400000000001,0.09102865615978417,0.09102865615978417
86.48500000000001,0.09604188709416084,0.09604188709416084
86.486,0.06706514319280221,0.06706514319280221
86.48700000000001,0.011321567690848244,0.011321567690848244
86.488,0.055549839155092595,-0.055549839155092595
86.489,0.11458859771451513,-0.11458859771451513
86.49000000000001,0.14971741183957465,-0.14971741183957465
86.491,0.15294908345615743,-0.15294908345615743
86.492,0.12681441837445195,-0.12681441837445195
86.49300000000001,0.08318353636484332,-0.08318353636484332
86.494,0.0389040946267053,-0.0389040946267053
86.495,0.009789262354715222,-0.009789262354715222
86.49600000000001,0.005063008941254443,-0.005063008941254443
86.497,0.024204904961875218,-0.024204904961875218
86.498,0.0572878353200571,-0.0572878353200571
86.49900000000001,0.08866960297401949,-0.08866960297401949
86.5,0.10271988589240866,-0.10271988589240866
86.501,0.08955474333119551,-0.08955474333119551
86.50200000000001,0.04876080258755344,-0.04876080258755344
86.503,0.01018769988314272,0.01018769988314272
86.504,0.07094492516103235,0.07094492516103235
86.50500000000001,0.11566699002433145,0.11566699002433145
86.506,0.1308618507122976,0.1308618507122976
86.507,0.1117041608752738,0.1117041608752738
86.50800000000001,0.06338389413809953,0.06338389413809953
86.509,0.0008722621606921388,-0.0008722621606921388
86.51,0.06429973019838087,-0.06429973019838087
86.51100000000001,0.11196234013688466,-0.11196234013688466
86.512,0.13510498435213325,-0.13510498435213325
86.513,0.1330652124112448,-0.1330652124112448
86.51400000000001,0.11226671593049786,-0.11226671593049786
86.515,0.08290134646527236,-0.08290134646527236
86.516,0.054718993227965695,-0.054718993227965695
86.51700000000001,0.03359145178144218,-0.03359145178144218
86.518,0.020120205049711903,-0.020120205049711903
86.519,0.01068555122906878,-0.01068555122906878
86.52000000000001,0.0003310894027782618,-0.0003310894027782618
86.521,0.013864801338986599,0.013864801338986599
86.522,0.030470681521026943,0.030470681521026943
86.52300000000001,0.043541837965100916,0.043541837965100916
86.524,0.044826978761416614,0.044826978761416614
86.525,0.027541712982305233,0.027541712982305233
86.52600000000001,0.009815121397986348,-0.009815121397986348
86.527,0.06126805473870123,-0.06126805473870123
86.528,0.11394005405207897,-0.11394005405207897
86.52900000000001,0.15153157878154289,-0.15153157878154289
86.53,0.15970524854525325,-0.15970524854525325
86.531,0.1315471171184156,-0.1315471171184156
86.53200000000001,0.07107825781530153,-0.07107825781530153
86.533,0.00666631626055425,0.00666631626055425
86.534,0.07935234900692678,0.07935234900692678
86.53500000000001,0.1238945273699732,0.1238945273699732
86.536,0.12382332536436436,0.12382332536436436
86.537,0.07505283047405764,0.07505283047405764
86.53800000000001,0.011953517977722705,-0.011953517977722705
86.539,0.11450801392775989,-0.11450801392775989
86.54,0.20395366209857857,-0.20395366209857857
86.54100000000001,0.2539898116534324,-0.2539898116534324
86.542,0.24850287688064765,-0.24850287688064765
86.543,0.1864638940819633,-0.1864638940819633
86.54400000000001,0.08237497270103833,-0.08237497270103833
86.545,0.03784789841458025,0.03784789841458025
86.546,0.14424526376414426,0.14424526376414426
86.54700000000001,0.21115259884744475,0.21115259884744475
86.548,0.2240005929733755,0.2240005929733755
86.549,0.1826504732473695,0.1826504732473695
86.55000000000001,0.10049573620485663,0.10049573620485663
86.551,0.00010514839270991949,-0.00010514839270991949
86.552,0.0944344796073735,-0.0944344796073735
86.55300000000001,0.16195837699771665,-0.16195837699771665
86.554,0.19093935731260747,-0.19093935731260747
86.555,0.18005214551456505,-0.18005214551456505
86.55600000000001,0.13698842444055115,-0.13698842444055115
86.557,0.07496209598831038,-0.07496209598831038
86.558,0.008527314814966713,-0.008527314814966713
86.55900000000001,0.04992410314854068,0.04992410314854068
86.56,0.09212510861225898,0.09212510861225898
86.561,0.11421579826484751,0.11421579826484751
86.56200000000001,0.11584231730605676,0.11584231730605676
86.563,0.09888517842785083,0.09888517842785083
86.56400000000001,0.0665409221613329,0.0665409221613329
86.56500000000001,0.023075383015643824,0.023075383015643824
86.566,0.025939841179676626,-0.025939841179676626
86.56700000000001,0.07345677736827716,-0.07345677736827716
86.56800000000001,0.11143715249872221,-0.11143715249872221
86.569,0.132282883903725,-0.132282883903725
86.57000000000001,0.13098280476562807,-0.13098280476562807
86.57100000000001,0.10725410611824504,-0.10725410611824504
86.572,0.06672620594716949,-0.06672620594716949
86.57300000000001,0.020388057554232675,-0.020388057554232675
86.57400000000001,0.0179255309024815,0.0179255309024815
86.575,0.03548527032519133,0.03548527032519133
86.57600000000001,0.024879275820967495,0.024879275820967495
86.57700000000001,0.012975561404461322,-0.012975561404461322
86.578,0.06824347298854405,-0.06824347298854405
86.57900000000001,0.12449486164642576,-0.12449486164642576
86.58000000000001,0.16345467044049855,-0.16345467044049855
86.581,0.17078127421934253,-0.17078127421934253
86.58200000000001,0.14100377127491026,-0.14100377127491026
86.58300000000001,0.07989208295916217,-0.07989208295916217
86.584,0.003295566199193578,-0.003295566199193578
86.58500000000001,0.06737125898375451,0.06737125898375451
86.58600000000001,0.11167384987345486,0.11167384987345486
86.587,0.11666608998570638,0.11666608998570638
86.58800000000001,0.08122128182608401,0.08122128182608401
86.58900000000001,0.016693462045781926,0.016693462045781926
86.59,0.05641229426813854,-0.05641229426813854
86.59100000000001,0.11477324136306066,-0.11477324136306066
86.59200000000001,0.13959197736746842,-0.13959197736746842
86.593,0.12259416233890741,-0.12259416233890741
86.59400000000001,0.06873921460840726,-0.06873921460840726
86.59500000000001,0.0052430001618331,0.0052430001618331
86.596,0.07602934583549814,0.07602934583549814
86.59700000000001,0.12094146316836296,0.12094146316836296
86.59800000000001,0.12494536066666817,0.12494536066666817
86.599,0.08521921710828861,0.08521921710828861
86.60000000000001,0.011906998159792126,0.011906998159792126
86.60100000000001,0.07508863008976885,-0.07508863008976885
86.602,0.15217315449026747,-0.15217315449026747
86.60300000000001,0.19903160794611197,-0.19903160794611197
86.60400000000001,0.20434929885530284,-0.20434929885530284
86.605,0.1686167836092629,-0.1686167836092629
86.60600000000001,0.10334216629576487,-0.10334216629576487
86.60700000000001,0.027135016927708477,-0.027135016927708477
86.608,0.03995459392676448,0.03995459392676448
86.60900000000001,0.08203951053359049,0.08203951053359049
86.61000000000001,0.09131512041142842,0.09131512041142842
86.611,0.06933289940118303,0.06933289940118303
86.61200000000001,0.025559091199494066,0.025559091199494066
86.613,0.026036725044699005,-0.026036725044699005
86.614,0.07113647198636142,-0.07113647198636142
86.61500000000001,0.09870830907059414,-0.09870830907059414
86.616,0.10321696566353522,-0.10321696566353522
86.617,0.08508384014003079,-0.08508384014003079
86.61800000000001,0.049641656879103824,-0.049641656879103824
86.619,0.005201295972906306,-0.005201295972906306
86.62,0.039064974737951674,0.039064974737951674
86.62100000000001,0.07488696513722348,0.07488696513722348
86.622,0.09606761474862324,0.09606761474862324
86.623,0.09909831360003385,0.09909831360003385
86.62400000000001,0.08339499523349847,0.08339499523349847
86.625,0.05130456796733407,0.05130456796733407
86.626,0.007894843835259735,0.007894843835259735
86.62700000000001,0.03959415908576702,-0.03959415908576702
86.628,0.08278755073833588,-0.08278755073833588
86.629,0.11372451106606873,-0.11372451106606873
86.63000000000001,0.12669802131787988,-0.12669802131787988
86.631,0.11991496283578562,-0.11991496283578562
86.632,0.09638637841688746,-0.09638637841688746
86.63300000000001,0.06356489993703995,-0.06356489993703995
86.634,0.031588253871743466,-0.031588253871743466
86.635,0.010466943558726571,-0.010466943558726571
86.63600000000001,0.006997104576519031,-0.006997104576519031
86.637,0.02240105248509272,-0.02240105248509272
86.638,0.051577493136157115,-0.051577493136157115
86.63900000000001,0.08438107879638901,-0.08438107879638901
86.64,0.10868111879695874,-0.10868111879695874
86.641,0.11430021790511358,-0.11430021790511358
86.64200000000001,0.09654813225727255,-0.09654813225727255
86.643,0.05810933592523926,-0.05810933592523926
86.644,0.008533412303111776,-0.008533412303111776
86.64500000000001,0.038630047069226015,0.038630047069226015
86.646,0.07018238470962834,0.07018238470962834
86.647,0.07767605657612853,0.07767605657612853
86.64800000000001,0.060340237093769566,0.060340237093769566
86.649,0.025457110365985303,0.025457110365985303
86.65,0.014035092402162608,-0.014035092402162608
86.65100000000001,0.04396943550687826,-0.04396943550687826
86.652,0.05392222276629188,-0.05392222276629188
86.653,0.04099824709229982,-0.04099824709229982
86.65400000000001,0.011055835404874093,-0.011055835404874093
86.655,0.023146438029679972,0.023146438029679972
86.656,0.04633298863000501,0.04633298863000501
86.65700000000001,0.04616879255162054,0.04616879255162054
86.658,0.017912336966693587,0.017912336966693587
86.659,0.033392288537893555,-0.033392288537893555
86.66000000000001,0.09403339518190212,-0.09403339518190212
86.661,0.1457864689343945,-0.1457864689343945
86.662,0.17177911974352544,-0.17177911974352544
86.66300000000001,0.16212301614125213,-0.16212301614125213
86.664,0.1174102374414202,-0.1174102374414202
86.665,0.04886382229493913,-0.04886382229493913
86.66600000000001,0.024955506965419705,0.024955506965419705
86.667,0.08383136758989163,0.08383136758989163
86.668,0.11210805778186295,0.11210805778186295
86.66900000000001,0.10341416615804921,0.10341416615804921
86.67,0.062377013537479487,0.062377013537479487
86.671,0.0028264473726835604,0.0028264473726835604
86.67200000000001,0.05684497724268012,-0.05684497724268012
86.673,0.09957580386683285,-0.09957580386683285
86.674,0.11482621409801563,-0.11482621409801563
86.67500000000001,0.10140804475836729,-0.10140804475836729
86.676,0.06714514340896327,-0.06714514340896327
86.677,0.025645562094041452,-0.025645562094041452
86.67800000000001,0.008580899774445871,0.008580899774445871
86.679,0.024934756653899548,0.024934756653899548
86.68,0.019863897524490692,0.019863897524490692
86.68100000000001,0.002613684858676746,-0.002613684858676746
86.682,0.03298622345623292,-0.03298622345623292
86.683,0.060011851527368765,-0.060011851527368765
86.68400000000001,0.07473262871764308,-0.07473262871764308
86.685,0.07331577278792811,-0.07331577278792811
86.686,0.05781964815142282,-0.05781964815142282
86.68700000000001,0.03479577818585289,-0.03479577818585289
86.688,0.012433511245661388,-0.012433511245661388
86.68900000000001,0.002560762024621077,0.002560762024621077
86.69000000000001,0.007148164160088122,0.007148164160088122
86.691,0.002451413943113545,0.002451413943113545
86.69200000000001,0.0074809662503312335,-0.0074809662503312335
86.69300000000001,0.017982996487922787,-0.017982996487922787
86.694,0.02608731855831059,-0.02608731855831059
86.69500000000001,0.03181971359039837,-0.03181971359039837
86.69600000000001,0.037900549261033034,-0.037900549261033034
86.697,0.04797583471451139,-0.04797583471451139
86.69800000000001,0.06415235618588222,-0.06415235618588222
86.69900000000001,0.0849565251938591,-0.0849565251938591
86.7,0.10472768196884974,-0.10472768196884974
86.70100000000001,0.11492160331173562,-0.11492160331173562
86.70200000000001,0.10703463404628866,-0.10703463404628866
86.703,0.07615544966284216,-0.07615544966284216
86.70400000000001,0.023789593183241142,-0.023789593183241142
86.70500000000001,0.041258002478193,0.041258002478193
86.706,0.10453852967816468,0.10453852967816468
86.70700000000001,0.1498558335372251,0.1498558335372251
86.70800000000001,0.164255626898403,0.164255626898403
86.709,0.14246475153133908,0.14246475153133908
86.71000000000001,0.08919989085342994,0.08919989085342994
86.71100000000001,0.018391043608515067,0.018391043608515067
86.712,0.050638452007400914,-0.050638452007400914
86.71300000000001,0.0989579758112058,-0.0989579758112058
86.71400000000001,0.11398648009036438,-0.11398648009036438
86.715,0.09368261954097501,-0.09368261954097501
86.71600000000001,0.047531675301219045,-0.047531675301219045
86.71700000000001,0.006112681955924515,0.006112681955924515
86.718,0.0456052877396389,0.0456052877396389
86.71900000000001,0.05281929395846352,0.05281929395846352
86.72000000000001,0.0190714310721094,0.0190714310721094
86.721,0.05171228356426716,-0.05171228356426716
86.72200000000001,0.1436227719387142,-0.1436227719387142
86.72300000000001,0.23304530221776576,-0.23304530221776576
86.724,0.295319109134365,-0.295319109134365
86.72500000000001,0.31178437321380503,-0.31178437321380503
86.72600000000001,0.27512162994242273,-0.27512162994242273
86.727,0.19143432557271234,-0.19143432557271234
86.72800000000001,0.0785314019508433,-0.0785314019508433
86.72900000000001,0.038991611551792316,0.038991611551792316
86.73,0.1363540585389842,0.1363540585389842
86.73100000000001,0.1949293488021162,0.1949293488021162
86.73200000000001,0.20655298987670556,0.20655298987670556
86.733,0.17472331252682238,0.17472331252682238
86.73400000000001,0.11258799215661308,0.11258799215661308
86.73500000000001,0.03854398627666655,0.03854398627666655
86.736,0.029101779826549046,-0.029101779826549046
86.73700000000001,0.07682205667815589,-0.07682205667815589
86.738,0.09866075299452925,-0.09866075299452925
86.739,0.09655576392897913,-0.09655576392897913
86.74000000000001,0.07840263154922278,-0.07840263154922278
86.741,0.05470515264003173,-0.05470515264003173
86.742,0.03497461575252214,-0.03497461575252214
86.74300000000001,0.02497262578471715,-0.02497262578471715
86.744,0.025506011239418314,-0.025506011239418314
86.745,0.03292986075280535,-0.03292986075280535
86.74600000000001,0.04098332679613914,-0.04098332679613914
86.747,0.043230770881103275,-0.043230770881103275
86.748,0.03529197658586636,-0.03529197658586636
86.74900000000001,0.01621226396774411,-0.01621226396774411
86.75,0.01133788821976811,0.01133788821976811
86.751,0.04195856936223619,0.04195856936223619
86.75200000000001,0.06912549973233806,0.06912549973233806
86.753,0.08696356298205887,0.08696356298205887
86.754,0.09167176059324844,0.09167176059324844
86.75500000000001,0.08225143085498798,0.08225143085498798
86.756,0.060432916340079856,0.060432916340079856
86.757,0.029933067866628527,0.029933067866628527
86.75800000000001,0.004658484122912698,-0.004658484122912698
86.759,0.039007174919911125,-0.039007174919911125
86.76,0.06986564475491819,-0.06986564475491819
86.76100000000001,0.09542622923326238,-0.09542622923326238
86.762,0.11517083582024945,-0.11517083582024945
86.763,0.12934551679469697,-0.12934551679469697
86.76400000000001,0.1382891071335871,-0.1382891071335871
86.765,0.1418763843992359,-0.1418763843992359
86.766,0.13929106160826232,-0.13929106160826232
86.76700000000001,0.12923474646643363,-0.12923474646643363
86.768,0.11053231810011954,-0.11053231810011954
86.769,0.08295037161316521,-0.08295037161316521
86.77000000000001,0.04794537737220883,-0.04794537737220883
86.771,0.009037350399831667,-0.009037350399831667
86.772,0.028419287851053854,0.028419287851053854
86.77300000000001,0.05813252928646562,0.05813252928646562
86.774,0.07428983077492268,0.07428983077492268
86.775,0.0731483104544779,0.0731483104544779
86.77600000000001,0.05433234269038856,0.05433234269038856
86.777,0.02138803220959784,0.02138803220959784
86.778,0.01869045174961148,-0.01869045174961148
86.77900000000001,0.05696409300311833,-0.05696409300311833
86.78,0.08475891745371922,-0.08475891745371922
86.781,0.09599726642649187,-0.09599726642649187
86.78200000000001,0.08896014810273278,-0.08896014810273278
86.783,0.0668968793091963,-0.0668968793091963
86.784,0.0372049832895438,-0.0372049832895438
86.78500000000001,0.009329723025316317,-0.009329723025316317
86.786,0.008050843093585058,0.008050843093585058
86.787,0.009721604091967428,0.009721604091967428
86.78800000000001,0.004344740419473081,-0.004344740419473081
86.789,0.028828320693630616,-0.028828320693630616
86.79,0.05459616483424634,-0.05459616483424634
86.79100000000001,0.07152176355009876,-0.07152176355009876
86.792,0.071749939242027,-0.071749939242027
86.793,0.05238627594056988,-0.05238627594056988
86.79400000000001,0.016733167599088605,-0.016733167599088605
86.795,0.026372452409647584,0.026372452409647584
86.796,0.06497295703978123,0.06497295703978123
86.79700000000001,0.08744766708138418,0.08744766708138418
86.798,0.0859611181263471,0.0859611181263471
86.799,0.05883689804860581,0.05883689804860581
86.80000000000001,0.0111226845314647,0.0111226845314647
86.801,0.04681970674041058,-0.04681970674041058
86.802,0.10224518114403947,-0.10224518114403947
86.80300000000001,0.14355439632623457,-0.14355439632623457
86.804,0.16333406895194347,-0.16333406895194347
86.805,0.16001183225130233,-0.16001183225130233
86.80600000000001,0.1377034405491523,-0.1377034405491523
86.807,0.10442395352188871,-0.10442395352188871
86.808,0.06934543568205742,-0.06934543568205742
86.80900000000001,0.04004275314802108,-0.04004275314802108
86.81,0.02059889594177322,-0.02059889594177322
86.811,0.01108139408359854,-0.01108139408359854
86.81200000000001,0.008391542307606414,-0.008391542307606414
86.813,0.008015949978559145,-0.008015949978559145
86.81400000000001,0.005942177397011861,-0.005942177397011861
86.81500000000001,2.267993247861977e-05,-2.267993247861977e-05
86.816,0.009640812298565615,0.009640812298565615
86.81700000000001,0.021290501018725427,0.021290501018725427
86.81800000000001,0.03268319929473318,0.03268319929473318
86.819,0.04222868710621697,0.04222868710621697
86.82000000000001,0.04954419212108374,0.04954419212108374
86.82100000000001,0.05517113207549995,0.05517113207549995
86.822,0.059611766251427944,0.059611766251427944
86.82300000000001,0.0621947089821564,0.0621947089821564
86.82400000000001,0.0604154112577886,0.0604154112577886
86.825,0.05024915929378726,0.05024915929378726
86.82600000000001,0.027542632197927297,0.027542632197927297
86.82700000000001,0.009898990980430789,-0.009898990980430789
86.828,0.06030321982308806,-0.06030321982308806
86.82900000000001,0.11689444764862733,-0.11689444764862733
86.83000000000001,0.16849791997618468,-0.16849791997618468
86.831,0.20192451630208752,-0.20192451630208752
86.83200000000001,0.2056243081446295,-0.2056243081446295
86.83300000000001,0.1735500769752094,-0.1735500769752094
86.834,0.10794524845515108,-0.10794524845515108
86.83500000000001,0.019977414262716042,-0.019977414262716042
86.83600000000001,0.07225626490137826,0.07225626490137826
86.837,0.14800198903184802,0.14800198903184802
86.83800000000001,0.1892780285215212,0.1892780285215212
86.83900000000001,0.18588226687208365,0.18588226687208365
86.84,0.13843778106747573,0.13843778106747573
86.84100000000001,0.058474866603964504,0.058474866603964504
86.84200000000001,0.034567627219556196,-0.034567627219556196
86.843,0.11858883453979951,-0.11858883453979951
86.84400000000001,0.17478177067266543,-0.17478177067266543
86.84500000000001,0.1925337822935842,-0.1925337822935842
86.846,0.17183927800000565,-0.17183927800000565
86.84700000000001,0.12257848092958445,-0.12257848092958445
86.84800000000001,0.060999038414418894,-0.060999038414418894
86.849,0.004595673334026551,-0.004595673334026551
86.85000000000001,0.03296218193908196,0.03296218193908196
86.85100000000001,0.04529558316135973,0.04529558316135973
86.852,0.0342090418247456,0.0342090418247456
86.85300000000001,0.0079334272522531,0.0079334272522531
86.85400000000001,0.022483732299977688,-0.022483732299977688
86.855,0.047274253632686225,-0.047274253632686225
86.85600000000001,0.06108641608439913,-0.06108641608439913
86.85700000000001,0.06414025136275903,-0.06414025136275903
86.858,0.06113949343627356,-0.06113949343627356
86.85900000000001,0.058503214044430374,-0.058503214044430374
86.86000000000001,0.06107556696564376,-0.06107556696564376
86.861,0.06963215109596532,-0.06963215109596532
86.86200000000001,0.08017708591959227,-0.08017708591959227
86.863,0.08533890249501874,-0.08533890249501874
86.864,0.07737556411610236,-0.07737556411610236
86.86500000000001,0.05167676607906535,-0.05167676607906535
86.866,0.009428738806961379,-0.009428738806961379
86.867,0.04163521843931495,0.04163521843931495
86.86800000000001,0.08882431137476976,0.08882431137476976
86.869,0.1180278613573491,0.1180278613573491
86.87,0.11810844465049097,0.11810844465049097
86.87100000000001,0.08471899932655313,0.08471899932655313
86.872,0.022254085739905394,0.022254085739905394
86.873,0.05677712193849249,-0.05677712193849249
86.87400000000001,0.1348482393053967,-0.1348482393053967
86.875,0.19408549067368197,-0.19408549067368197
86.876,0.2211120431247956,-0.2211120431247956
86.87700000000001,0.21061897216346415,-0.21061897216346415
86.878,0.16662320564210054,-0.16662320564210054
86.879,0.10109721589623322,-0.10109721589623322
86.88000000000001,0.030455182397332248,-0.030455182397332248
86.881,0.029000517862613373,0.029000517862613373
86.882,0.0653173085676817,0.0653173085676817
86.88300000000001,0.07363558681324078,0.07363558681324078
86.884,0.05677970072210936,0.05677970072210936
86.885,0.02372041741016684,0.02372041741016684
86.88600000000001,0.013452018316191139,-0.013452018316191139
86.887,0.04304140857458971,-0.04304140857458971
86.888,0.05671983029187344,-0.05671983029187344
86.88900000000001,0.051224800797590286,-0.051224800797590286
86.89,0.0285133391904433,-0.0285133391904433
86.891,0.005411134387594441,0.005411134387594441
86.89200000000001,0.04244647224769116,0.04244647224769116
86.893,0.07445640005735554,0.07445640005735554
86.894,0.09491562299458223,0.09491562299458223
86.89500000000001,0.09986245416829376,0.09986245416829376
86.896,0.08816920303571107,0.08816920303571107
86.897,0.06133356453602201,0.06133356453602201
86.89800000000001,0.02304076028302493,0.02304076028302493
86.899,0.02133973235475506,-0.02133973235475506
86.9,0.06530590889508525,-0.06530590889508525
86.90100000000001,0.10192118609189227,-0.10192118609189227
86.902,0.12476716746423366,-0.12476716746423366
86.903,0.12914911446809285,-0.12914911446809285
86.90400000000001,0.11336510205328143,-0.11336510205328143
86.905,0.07967676692321746,-0.07967676692321746
86.906,0.0345568321886186,-0.0345568321886186
86.90700000000001,0.01210361353237066,0.01210361353237066
86.908,0.0488729545582236,0.0488729545582236
86.909,0.0654274351791948,0.0654274351791948
86.91000000000001,0.05533291683879682,0.05533291683879682
86.911,0.018163973089418306,0.018163973089418306
86.912,0.03974964215788568,-0.03974964215788568
86.91300000000001,0.10632729323991319,-0.10632729323991319
86.914,0.16637952191206262,-0.16637952191206262
86.915,0.2052735623104205,-0.2052735623104205
86.91600000000001,0.21266006198054477,-0.21266006198054477
86.917,0.18522623293901164,-0.18522623293901164
86.918,0.12768059087751782,-0.12768059087751782
86.91900000000001,0.05166313128232791,-0.05166313128232791
86.92,0.02713394292499971,0.02713394292499971
86.921,0.09283806265290662,0.09283806265290662
86.92200000000001,0.1331902103820961,0.1331902103820961
86.923,0.14223821279858462,0.14223821279858462
86.924,0.12125673706444196,0.12125673706444196
86.92500000000001,0.07775901387409445,0.07775901387409445
86.926,0.023019142185932928,0.023019142185932928
86.927,0.03107797926705924,-0.03107797926705924
86.92800000000001,0.07491581927029445,-0.07491581927029445
86.929,0.10298166750378135,-0.10298166750378135
86.93,0.11428095045050157,-0.11428095045050157
86.93100000000001,0.11143223675234759,-0.11143223675234759
86.932,0.09894682092121876,-0.09894682092121876
86.933,0.08139488991732857,-0.08139488991732857
86.93400000000001,0.062102834427469666,-0.062102834427469666
86.935,0.04275090300522122,-0.04275090300522122
86.936,0.02385744088051822,-0.02385744088051822
86.93700000000001,0.005787769966014156,-0.005787769966014156
86.938,0.010263484541457979,0.010263484541457979
86.93900000000001,0.021834651274638794,0.021834651274638794
86.94000000000001,0.02558400585902465,0.02558400585902465
86.941,0.01843005326907332,0.01843005326907332
86.94200000000001,0.0009603391113905957,-0.0009603391113905957
86.94300000000001,0.030932443075854188,-0.030932443075854188
86.944,0.06642183388040046,-0.06642183388040046
86.94500000000001,0.09967401233340378,-0.09967401233340378
86.94600000000001,0.12204381782940121,-0.12204381782940121
86.947,0.12641623670190316,-0.12641623670190316
86.94800000000001,0.10951983466093762,-0.10951983466093762
86.94900000000001,0.07336031102494611,-0.07336031102494611
86.95,0.02521333353472388,-0.02521333353472388
86.95100000000001,0.02397131798208796,0.02397131798208796
86.95200000000001,0.06241017836085461,0.06241017836085461
86.953,0.08080849199940232,0.08080849199940232
86.95400000000001,0.07519347250649644,0.07519347250649644
86.95500000000001,0.04836562749359197,0.04836562749359197
86.956,0.009432123848760687,0.009432123848760687
86.95700000000001,0.028572302533253713,-0.028572302533253713
86.95800000000001,0.05239871646713934,-0.05239871646713934
86.959,0.052619205212681264,-0.052619205212681264
86.96000000000001,0.026811504082528748,-0.026811504082528748
86.96100000000001,0.01910423227032232,0.01910423227032232
86.962,0.07189763880650846,0.07189763880650846
86.96300000000001,0.11429640163210997,0.11429640163210997
86.96400000000001,0.1297053041304561,0.1297053041304561
86.965,0.1071271257718629,0.1071271257718629
86.96600000000001,0.04490279189218249,0.04490279189218249
86.96700000000001,0.04786169940490881,-0.04786169940490881
86.968,0.15273250048179965,-0.15273250048179965
86.96900000000001,0.2460352688033116,-0.2460352688033116
86.97000000000001,0.3046361100957482,-0.3046361100957482
86.971,0.31194753887068216,-0.31194753887068216
86.97200000000001,0.2625613233352805,-0.2625613233352805
86.97300000000001,0.1642139925910917,-0.1642139925910917
86.974,0.03646004647992085,-0.03646004647992085
86.97500000000001,0.09370995526237436,0.09370995526237436
86.97600000000001,0.1982462115202035,0.1982462115202035
86.977,0.2547953446394431,0.2547953446394431
86.97800000000001,0.25208989540220506,0.25208989540220506
86.97900000000001,0.19256877248881654,0.19256877248881654
86.98,0.09155220289080357,0.09155220289080357
86.98100000000001,0.026790715978139423,-0.026790715978139423
86.98200000000001,0.13559280628213677,-0.13559280628213677
86.983,0.21191778667008676,-0.21191778667008676
86.98400000000001,0.2421288731855109,-0.2421288731855109
86.98500000000001,0.2246374090947566,-0.2246374090947566
86.986,0.16941702122768054,-0.16941702122768054
86.98700000000001,0.0945649332010825,-0.0945649332010825
86.988,0.02098324537927254,-0.02098324537927254
86.989,0.03328252632336626,0.03328252632336626
86.99000000000001,0.05749527788428477,0.05749527788428477
86.991,0.05033935460328798,0.05033935460328798
86.992,0.01928809733265946,0.01928809733265946
86.99300000000001,0.02238169309261251,-0.02238169309261251
86.994,0.05989722050861457,-0.05989722050861457
86.995,0.08128898440357657,-0.08128898440357657
86.99600000000001,0.08046191787279877,-0.08046191787279877
86.997,0.05827974418342452,-0.05827974418342452
86.998,0.021554688298302094,-0.021554688298302094
86.99900000000001,0.01953595989900614,0.01953595989900614
87.0,0.0546684333792804,0.0546684333792804
87.001,0.07619725696731905,0.07619725696731905
87.00200000000001,0.08079408210767047,0.08079408210767047
87.003,0.06957062758818466,0.06957062758818466
87.004,0.04687532840656017,0.04687532840656017
87.00500000000001,0.018355988599263462,0.018355988599263462
87.006,0.01095601071561525,-0.01095601071561525
87.007,0.03789371459978019,-0.03789371459978019
87.00800000000001,0.061408665106756466,-0.061408665106756466
87.009,0.08190619486664352,-0.08190619486664352
87.01,0.10007132903048399,-0.10007132903048399
87.01100000000001,0.11574778605791203,-0.11574778605791203
87.012,0.12736286514302575,-0.12736286514302575
87.013,0.13213977565046153,-0.13213977565046153
87.01400000000001,0.12701089818929678,-0.12701089818929678
87.015,0.109867289707821,-0.109867289707821
87.016,0.08065278598048753,-0.08065278598048753
87.01700000000001,0.04187527031047944,-0.04187527031047944
87.018,0.001670178717104065,0.001670178717104065
87.019,0.04388213964596788,0.04388213964596788
87.02000000000001,0.07870842929287747,0.07870842929287747
87.021,0.10143564098572533,0.10143564098572533
87.022,0.10952825239990527,0.10952825239990527
87.02300000000001,0.10282541307747528,0.10282541307747528
87.024,0.08314925611847257,0.08314925611847257
87.025,0.05357788278868991,0.05357788278868991
87.02600000000001,0.01771263038644899,0.01771263038644899
87.027,0.02080027207873225,-0.02080027207873225
87.028,0.05841057414789219,-0.05841057414789219
87.02900000000001,0.09158545316979705,-0.09158545316979705
87.03,0.116761503465038,-0.116761503465038
87.031,0.1305760075514455,-0.1305760075514455
87.03200000000001,0.13048547622645157,-0.13048547622645157
87.033,0.11565525794595044,-0.11565525794595044
87.034,0.08779430805095689,-0.08779430805095689
87.03500000000001,0.051514635181449275,-0.051514635181449275
87.036,0.013876487782523594,-0.013876487782523594
87.037,0.016969605591357517,0.016969605591357517
87.03800000000001,0.033793573089057505,0.033793573089057505
87.039,0.0323959782393084,0.0323959782393084
87.04,0.013123501789584768,0.013123501789584768
87.04100000000001,0.01880634030559203,-0.01880634030559203
87.042,0.05443714533731603,-0.05443714533731603
87.043,0.08346112532449412,-0.08346112532449412
87.04400000000001,0.09721268308937803,-0.09721268308937803
87.045,0.09135178043523295,-0.09135178043523295
87.046,0.06734657706811242,-0.06734657706811242
87.04700000000001,0.03219803656755471,-0.03219803656755471
87.048,0.003603350194625543,0.003603350194625543
87.049,0.029311860085147412,0.029311860085147412
87.05000000000001,0.037348573340419966,0.037348573340419966
87.051,0.02579694257741516,0.02579694257741516
87.052,0.0008835929878331372,-0.0008835929878331372
87.05300000000001,0.033223593953895514,-0.033223593953895514
87.054,0.059806095872235066,-0.059806095872235066
87.055,0.07106408803426578,-0.07106408803426578
87.05600000000001,0.06257426478020112,-0.06257426478020112
87.057,0.03673545601391892,-0.03673545601391892
87.058,0.0022213584247992024,-0.0022213584247992024
87.05900000000001,0.02868465821633115,0.02868465821633115
87.06,0.044063548479393644,0.044063548479393644
87.061,0.0363827650325963,0.0363827650325963
87.06200000000001,0.00525826695943632,0.00525826695943632
87.063,0.04197372815151634,-0.04197372815151634
87.06400000000001,0.09211953897904634,-0.09211953897904634
87.06500000000001,0.12989692833005206,-0.12989692833005206
87.066,0.1424720945309238,-0.1424720945309238
87.06700000000001,0.12337708746040132,-0.12337708746040132
87.06800000000001,0.07460929981211428,-0.07460929981211428
87.069,0.006279002572638581,-0.006279002572638581
87.07000000000001,0.06607400089312243,0.06607400089312243
87.07100000000001,0.12567006338473385,0.12567006338473385
87.072,0.15892982562519298,0.15892982562519298
87.07300000000001,0.1588769930612155,0.1588769930612155
87.07400000000001,0.1265791757666428,0.1265791757666428
87.075,0.07033039821158393,0.07033039821158393
87.07600000000001,0.0029631728521579692,0.0029631728521579692
87.07700000000001,0.06179808502503059,-0.06179808502503059
87.078,0.11282065723272383,-0.11282065723272383
87.07900000000001,0.1439109250810331,-0.1439109250810331
87.08000000000001,0.15448605326840903,-0.15448605326840903
87.081,0.14859022106529818,-0.14859022106529818
87.08200000000001,0.13277404982607954,-0.13277404982607954
87.08300000000001,0.11364044631552561,-0.11364044631552561
87.084,0.09586085884833795,-0.09586085884833795
87.08500000000001,0.08121168714081928,-0.08121168714081928
87.08600000000001,0.06878070491336985,-0.06878070491336985
87.087,0.05609410696984385,-0.05609410696984385
87.08800000000001,0.04064678379073272,-0.04064678379073272
87.08900000000001,0.021254182893106877,-0.021254182893106877
87.09,0.0012203912259896033,0.0012203912259896033
87.09100000000001,0.02394473459491664,0.02394473459491664
87.09200000000001,0.04289672831073599,0.04289672831073599
87.093,0.054025140144835504,0.054025140144835504
87.09400000000001,0.054397340912030856,0.054397340912030856
87.09500000000001,0.04300127834039391,0.04300127834039391
87.096,0.021024791787364716,0.021024791787364716
87.09700000000001,0.008385997190050731,-0.008385997190050731
87.09800000000001,0.04075134467616204,-0.04075134467616204
87.099,0.07107014157496161,-0.07107014157496161
87.10000000000001,0.09464276441275399,-0.09464276441275399
87.10100000000001,0.10778884882058848,-0.10778884882058848
87.102,0.10840485105340936,-0.10840485105340936
87.10300000000001,0.09633425006090168,-0.09633425006090168
87.10400000000001,0.0735135555488684,-0.0735135555488684
87.105,0.04383209794616305,-0.04383209794616305
87.10600000000001,0.012639136336642376,-0.012639136336642376
87.10700000000001,0.014122275724784306,0.014122275724784306
87.108,0.03107452961241286,0.03107452961241286
87.10900000000001,0.03465016472497795,0.03465016472497795
87.11000000000001,0.024112391737886485,0.024112391737886485
87.111,0.0020209147327119314,0.0020209147327119314
87.11200000000001,0.02609383313957181,-0.02609383313957181
87.113,0.05288476454570512,-0.05288476454570512
87.114,0.07095369441986465,-0.07095369441986465
87.11500000000001,0.07478811467159685,-0.07478811467159685
87.116,0.062320501764353775,-0.062320501764353775
87.117,0.035621568932652226,-0.035621568932652226
87.11800000000001,0.0004657937387538835,-0.0004657937387538835
87.119,0.03516042533938801,0.03516042533938801
87.12,0.06320479111060462,0.06320479111060462
87.12100000000001,0.07772475450575578,0.07772475450575578
87.122,0.07643892613146108,0.07643892613146108
87.123,0.061181652068642345,0.061181652068642345
87.12400000000001,0.037127043978226526,0.037127043978226526
87.125,0.011036772308986365,0.011036772308986365
87.126,0.01090480915152603,-0.01090480915152603
87.12700000000001,0.024977457112513646,-0.024977457112513646
87.128,0.030940580329180012,-0.030940580329180012
87.129,0.03187361789720666,-0.03187361789720666
87.13000000000001,0.032920820683298935,-0.032920820683298935
87.131,0.03936975826685141,-0.03936975826685141
87.132,0.05469476166097098,-0.05469476166097098
87.13300000000001,0.07918895529308678,-0.07918895529308678
87.134,0.10960208703395202,-0.10960208703395202
87.135,0.13987250292049813,-0.13987250292049813
87.13600000000001,0.1627036316426138,-0.1627036316426138
87.137,0.17149758944324534,-0.17149758944324534
87.138,0.16208904268899982,-0.16208904268899982
87.13900000000001,0.13382749789620718,-0.13382749789620718
87.14,0.08978304026034711,-0.08978304026034711
87.141,0.036111600627322216,-0.036111600627322216
87.14200000000001,0.01917660426051726,0.01917660426051726
87.143,0.06770374641902355,0.06770374641902355
87.144,0.10214350172208597,0.10214350172208597
87.14500000000001,0.1173491951308494,0.1173491951308494
87.146,0.1110872278397399,0.1110872278397399
87.147,0.08435840194600708,0.08435840194600708
87.14800000000001,0.04131904010233778,0.04131904010233778
87.149,0.0111996428564336,-0.0111996428564336
87.15,0.06458976585897036,-0.06458976585897036
87.15100000000001,0.10976876566072225,-0.10976876566072225
87.152,0.13877674710267773,-0.13877674710267773
87.153,0.14642116110135583,-0.14642116110135583
87.15400000000001,0.13159391727193048,-0.13159391727193048
87.155,0.097845616615156,-0.097845616615156
87.156,0.052903059733104274,-0.052903059733104274
87.15700000000001,0.007065553216842546,-0.007065553216842546
87.158,0.029244711894279796,0.029244711894279796
87.159,0.0481820860877058,0.0481820860877058
87.16000000000001,0.04665364083936785,0.04665364083936785
87.161,0.027258438084172276,0.027258438084172276
87.162,0.0024105439264823225,-0.0024105439264823225
87.16300000000001,0.03201065476830567,-0.03201065476830567
87.164,0.05163111921380592,-0.05163111921380592
87.165,0.054940340375782104,-0.054940340375782104
87.16600000000001,0.04126503165560225,-0.04126503165560225
87.167,0.01585665979009565,-0.01585665979009565
87.168,0.011828970160537633,0.011828970160537633
87.16900000000001,0.0313405609174815,0.0313405609174815
87.17,0.03488598072842741,0.03488598072842741
87.171,0.020177095286365798,0.020177095286365798
87.17200000000001,0.008573806936386097,-0.008573806936386097
87.173,0.041946097453622655,-0.041946097453622655
87.174,0.06854069302274557,-0.06854069302274557
87.17500000000001,0.07908460404227446,-0.07908460404227446
87.176,0.06997279666876977,-0.06997279666876977
87.177,0.0449285833645392,-0.0449285833645392
87.17800000000001,0.014062205775249192,-0.014062205775249192
87.179,0.009500042566582101,0.009500042566582101
87.18,0.014358620738479155,0.014358620738479155
87.18100000000001,0.0046635361027956845,-0.0046635361027956845
87.182,0.043910712042193434,-0.043910712042193434
87.183,0.0912474418385889,-0.0912474418385889
87.18400000000001,0.12947845136155034,-0.12947845136155034
87.185,0.14187126294915287,-0.14187126294915287
87.186,0.11802500648527858,-0.11802500648527858
87.18700000000001,0.058102167395982285,-0.058102167395982285
87.188,0.026116084101859505,0.026116084101859505
87.18900000000001,0.11389920583954516,0.11389920583954516
87.19000000000001,0.18128895749582297,0.18128895749582297
87.191,0.208159630141022,0.208159630141022
87.19200000000001,0.18440049687855575,0.18440049687855575
87.19300000000001,0.11322623232477902,0.11322623232477902
87.194,0.010510307371135452,0.010510307371135452
87.19500000000001,0.09969342381548263,-0.09969342381548263
87.19600000000001,0.1920455089145705,-0.1920455089145705
87.197,0.24705947404605866,-0.24705947404605866
87.19800000000001,0.25625065459053686,-0.25625065459053686
87.19900000000001,0.22373817073795532,-0.22373817073795532
87.2,0.1639270331065079,-0.1639270331065079
87.20100000000001,0.09618652034952369,-0.09618652034952369
87.20200000000001,0.0383982265355054,-0.0383982265355054
87.203,0.0015521709141852469,-0.0015521709141852469
87.20400000000001,0.012871121773788019,0.012871121773788019
87.20500000000001,0.012015517704571987,0.012015517704571987
87.206,0.007781166834204045,0.007781166834204045
87.20700000000001,0.01151240773425366,0.01151240773425366
87.20800000000001,0.029230160721852805,0.029230160721852805
87.209,0.05913146917577383,0.05913146917577383
87.21000000000001,0.09220701536548415,0.09220701536548415
87.21100000000001,0.11567226116804763,0.11567226116804763
87.212,0.11788814214876608,0.11788814214876608
87.21300000000001,0.09292712618340704,0.09292712618340704
87.21400000000001,0.04309936549649529,0.04309936549649529
87.215,0.021476402637265135,-0.021476402637265135
87.21600000000001,0.08608017699643511,-0.08608017699643511
87.21700000000001,0.13618696349411052,-0.13618696349411052
87.218,0.16209993749876472,-0.16209993749876472
87.21900000000001,0.1617567004207341,-0.1617567004207341
87.22000000000001,0.1407452200021847,-0.1407452200021847
87.221,0.1096144589621566,-0.1096144589621566
87.22200000000001,0.07956970143689734,-0.07956970143689734
87.22300000000001,0.05822994954821836,-0.05822994954821836
87.224,0.04707581892263135,-0.04707581892263135
87.22500000000001,0.041549371579493455,-0.041549371579493455
87.22600000000001,0.033731695453492305,-0.033731695453492305
87.227,0.016509088554223394,-0.016509088554223394
87.22800000000001,0.012470016071714163,0.012470016071714163
87.22900000000001,0.04870956047669406,0.04870956047669406
87.23,0.08163372721641515,0.08163372721641515
87.23100000000001,0.09810689779141835,0.09810689779141835
87.23200000000001,0.08751629041118925,0.08751629041118925
87.233,0.04654457068899953,0.04654457068899953
87.23400000000001,0.018248209798045978,-0.018248209798045978
87.23500000000001,0.0912181053579012,-0.0912181053579012
87.236,0.15182076469994688,-0.15182076469994688
87.23700000000001,0.1809646660134342,-0.1809646660134342
87.238,0.16745955163129478,-0.16745955163129478
87.239,0.11233226889351633,-0.11233226889351633
87.24000000000001,0.029408107415649254,-0.029408107415649254
87.241,0.058236274251842746,0.058236274251842746
87.242,0.12495896785316973,0.12495896785316973
87.24300000000001,0.15030598703925624,0.15030598703925624
87.244,0.12535576391810643,0.12535576391810643
87.245,0.05560146614176387,0.05560146614176387
87.24600000000001,0.04057112427332521,-0.04057112427332521
87.247,0.1373262813889179,-0.1373262813889179
87.248,0.20899800677365787,-0.20899800677365787
87.24900000000001,0.23747161672929906,-0.23747161672929906
87.25,0.2170454797239877,-0.2170454797239877
87.251,0.15536880843697098,-0.15536880843697098
87.25200000000001,0.07036089078392016,-0.07036089078392016
87.253,0.01569343571604276,0.01569343571604276
87.254,0.08283983655095062,0.08283983655095062
87.25500000000001,0.11878747184831062,0.11878747184831062
87.256,0.12132501983015365,0.12132501983015365
87.257,0.09734802689647837,0.09734802689647837
87.25800000000001,0.05919193731880035,0.05919193731880035
87.259,0.019806960780495153,0.019806960780495153
87.26,0.011445368282842261,-0.011445368282842261
87.26100000000001,0.03099622095947563,-0.03099622095947563
87.262,0.04075842134578178,-0.04075842134578178
87.263,0.04576418239357671,-0.04576418239357671
87.26400000000001,0.050944959950039226,-0.050944959950039226
87.265,0.058469369085219935,-0.058469369085219935
87.266,0.06671555559326936,-0.06671555559326936
87.26700000000001,0.07121186181869277,-0.07121186181869277
87.268,0.06704036932309321,-0.06704036932309321
87.269,0.051594695085204645,-0.051594695085204645
87.27000000000001,0.026447839503807247,-0.026447839503807247
87.271,0.0025381042945264998,0.0025381042945264998
87.272,0.026997963105805045,0.026997963105805045
87.27300000000001,0.03909186064089254,0.03909186064089254
87.274,0.034587326991077694,0.034587326991077694
87.275,0.014741802097318901,0.014741802097318901
87.27600000000001,0.013831346703006564,-0.013831346703006564
87.277,0.04135822682060908,-0.04135822682060908
87.278,0.058397048244822725,-0.058397048244822725
87.27900000000001,0.059333546008243254,-0.059333546008243254
87.28,0.044545078116650094,-0.044545078116650094
87.281,0.02037463098555059,-0.02037463098555059
87.28200000000001,0.003127786419181655,0.003127786419181655
87.283,0.015889833101198514,0.015889833101198514
87.284,0.011564622924337575,0.011564622924337575
87.28500000000001,0.010067192110155054,-0.010067192110155054
87.286,0.042959278848094584,-0.042959278848094584
87.287,0.07699592825369872,-0.07699592825369872
87.28800000000001,0.10170705932474133,-0.10170705932474133
87.289,0.1100997855309116,-0.1100997855309116
87.29,0.10114705094513243,-0.10114705094513243
87.29100000000001,0.0799760345412831,-0.0799760345412831
87.292,0.05567746239795213,-0.05567746239795213
87.293,0.037580586225992474,-0.037580586225992474
87.29400000000001,0.03145212869344294,-0.03145212869344294
87.295,0.0371368137863769,-0.0371368137863769
87.296,0.04862503755336989,-0.04862503755336989
87.29700000000001,0.05659894515729136,-0.05659894515729136
87.298,0.05252089688395811,-0.05252089688395811
87.299,0.03266864843835604,-0.03266864843835604
87.30000000000001,0.00045750308932324124,-0.00045750308932324124
87.301,0.0340289454056264,0.0340289454056264
87.302,0.057345558119094475,0.057345558119094475
87.30300000000001,0.057766519362068,0.057766519362068
87.304,0.03030909495127898,0.03030909495127898
87.305,0.020249113001781782,-0.020249113001781782
87.30600000000001,0.07969902310661381,-0.07969902310661381
87.307,0.1282663670082934,-0.1282663670082934
87.308,0.14691704549127005,-0.14691704549127005
87.30900000000001,0.12403830852945741,-0.12403830852945741
87.31,0.06015959595762699,-0.06015959595762699
87.311,0.031073363074823668,0.031073363074823668
87.31200000000001,0.12624616640580544,0.12624616640580544
87.313,0.19895103201628417,0.19895103201628417
87.31400000000001,0.22787859901348928,0.22787859901348928
87.31500000000001,0.20358566520698407,0.20358566520698407
87.316,0.13166195456938312,0.13166195456938312
87.31700000000001,0.031172489569717854,0.031172489569717854
87.31800000000001,0.07118634847509386,-0.07118634847509386
87.319,0.1493405407250692,-0.1493405407250692
87.32000000000001,0.18580644685783443,-0.18580644685783443
87.32100000000001,0.1767657983382882,-0.1767657983382882
87.322,0.13261189408008833,-0.13261189408008833
87.32300000000001,0.07385682384121095,-0.07385682384121095
87.32400000000001,0.023847292433276324,-0.023847292433276324
87.325,0.0007929119411087537,-0.0007929119411087537
87.32600000000001,0.011805828860512846,-0.011805828860512846
87.32700000000001,0.05092302092709344,-0.05092302092709344
87.328,0.10169029154595577,-0.10169029154595577
87.32900000000001,0.14331559940048288,-0.14331559940048288
87.33000000000001,0.15819228184938305,-0.15819228184938305
87.331,0.13816171641596808,-0.13816171641596808
87.33200000000001,0.08736817009134812,-0.08736817009134812
87.33300000000001,0.02077542277230293,-0.02077542277230293
87.334,0.04106745604343898,0.04106745604343898
87.33500000000001,0.07913583300316218,0.07913583300316218
87.33600000000001,0.08242382623492284,0.08242382623492284
87.337,0.051590569439458944,0.051590569439458944
87.33800000000001,0.0014480764095908816,-0.0014480764095908816
87.33900000000001,0.057765914628427506,-0.057765914628427506
87.34,0.09797644815235773,-0.09797644815235773
87.34100000000001,0.10879377205936225,-0.10879377205936225
87.34200000000001,0.08736283610804663,-0.08736283610804663
87.343,0.04194087162474802,-0.04194087162474802
87.34400000000001,0.01119835250881085,0.01119835250881085
87.34500000000001,0.05346914551100057,0.05346914551100057
87.346,0.07026512991104439,0.07026512991104439
87.34700000000001,0.055685628873059834,0.055685628873059834
87.34800000000001,0.014161922267486471,0.014161922267486471
87.349,0.04143045488049535,-0.04143045488049535
87.35000000000001,0.09436888159246748,-0.09436888159246748
87.35100000000001,0.12969819923573134,-0.12969819923573134
87.352,0.13890915603752396,-0.13890915603752396
87.35300000000001,0.12215588046115222,-0.12215588046115222
87.35400000000001,0.08742422994559806,-0.08742422994559806
87.355,0.04715392692187714,-0.04715392692187714
87.35600000000001,0.0136698422478021,-0.0136698422478021
87.35700000000001,0.004898645478311536,0.004898645478311536
87.358,0.006824228066031335,0.006824228066031335
87.35900000000001,0.003500625454300743,-0.003500625454300743
87.36000000000001,0.018005111291617637,-0.018005111291617637
87.361,0.0284469035192344,-0.0284469035192344
87.36200000000001,0.029578423654877617,-0.029578423654877617
87.363,0.02079894805707938,-0.02079894805707938
87.364,0.00578175371886569,-0.00578175371886569
87.36500000000001,0.009611749501024835,0.009611749501024835
87.366,0.020157199760064914,0.020157199760064914
87.367,0.023606438805616303,0.023606438805616303
87.36800000000001,0.021558977867949913,0.021558977867949913
87.369,0.018515912762773423,0.018515912762773423
87.37,0.019531338800059084,0.019531338800059084
87.37100000000001,0.02747104892994101,0.02747104892994101
87.372,0.04107773932700454,0.04107773932700454
87.373,0.05474858150882489,0.05474858150882489
87.37400000000001,0.06026409128883303,0.06026409128883303
87.375,0.049921192361725764,0.049921192361725764
87.376,0.019921682468281965,0.019921682468281965
87.37700000000001,0.027312303903266888,-0.027312303903266888
87.378,0.08290007792831833,-0.08290007792831833
87.379,0.13362440930404385,-0.13362440930404385
87.38000000000001,0.16583590014529814,-0.16583590014529814
87.381,0.16987605299989061,-0.16987605299989061
87.382,0.1435011970060155,-0.1435011970060155
87.38300000000001,0.09307080426828018,-0.09307080426828018
87.384,0.031992531357102116,-0.031992531357102116
87.385,0.023157383002955223,0.023157383002955223
87.38600000000001,0.057619066072302605,0.057619066072302605
87.387,0.06292628141417356,0.06292628141417356
87.388,0.03941583255308023,0.03941583255308023
87.38900000000001,0.004042863783597861,-0.004042863783597861
87.39,0.052989533381338494,-0.052989533381338494
87.391,0.09200069614385675,-0.09200069614385675
87.39200000000001,0.10948174051833126,-0.10948174051833126
87.393,0.1010827303101417,-0.1010827303101417
87.394,0.07069057250543709,-0.07069057250543709
87.39500000000001,0.028776794530266936,-0.028776794530266936
87.396,0.011248002928301304,0.011248002928301304
87.397,0.037399663991422916,0.037399663991422916
87.39800000000001,0.04275959657638406,0.04275959657638406
87.399,0.027256696923072532,0.027256696923072532
87.4,0.0028631660812837856,-0.0028631660812837856
87.40100000000001,0.037545340708767916,-0.037545340708767916
87.402,0.06644584628740746,-0.06644584628740746
87.403,0.08222729584204791,-0.08222729584204791
87.40400000000001,0.0825609794805745,-0.0825609794805745
87.405,0.07027945350203502,-0.07027945350203502
87.406,0.05179067306749885,-0.05179067306749885
87.40700000000001,0.03444515553965244,-0.03444515553965244
87.408,0.02384860519493026,-0.02384860519493026
87.409,0.022050157715518326,-0.022050157715518326
87.41000000000001,0.027158967108501186,-0.027158967108501186
87.411,0.03440351576406009,-0.03440351576406009
87.412,0.03814782579629672,-0.03814782579629672
87.41300000000001,0.03408732304329154,-0.03408732304329154
87.414,0.020848605816524035,-0.020848605816524035
87.415,0.0004863411917588323,-0.0004863411917588323
87.41600000000001,0.022210336079433457,0.022210336079433457
87.417,0.041279943340813086,0.041279943340813086
87.418,0.05143865188060981,0.05143865188060981
87.41900000000001,0.04960377228057511,0.04960377228057511
87.42,0.03565367209968051,0.03565367209968051
87.421,0.012287791840584372,0.012287791840584372
87.42200000000001,0.015847207304292454,-0.015847207304292454
87.423,0.043401861505881656,-0.043401861505881656
87.424,0.06553667438373278,-0.06553667438373278
87.42500000000001,0.0788061613996962,-0.0788061613996962
87.426,0.08159826786100421,-0.08159826786100421
87.427,0.07418284748974135,-0.07418284748974135
87.42800000000001,0.05851257325017556,-0.05851257325017556
87.429,0.03790784859464136,-0.03790784859464136
87.43,0.016674222673906502,-0.016674222673906502
87.43100000000001,0.0003897381208981532,0.0003897381208981532
87.432,0.008669653788694331,0.008669653788694331
87.433,0.0046167018952867345,0.0046167018952867345
87.43400000000001,0.013277545285509285,-0.013277545285509285
87.435,0.04366576954925294,-0.04366576954925294
87.436,0.08201766524688436,-0.08201766524688436
87.43700000000001,0.12105778510221143,-0.12105778510221143
87.438,0.1520551197704515,-0.1520551197704515
87.43900000000001,0.16677187170468877,-0.16677187170468877
87.44000000000001,0.1596080753794865,-0.1596080753794865
87.441,0.1293255582496532,-0.1293255582496532
87.44200000000001,0.07977682925440965,-0.07977682925440965
87.44300000000001,0.01931302717199368,-0.01931302717199368
87.444,0.04106620287512275,0.04106620287512275
87.44500000000001,0.09035426862541418,0.09035426862541418
87.44600000000001,0.12022646907730561,0.12022646907730561
87.447,0.12698629408587014,0.12698629408587014
87.44800000000001,0.11219412759898706,0.11219412759898706
87.44900000000001,0.08181531192215674,0.08181531192215674
87.45,0.04419769357283054,0.04419769357283054
87.45100000000001,0.007560635705332386,0.007560635705332386
87.45200000000001,0.022182701424483753,-0.022182701424483753
87.453,0.04259101932532805,-0.04259101932532805
87.45400000000001,0.054546012058493853,-0.054546012058493853
87.45500000000001,0.06096226967705842,-0.06096226967705842
87.456,0.06493340387920976,-0.06493340387920976
87.45700000000001,0.06807786522927262,-0.06807786522927262
87.45800000000001,0.06974772484763214,-0.06974772484763214
87.459,0.06741364226554236,-0.06741364226554236
87.46000000000001,0.058068259950381895,-0.058068259950381895
87.46100000000001,0.04007377221722974,-0.04007377221722974
87.462,0.014675436582001322,-0.014675436582001322
87.46300000000001,0.013506578566349958,0.013506578566349958
87.46400000000001,0.037334871688181615,0.037334871688181615
87.465,0.04918683801513768,0.04918683801513768
87.46600000000001,0.043521665478694516,0.043521665478694516
87.46700000000001,0.019090568733294067,0.019090568733294067
87.468,0.020041123755495716,-0.020041123755495716
87.46900000000001,0.06512787412595777,-0.06512787412595777
87.47000000000001,0.10495361035952322,-0.10495361035952322
87.471,0.1289918825816173,-0.1289918825816173
87.47200000000001,0.13054002807203868,-0.13054002807203868
87.47300000000001,0.10882041335254511,-0.10882041335254511
87.474,0.06934950177297872,-0.06934950177297872
87.47500000000001,0.022422193618300668,-0.022422193618300668
87.47600000000001,0.019837321226243487,0.019837321226243487
87.477,0.04694811411466371,0.04694811411466371
87.47800000000001,0.052997122550396014,0.052997122550396014
87.47900000000001,0.03813199097104758,0.03813199097104758
87.48,0.00820800833122215,0.00820800833122215
87.48100000000001,0.02723328960396887,-0.02723328960396887
87.48200000000001,0.05795999066480617,-0.05795999066480617
87.483,0.07605233620022367,-0.07605233620022367
87.48400000000001,0.07799319071246424,-0.07799319071246424
87.48500000000001,0.06526974639946392,-0.06526974639946392
87.486,0.04341796201074566,-0.04341796201074566
87.48700000000001,0.019939183003497063,-0.019939183003497063
87.488,0.0018421205982923627,-0.0018421205982923627
87.489,0.006383281150376563,0.006383281150376563
87.49000000000001,0.003769532852879953,0.003769532852879953
87.491,0.007345018102431711,-0.007345018102431711
87.492,0.022528438254465266,-0.022528438254465266
87.49300000000001,0.036932955447156135,-0.036932955447156135
87.494,0.04681524288265426,-0.04681524288265426
87.495,0.050409972629569144,-0.050409972629569144
87.49600000000001,0.04796014433631157,-0.04796014433631157
87.497,0.04104021719214823,-0.04104021719214823
87.498,0.0315555084579624,-0.0315555084579624
87.49900000000001,0.020879053628055866,-0.020879053628055866
87.5,0.009479247697325444,-0.009479247697325444
87.501,0.002847348579698039,0.002847348579698039
87.50200000000001,0.01629296917568479,0.01629296917568479
87.503,0.03025333378783923,0.03025333378783923
87.504,0.04283251845041991,0.04283251845041991
87.50500000000001,0.05091415741047167,0.05091415741047167
87.506,0.05084783229769352,0.05084783229769352
87.507,0.03955166072261074,0.03955166072261074
87.50800000000001,0.015659084991079597,0.015659084991079597
87.509,0.019696143833145885,-0.019696143833145885
87.51,0.06274779610614334,-0.06274779610614334
87.51100000000001,0.10769070846588524,-0.10769070846588524
87.512,0.1478341210081897,-0.1478341210081897
87.513,0.17697594745739276,-0.17697594745739276
87.51400000000001,0.19061031017350671,-0.19061031017350671
87.515,0.18666540602252224,-0.18666540602252224
87.516,0.1656465493249496,-0.1656465493249496
87.51700000000001,0.13025762128234886,-0.13025762128234886
87.518,0.08471817028586404,-0.08471817028586404
87.519,0.03403468263785325,-0.03403468263785325
87.52000000000001,0.0165811282999464,0.0165811282999464
87.521,0.06208731000136902,0.06208731000136902
87.522,0.09785554217974757,0.09785554217974757
87.52300000000001,0.11993362978418665,0.11993362978418665
87.524,0.12545445497809715,0.12545445497809715
87.525,0.11320966613784411,0.11320966613784411
87.52600000000001,0.08425785398515084,0.08425785398515084
87.527,0.04231901761053414,0.04231901761053414
87.528,0.006318270135303949,-0.006318270135303949
87.52900000000001,0.05355533167786286,-0.05355533167786286
87.53,0.09088948411305875,-0.09088948411305875
87.531,0.11121517096289202,-0.11121517096289202
87.53200000000001,0.11057935450475254,-0.11057935450475254
87.533,0.08938442893572174,-0.08938442893572174
87.534,0.05262624875090394,-0.05262624875090394
87.53500000000001,0.008993768221731702,-0.008993768221731702
87.536,0.031026601533438614,0.031026601533438614
87.537,0.05760152445856881,0.05760152445856881
87.53800000000001,0.06393299654569251,0.06393299654569251
87.539,0.04794231473240762,0.04794231473240762
87.54,0.012801627610364852,0.012801627610364852
87.54100000000001,0.03383280027508262,-0.03383280027508262
87.542,0.08168201402633635,-0.08168201402633635
87.543,0.12030879374702608,-0.12030879374702608
87.54400000000001,0.14154826571092294,-0.14154826571092294
87.545,0.1413018231105051,-0.1413018231105051
87.546,0.12028608120181317,-0.12028608120181317
87.54700000000001,0.08361966243176222,-0.08361966243176222
87.548,0.039430644500045964,-0.039430644500045964
87.549,0.0031062419957543774,0.0031062419957543774
87.55000000000001,0.03579492990161892,0.03579492990161892
87.551,0.05303906048237894,0.05303906048237894
87.552,0.05274407754432331,0.05274407754432331
87.55300000000001,0.036393678023966425,0.036393678023966425
87.554,0.008395670515564557,0.008395670515564557
