Czas,AbsSum,Sum
265.773,0.12699475582629638,-0.12699475582629638
265.774,0.051872423940502066,-0.051872423940502066
265.775,0.010354962492437947,0.010354962492437947
265.77599999999995,0.0578233808598394,0.0578233808598394
265.777,0.09269765503645666,0.09269765503645666
265.778,0.11839659847166772,0.11839659847166772
265.779,0.1370023325432821,0.1370023325432821
265.78,0.14785767238464853,0.14785767238464853
265.781,0.1478254968218624,0.1478254968218624
265.782,0.13301128226889802,0.13301128226889802
265.783,0.10117859864025425,0.10117859864025425
265.784,0.053818650154158876,0.053818650154158876
265.785,0.0030411745504485,-0.0030411745504485
265.786,0.059738681314879694,-0.059738681314879694
265.787,0.10539949505424462,-0.10539949505424462
265.78799999999995,0.13111279820325794,-0.13111279820325794
265.789,0.13277859198419162,-0.13277859198419162
265.79,0.11261105322729192,-0.11261105322729192
265.791,0.07870892317332212,-0.07870892317332212
265.792,0.04274549554311213,-0.04274549554311213
265.793,0.016468019651525112,-0.016468019651525112
265.794,0.00811084943650342,-0.00811084943650342
265.795,0.01987619238980254,-0.01987619238980254
265.796,0.04730262722192369,-0.04730262722192369
265.797,0.08073560009299663,-0.08073560009299663
265.798,0.10843718366953092,-0.10843718366953092
265.799,0.12034748072122581,-0.12034748072122581
265.79999999999995,0.11130712241123286,-0.11130712241123286
265.801,0.08273087522472511,-0.08273087522472511
265.802,0.042221645577186884,-0.042221645577186884
265.803,0.0012656145474959635,-0.0012656145474959635
265.804,0.028258029425851205,0.028258029425851205
265.805,0.03767048185377275,0.03767048185377275
265.806,0.024103427838266134,0.024103427838266134
265.807,0.008632340389562732,-0.008632340389562732
265.808,0.051133352425446366,-0.051133352425446366
265.809,0.09107438374621502,-0.09107438374621502
265.81,0.11664825108978649,-0.11664825108978649
265.811,0.11977689564440475,-0.11977689564440475
265.81199999999995,0.09821260837027523,-0.09821260837027523
265.813,0.05600628246487327,-0.05600628246487327
265.814,0.0022963847704779994,-0.0022963847704779994
265.815,0.05117681649375405,0.05117681649375405
265.816,0.09312318599440972,0.09312318599440972
265.817,0.11551949766248759,0.11551949766248759
265.818,0.11550618066282436,0.11550618066282436
265.819,0.09594793830601622,0.09594793830601622
265.82,0.06457804163466152,0.06457804163466152
265.821,0.03196484847866543,0.03196484847866543
265.822,0.008778895816621501,0.008778895816621501
265.823,0.002968514184476856,0.002968514184476856
265.824,0.0174661070351374,0.0174661070351374
265.825,0.04895577774172888,0.04895577774172888
265.826,0.08805084672618513,0.08805084672618513
265.827,0.12097446080567509,0.12097446080567509
265.828,0.13253299890741488,0.13253299890741488
265.829,0.10986124134696817,0.10986124134696817
265.83,0.04616114980676134,0.04616114980676134
265.831,0.056473393638367564,-0.056473393638367564
265.832,0.1859878029189206,-0.1859878029189206
265.833,0.32160123856034295,-0.32160123856034295
265.834,0.43739355697965343,-0.43739355697965343
265.835,0.5076880064686846,-0.5076880064686846
265.836,0.5131113433828404,-0.5131113433828404
265.837,0.4458681233000571,-0.4458681233000571
265.838,0.3127765350162631,-0.3127765350162631
265.839,0.1350325208664177,-0.1350325208664177
265.84,0.05556762713960861,0.05556762713960861
265.841,0.22328849844959908,0.22328849844959908
265.842,0.3365049079483047,0.3365049079483047
265.843,0.37515045993342744,0.37515045993342744
265.844,0.3356044344115008,0.3356044344115008
265.845,0.23163906654369693,0.23163906654369693
265.846,0.09105528244151095,0.09105528244151095
265.847,0.05120533689728035,-0.05120533689728035
265.848,0.16170313279529214,-0.16170313279529214
265.849,0.21661996380665827,-0.21661996380665827
265.85,0.20720741328323677,-0.20720741328323677
265.851,0.1411586682196042,-0.1411586682196042
265.852,0.03964713076299908,-0.03964713076299908
265.853,0.06900919359076796,0.06900919359076796
265.854,0.15717577286524076,0.15717577286524076
265.855,0.20498451163010234,0.20498451163010234
265.856,0.2047446926801202,0.2047446926801202
265.857,0.1616257634906253,0.1616257634906253
265.858,0.09070800833144355,0.09070800833144355
265.859,0.011568784631763585,0.011568784631763585
265.86,0.05776624040073963,-0.05776624040073963
265.861,0.10561744180380939,-0.10561744180380939
265.862,0.12883852154516984,-0.12883852154516984
265.863,0.13198081492277214,-0.13198081492277214
265.864,0.12403500861687411,-0.12403500861687411
265.865,0.11411017778206978,-0.11411017778206978
265.866,0.1076719708234416,-0.1076719708234416
265.867,0.10465867938347184,-0.10465867938347184
265.868,0.1000504000175092,-0.1000504000175092
265.869,0.08655282311712154,-0.08655282311712154
265.87,0.058294662415780074,-0.058294662415780074
265.871,0.014088091303828376,-0.014088091303828376
265.872,0.04102165106549327,0.04102165106549327
265.873,0.09655933777004089,0.09655933777004089
265.874,0.13955903280215587,0.13955903280215587
265.875,0.15864360917278764,0.15864360917278764
265.876,0.147822786751167,0.147822786751167
265.877,0.10866513186337512,0.10866513186337512
265.878,0.05005200168229096,0.05005200168229096
265.879,0.014444442415147307,-0.014444442415147307
265.88,0.0706931852882654,-0.0706931852882654
265.881,0.10825487562879799,-0.10825487562879799
265.882,0.12331654546060122,-0.12331654546060122
265.883,0.11933167939600398,-0.11933167939600398
265.884,0.10518319691709055,-0.10518319691709055
265.885,0.09154768912212008,-0.09154768912212008
265.886,0.0867647756981389,-0.0867647756981389
265.887,0.09368696806277343,-0.09368696806277343
265.888,0.10864113350692373,-0.10864113350692373
265.889,0.12288961125034203,-0.12288961125034203
265.89,0.12609331653332057,-0.12609331653332057
265.891,0.11055794495117066,-0.11055794495117066
265.892,0.07474006979591707,-0.07474006979591707
265.893,0.024712839152735366,-0.024712839152735366
265.894,0.027029429640962332,0.027029429640962332
265.895,0.06514048535845451,0.06514048535845451
265.896,0.07625030428119017,0.07625030428119017
265.897,0.05347403461960276,0.05347403461960276
265.898,0.0009129795679921893,-0.0009129795679921893
265.899,0.07557406608724149,-0.07557406608724149
265.9,0.153026623257153,-0.153026623257153
265.90099999999995,0.21449552120757842,-0.21449552120757842
265.902,0.24518911675115762,-0.24518911675115762
265.903,0.23834344335994317,-0.23834344335994317
265.904,0.1967856572721799,-0.1967856572721799
265.905,0.13158210872771425,-0.13158210872771425
265.906,0.05828689929243591,-0.05828689929243591
265.907,0.007923979547326931,0.007923979547326931
265.908,0.05661534326209394,0.05661534326209394
265.909,0.08454673426811077,0.08454673426811077
265.91,0.09549247255342652,0.09549247255342652
265.911,0.09761836850791927,0.09761836850791927
265.912,0.09944448819913787,0.09944448819913787
265.91299999999995,0.10590055071844096,0.10590055071844096
265.914,0.11593426973406706,0.11593426973406706
265.915,0.12257913630883244,0.12257913630883244
265.916,0.11551509981473806,0.11551509981473806
265.917,0.08526076317846076,0.08526076317846076
265.918,0.027525546587930272,0.027525546587930272
265.919,0.053862908662862585,-0.053862908662862585
265.92,0.1466107607222984,-0.1466107607222984
265.921,0.23250699859397383,-0.23250699859397383
265.922,0.29221727883779836,-0.29221727883779836
265.923,0.31088968307852594,-0.31088968307852594
265.924,0.2828107242087078,-0.2828107242087078
265.92499999999995,0.21358947574988796,-0.21358947574988796
265.926,0.11908653118447932,-0.11908653118447932
265.927,0.021309897652065146,-0.021309897652065146
265.928,0.057549012593505866,0.057549012593505866
265.929,0.10117426380039185,0.10117426380039185
265.93,0.1034715001273474,0.1034715001273474
265.931,0.06991440838164276,0.06991440838164276
265.932,0.015523388237206781,0.015523388237206781
265.933,0.039865952881660616,-0.039865952881660616
265.934,0.0775761092835695,-0.0775761092835695
265.935,0.08548885524285799,-0.08548885524285799
265.936,0.061279633789804944,-0.061279633789804944
265.93699999999995,0.012594614895698797,-0.012594614895698797
265.938,0.045761918786286326,0.045761918786286326
265.939,0.0966549006599211,0.0966549006599211
265.94,0.12590983706791725,0.12590983706791725
265.941,0.12644138150954132,0.12644138150954132
265.942,0.10002123751414715,0.10002123751414715
265.943,0.056267814283220696,0.056267814283220696
265.944,0.009313300128524382,0.009313300128524382
265.945,0.026707225653576416,-0.026707225653576416
265.946,0.041902288633598794,-0.041902288633598794
265.947,0.033330798923878135,-0.033330798923878135
265.948,0.005448039481738887,-0.005448039481738887
265.949,0.0316855698635603,0.0316855698635603
265.95,0.06572138757837731,0.06572138757837731
265.951,0.08573729253166595,0.08573729253166595
265.952,0.08519266938223025,0.08519266938223025
265.953,0.06330563053802507,0.06330563053802507
265.954,0.024606843724549465,0.024606843724549465
265.955,0.02297456034055534,-0.02297456034055534
265.956,0.07070777882881585,-0.07070777882881585
265.957,0.11142570331168511,-0.11142570331168511
265.958,0.14093601134249256,-0.14093601134249256
265.959,0.15817542007999275,-0.15817542007999275
265.96,0.16428952051840007,-0.16428952051840007
265.961,0.16119348694204738,-0.16119348694204738
265.962,0.15030275801631243,-0.15030275801631243
265.963,0.13198278995135082,-0.13198278995135082
265.964,0.10591926621484327,-0.10591926621484327
265.965,0.07219443449994167,-0.07219443449994167
265.966,0.03253256288504669,-0.03253256288504669
265.967,0.008928344239142794,0.008928344239142794
265.968,0.04582803695997195,0.04582803695997195
265.969,0.07086906970831164,0.07086906970831164
265.97,0.0778908046114768,0.0778908046114768
265.971,0.06407679863223703,0.06407679863223703
265.972,0.03150611969731054,0.03150611969731054
265.973,0.012598579039669877,-0.012598579039669877
265.974,0.05719138434572113,-0.05719138434572113
265.975,0.09005585939056215,-0.09005585939056215
265.976,0.10109852957376897,-0.10109852957376897
265.977,0.0853347767972712,-0.0853347767972712
265.978,0.044652215398810924,-0.044652215398810924
265.979,0.012241673074253612,0.012241673074253612
265.98,0.07176532845661576,0.07176532845661576
265.981,0.11882728355125916,0.11882728355125916
265.982,0.14071245908669283,0.14071245908669283
265.983,0.1304321039350096,0.1304321039350096
265.984,0.08862292146427597,0.08862292146427597
265.985,0.02348528932603,0.02348528932603
265.986,0.051207290408371686,-0.051207290408371686
265.987,0.11947477181629929,-0.11947477181629929
265.988,0.16696870722250468,-0.16696870722250468
265.989,0.18428647509441876,-0.18428647509441876
265.99,0.168948225729027,-0.168948225729027
265.991,0.12561253342403667,-0.12561253342403667
265.992,0.0645836096487078,-0.0645836096487078
265.993,0.0009078817678456197,0.0009078817678456197
265.994,0.05789775608962544,0.05789775608962544
265.995,0.09654786464277465,0.09654786464277465
265.996,0.11202030508444283,0.11202030508444283
265.997,0.10501722901331134,0.10501722901331134
265.998,0.0809941200603197,0.0809941200603197
265.999,0.048369106701641185,0.048369106701641185
266.0,0.0162506234286226,0.0162506234286226
266.001,0.00774293174499141,-0.00774293174499141
266.002,0.019086708747229175,-0.019086708747229175
266.003,0.017079282876954593,-0.017079282876954593
266.004,0.0046316957416805415,-0.0046316957416805415
266.005,0.012737738411799704,0.012737738411799704
266.006,0.028402093322709154,0.028402093322709154
266.007,0.03624606514171225,0.03624606514171225
266.008,0.032050200936069695,0.032050200936069695
266.009,0.01436669607450547,0.01436669607450547
266.01,0.015255125916129542,-0.015255125916129542
266.011,0.05268967401100666,-0.05268967401100666
266.012,0.09216644627793491,-0.09216644627793491
266.013,0.12748246057452217,-0.12748246057452217
266.014,0.153226871391688,-0.153226871391688
266.015,0.16576828870214722,-0.16576828870214722
266.016,0.1638260952054863,-0.1638260952054863
266.017,0.148550529972311,-0.148550529972311
266.018,0.12314648363349523,-0.12314648363349523
266.019,0.09216595815414752,-0.09216595815414752
266.02,0.06064365012664141,-0.06064365012664141
266.021,0.033251404608571455,-0.033251404608571455
266.022,0.013607576250753928,-0.013607576250753928
266.023,0.0038159972591458313,-0.0038159972591458313
266.024,0.004250445337044884,-0.004250445337044884
266.025,0.013563710131419326,-0.013563710131419326
266.02599999999995,0.02889250092216733,-0.02889250092216733
266.027,0.04624206147660759,-0.04624206147660759
266.028,0.06104752550704351,-0.06104752550704351
266.029,0.0689009744944381,-0.0689009744944381
266.03,0.06639187917021638,-0.06639187917021638
266.031,0.05194059077993829,-0.05194059077993829
266.032,0.026435874964537698,-0.026435874964537698
266.033,0.006544265773083868,0.006544265773083868
266.034,0.041110282771375184,0.041110282771375184
266.035,0.07009649901144677,0.07009649901144677
266.036,0.08662670485128454,0.08662670485128454
266.037,0.08588337155518122,0.08588337155518122
266.03799999999995,0.06661345233933291,0.06661345233933291
266.039,0.0318873088610625,0.0318873088610625
266.04,0.011231641782598167,-0.011231641782598167
266.041,0.05316813636085105,-0.05316813636085105
266.042,0.0841797219366962,-0.0841797219366962
266.043,0.09696852745687934,-0.09696852745687934
266.044,0.08880610832632796,-0.08880610832632796
266.045,0.062485218235149076,-0.062485218235149076
266.046,0.02571182823133189,-0.02571182823133189
266.047,0.010991650437393252,0.010991650437393252
266.048,0.037321598774699316,0.037321598774699316
266.049,0.04627407288507657,0.04627407288507657
266.04999999999995,0.036300784233854744,0.036300784233854744
266.051,0.011805906668375998,0.011805906668375998
266.052,0.018253914107428604,-0.018253914107428604
266.053,0.04329411040277764,-0.04329411040277764
266.054,0.05465348365799971,-0.05465348365799971
266.055,0.04861666158382916,-0.04861666158382916
266.056,0.02786732863424668,-0.02786732863424668
266.057,0.0008047387388085969,-0.0008047387388085969
266.058,0.021151905646290103,0.021151905646290103
266.059,0.027457559052030733,0.027457559052030733
266.06,0.012268754045773766,0.012268754045773766
266.061,0.02310788128962138,-0.02310788128962138
266.06199999999995,0.07006274982460592,-0.07006274982460592
266.063,0.11501572835407203,-0.11501572835407203
266.064,0.14359463764773084,-0.14359463764773084
266.065,0.14536530448747642,-0.14536530448747642
266.066,0.11756706456057808,-0.11756706456057808
266.067,0.06656228992060853,-0.06656228992060853
266.068,0.006405617374276029,-0.006405617374276029
266.069,0.04513808007295639,0.04513808007295639
266.07,0.07194862767231291,0.07194862767231291
266.071,0.06461038814433273,0.06461038814433273
266.072,0.023552672851391954,0.023552672851391954
266.073,0.04077687994790968,-0.04077687994790968
266.074,0.11082236867646722,-0.11082236867646722
266.075,0.16704459657654425,-0.16704459657654425
266.076,0.19367754276151028,-0.19367754276151028
266.077,0.18332631491985707,-0.18332631491985707
266.078,0.13898925605672696,-0.13898925605672696
266.079,0.07291719059766144,-0.07291719059766144
266.08,0.0027359761925201953,-0.0027359761925201953
266.081,0.05388100557791975,0.05388100557791975
266.082,0.08427890726519283,0.08427890726519283
266.083,0.08405948119329154,0.08405948119329154
266.084,0.057580021841100004,0.057580021841100004
266.085,0.015736388304242954,0.015736388304242954
266.086,0.02805616610506323,-0.02805616610506323
266.087,0.0622257263961119,-0.0622257263961119
266.088,0.08026868892752925,-0.08026868892752925
266.089,0.08184659017022133,-0.08184659017022133
266.09,0.07158056223850429,-0.07158056223850429
266.091,0.05621099231984228,-0.05621099231984228
266.092,0.04135427608936315,-0.04135427608936315
266.093,0.02917693200012106,-0.02917693200012106
266.094,0.017896459130609665,-0.017896459130609665
266.095,0.0032673837352332757,-0.0032673837352332757
266.096,0.018596614152574853,0.018596614152574853
266.097,0.048273331286593946,0.048273331286593946
266.098,0.0812618811835144,0.0812618811835144
266.099,0.10828862718185506,0.10828862718185506
266.1,0.11781173220070351,0.11781173220070351
266.101,0.09998792338951135,0.09998792338951135
266.102,0.0507394498506375,0.0507394498506375
266.103,0.025592700466156137,-0.025592700466156137
266.104,0.11612725138611979,-0.11612725138611979
266.105,0.20214885895841128,-0.20214885895841128
266.106,0.2639690153948271,-0.2639690153948271
266.107,0.28649027221799206,-0.28649027221799206
266.108,0.2637139270959349,-0.2637139270959349
266.109,0.2007124399901009,-0.2007124399901009
266.11,0.11237488180307231,-0.11237488180307231
266.111,0.019266376335264623,-0.019266376335264623
266.112,0.05812687194016308,0.05812687194016308
266.113,0.10498139958746222,0.10498139958746222
266.114,0.11583876206290866,0.11583876206290866
266.115,0.09535103723938287,0.09535103723938287
266.116,0.05596971393378869,0.05596971393378869
266.117,0.013460791016910001,0.013460791016910001
266.118,0.01821102013332976,-0.01821102013332976
266.119,0.030961496806298672,-0.030961496806298672
266.12,0.024397204004315,-0.024397204004315
266.121,0.004950906913787079,-0.004950906913787079
266.122,0.017144701114923055,0.017144701114923055
266.123,0.03183986823438256,0.03183986823438256
266.124,0.03276652024958526,0.03276652024958526
266.125,0.019092282908187208,0.019092282908187208
266.126,0.00476055195278291,-0.00476055195278291
266.127,0.031221162860227025,-0.031221162860227025
266.128,0.05255734322988015,-0.05255734322988015
266.129,0.06355507071483057,-0.06355507071483057
266.13,0.0629180653192637,-0.0629180653192637
266.131,0.0529881918650249,-0.0529881918650249
266.132,0.038083122673451264,-0.038083122673451264
266.133,0.022290597205765317,-0.022290597205765317
266.134,0.007739091303722412,-0.007739091303722412
266.135,0.005882427798156398,0.005882427798156398
266.136,0.020354046080881094,0.020354046080881094
266.137,0.036964742130728645,0.036964742130728645
266.138,0.054506169790351056,0.054506169790351056
266.139,0.06826150709941636,0.06826150709941636
266.14,0.07068536539253234,0.07068536539253234
266.141,0.05379980958228092,0.05379980958228092
266.142,0.01258614006800074,0.01258614006800074
266.143,0.051873978548366284,-0.051873978548366284
266.144,0.13083612224090035,-0.13083612224090035
266.145,0.20880744440662402,-0.20880744440662402
266.146,0.2670172193208493,-0.2670172193208493
266.147,0.288593035011809,-0.288593035011809
266.148,0.26388568818971503,-0.26388568818971503
266.149,0.19417594359867096,-0.19417594359867096
266.15,0.0923912106060526,-0.0923912106060526
266.15099999999995,0.01964275284249717,0.01964275284249717
266.152,0.11677624515766039,0.11677624515766039
266.153,0.17734076100899832,0.17734076100899832
266.154,0.18912391193380507,0.18912391193380507
266.155,0.15265387037101386,0.15265387037101386
266.156,0.08075168508789532,0.08075168508789532
266.157,0.00551429355228672,-0.00551429355228672
266.158,0.08319167804986716,-0.08319167804986716
266.159,0.13411153167563195,-0.13411153167563195
266.16,0.1497730925350994,-0.1497730925350994
266.161,0.1329705001938447,-0.1329705001938447
266.162,0.09577722104988229,-0.09577722104988229
266.16299999999995,0.05470584485240604,-0.05470584485240604
266.164,0.02476935877813491,-0.02476935877813491
266.165,0.014482104034592602,-0.014482104034592602
266.166,0.023456537718756,-0.023456537718756
266.167,0.04331519646036952,-0.04331519646036952
266.168,0.06147347771984357,-0.06147347771984357
266.169,0.06635989662090169,-0.06635989662090169
266.17,0.05216389716553016,-0.05216389716553016
266.171,0.021394883419917243,-0.021394883419917243
266.172,0.015674686340042765,0.015674686340042765
266.173,0.044503543859176986,0.044503543859176986
266.174,0.051497609007930434,0.051497609007930434
266.17499999999995,0.029121868158383357,0.029121868158383357
266.176,0.02089372903420139,-0.02089372903420139
266.177,0.08741040632885999,-0.08741040632885999
266.178,0.15291302491618064,-0.15291302491618064
266.179,0.19875465062821374,-0.19875465062821374
266.18,0.21090151283541192,-0.21090151283541192
266.181,0.1843006611154666,-0.1843006611154666
266.182,0.12445749631096859,-0.12445749631096859
266.183,0.04574068632726125,-0.04574068632726125
266.184,0.03299231829777205,0.03299231829777205
266.185,0.09399793982412818,0.09399793982412818
266.186,0.1256676450786791,0.1256676450786791
266.18699999999995,0.12540610591302515,0.12540610591302515
266.188,0.09955953228328895,0.09955953228328895
266.189,0.060581028896711686,0.060581028896711686
266.19,0.022512498716936724,0.022512498716936724
266.191,0.0036406317425448087,-0.0036406317425448087
266.192,0.013116046789274471,-0.013116046789274471
266.193,0.008215351859346742,-0.008215351859346742
266.194,0.0033709543748305926,0.0033709543748305926
266.195,0.011991602035597237,0.011991602035597237
266.196,0.009914306730906208,0.009914306730906208
266.197,0.005731071071027993,-0.005731071071027993
266.198,0.031939568620869885,-0.031939568620869885
266.199,0.06102186426419587,-0.06102186426419587
266.2,0.08348819767351301,-0.08348819767351301
266.201,0.0915403167339327,-0.0915403167339327
266.202,0.0819116260500945,-0.0819116260500945
266.203,0.057066234724595155,-0.057066234724595155
266.204,0.024373083242439364,-0.024373083242439364
266.205,0.006410138660522424,0.006410138660522424
266.206,0.02642985592725955,0.02642985592725955
266.207,0.03064934430407229,0.03064934430407229
266.208,0.01938884066158364,0.01938884066158364
266.209,0.0019977897155776247,-0.0019977897155776247
266.21,0.025145970195843748,-0.025145970195843748
266.211,0.041661640742337025,-0.041661640742337025
266.212,0.04601470913879813,-0.04601470913879813
266.213,0.037361110054276,-0.037361110054276
266.214,0.019705100250867025,-0.019705100250867025
266.215,0.0003946722840114658,-0.0003946722840114658
266.216,0.012494042673050432,0.012494042673050432
266.217,0.012972482805749364,0.012972482805749364
266.218,0.0007913396011482998,-0.0007913396011482998
266.219,0.025815764586573864,-0.025815764586573864
266.22,0.05523502796358981,-0.05523502796358981
266.221,0.08046407808850675,-0.08046407808850675
266.222,0.0938622076855552,-0.0938622076855552
266.223,0.09103445739229421,-0.09103445739229421
266.224,0.07207140243039145,-0.07207140243039145
266.225,0.04140460328903883,-0.04140460328903883
266.226,0.0064086768318879495,-0.0064086768318879495
266.227,0.024742149154256765,0.024742149154256765
266.228,0.04527149258953167,0.04527149258953167
266.229,0.05141297937214184,0.05141297937214184
266.23,0.04304589721216967,0.04304589721216967
266.231,0.023305161030381827,0.023305161030381827
266.232,0.0025710705870144457,-0.0025710705870144457
266.233,0.028709943037683594,-0.028709943037683594
266.234,0.04993318910081568,-0.04993318910081568
266.235,0.06263363981724801,-0.06263363981724801
266.236,0.06510444736732535,-0.06510444736732535
266.237,0.05742930143095992,-0.05742930143095992
266.238,0.04115314847594209,-0.04115314847594209
266.239,0.018942645331739505,-0.018942645331739505
266.24,0.005662556023230847,0.005662556023230847
266.241,0.02844871700287599,0.02844871700287599
266.242,0.04481895040345685,0.04481895040345685
266.243,0.05032326013721278,0.05032326013721278
266.244,0.041474458315738705,0.041474458315738705
266.245,0.01673027004586425,0.01673027004586425
266.246,0.022637210939728813,-0.022637210939728813
266.247,0.07213734618676748,-0.07213734618676748
266.248,0.12441309662796995,-0.12441309662796995
266.249,0.17044440729286714,-0.17044440729286714
266.25,0.2014228385384026,-0.2014228385384026
266.251,0.21085722897632897,-0.21085722897632897
266.252,0.19632323431220944,-0.19632323431220944
266.253,0.1603029881354917,-0.1603029881354917
266.254,0.10978320954055443,-0.10978320954055443
266.255,0.05463304044978046,-0.05463304044978046
266.256,0.005158773223937763,-0.005158773223937763
266.257,0.030492039707390672,0.030492039707390672
266.258,0.04832693944425226,0.04832693944425226
266.259,0.04931135196151004,0.04931135196151004
266.26,0.03873371060254005,0.03873371060254005
266.261,0.024326681679088358,0.024326681679088358
266.262,0.013725465313209506,0.013725465313209506
266.263,0.01205437550897237,0.01205437550897237
266.264,0.02039452679269238,0.02039452679269238
266.265,0.035606560327652526,0.035606560327652526
266.266,0.05154977662536142,0.05154977662536142
266.267,0.06129117126601291,0.06129117126601291
266.268,0.05957973070658773,0.05957973070658773
266.269,0.04477689914251526,0.04477689914251526
266.27,0.019611545626654348,0.019611545626654348
266.271,0.009490488687890819,-0.009490488687890819
266.272,0.03429083921136422,-0.03429083921136422
266.273,0.04723563455869917,-0.04723563455869917
266.274,0.043772116678044704,-0.043772116678044704
266.275,0.023759863679102766,-0.023759863679102766
266.27599999999995,0.008446280227055514,0.008446280227055514
266.277,0.045231275962741346,0.045231275962741346
266.278,0.07784422750927522,0.07784422750927522
266.279,0.09871865671214963,0.09871865671214963
266.28,0.10326973662789918,0.10326973662789918
266.281,0.0906650329231391,0.0906650329231391
266.282,0.06344099484463062,0.06344099484463062
266.283,0.02623755775389891,0.02623755775389891
266.284,0.01579487940522284,-0.01579487940522284
266.285,0.0582970751479448,-0.0582970751479448
266.286,0.09826399861829593,-0.09826399861829593
266.287,0.1337628201611134,-0.1337628201611134
266.28799999999995,0.1630771160456752,-0.1630771160456752
266.289,0.183814948743654,-0.183814948743654
266.29,0.19256290160463063,-0.19256290160463063
266.291,0.18546075945499663,-0.18546075945499663
266.292,0.15967832728887188,-0.15967832728887188
266.293,0.11533937024898544,-0.11533937024898544
266.294,0.05712843954370095,-0.05712843954370095
266.295,0.005228454741875721,0.005228454741875721
266.296,0.058148435735166704,0.058148435735166704
266.297,0.08705807051382886,0.08705807051382886
266.298,0.08034367827865907,0.08034367827865907
266.299,0.03329317998423509,0.03329317998423509
266.29999999999995,0.04924825055367421,-0.04924825055367421
266.301,0.15256172121677458,-0.15256172121677458
266.302,0.25452665537779207,-0.25452665537779207
266.303,0.33051068176874077,-0.33051068176874077
266.304,0.35951949662272475,-0.35951949662272475
266.305,0.3299522798285046,-0.3299522798285046
266.306,0.2432842408886825,-0.2432842408886825
266.307,0.11448738917497225,-0.11448738917497225
266.308,0.031117615406124344,0.031117615406124344
266.309,0.1638642844378584,0.1638642844378584
266.31,0.25703110949051133,0.25703110949051133
266.311,0.2934380625074411,0.2934380625074411
266.31199999999995,0.26952795548824615,0.26952795548824615
266.313,0.19581456526311403,0.19581456526311403
266.314,0.09361867727120154,0.09361867727120154
266.315,0.010923222668616117,-0.010923222668616117
266.316,0.09382745771914636,-0.09382745771914636
266.317,0.13922253948870356,-0.13922253948870356
266.318,0.1426725597958074,-0.1426725597958074
266.319,0.11107375862670765,-0.11107375862670765
266.32,0.05938001416845595,-0.05938001416845595
266.321,0.005342907679517728,-0.005342907679517728
266.322,0.03601854213008515,0.03601854213008515
266.323,0.05652518767404957,0.05652518767404957
266.324,0.056374294282913295,0.056374294282913295
266.325,0.04283385166345166,0.04283385166345166
266.326,0.026738840023684984,0.026738840023684984
266.327,0.018095277894995654,0.018095277894995654
266.328,0.02230548965669721,0.02230548965669721
266.329,0.03823659192970341,0.03823659192970341
266.33,0.058682542998516274,0.058682542998516274
266.331,0.07295544622256123,0.07295544622256123
266.332,0.07065678477794424,0.07065678477794424
266.333,0.045340465961823506,0.045340465961823506
266.334,0.003121523356143796,-0.003121523356143796
266.335,0.06818109857775301,-0.06818109857775301
266.336,0.13829478157777642,-0.13829478157777642
266.337,0.20002984036717264,-0.20002984036717264
266.338,0.24158106039538418,-0.24158106039538418
266.339,0.2556373589723452,-0.2556373589723452
266.34,0.24083246939457958,-0.24083246939457958
266.341,0.20152214271196134,-0.20152214271196134
266.342,0.14616306244802935,-0.14616306244802935
266.343,0.08494657284030926,-0.08494657284030926
266.344,0.027455372206627304,-0.027455372206627304
266.345,0.019041041782451806,0.019041041782451806
266.346,0.05036500610644867,0.05036500610644867
266.347,0.06535656938652457,0.06535656938652457
266.348,0.06527310229527439,0.06527310229527439
266.349,0.053055307839664945,0.053055307839664945
266.35,0.03273621957704398,0.03273621957704398
266.351,0.009052544310159227,0.009052544310159227
266.352,0.01288253115387783,-0.01288253115387783
266.353,0.028066761720733857,-0.028066761720733857
266.354,0.03239749646456358,-0.03239749646456358
266.355,0.023696986393953012,-0.023696986393953012
266.356,0.0026791953401399393,-0.0026791953401399393
266.357,0.026572446779717263,0.026572446779717263
266.358,0.05699983541517373,0.05699983541517373
266.359,0.07997840713730708,0.07997840713730708
266.36,0.08751478251525135,0.08751478251525135
266.361,0.07465869795748703,0.07465869795748703
266.362,0.04136411333873036,0.04136411333873036
266.363,0.006895265081977131,-0.006895265081977131
266.364,0.060113739249867404,-0.060113739249867404
266.365,0.10619562986367115,-0.10619562986367115
266.366,0.13419733938353795,-0.13419733938353795
266.367,0.13739669824795397,-0.13739669824795397
266.368,0.11521441211048311,-0.11521441211048311
266.369,0.0733476940675587,-0.0733476940675587
266.37,0.02204811060008094,-0.02204811060008094
266.371,0.02690837124994716,0.02690837124994716
266.372,0.06356874852872463,0.06356874852872463
266.373,0.08237185701973782,0.08237185701973782
266.374,0.08312089969175984,0.08312089969175984
266.375,0.07011180268032247,0.07011180268032247
266.376,0.04983063424719947,0.04983063424719947
266.377,0.02814559353729207,0.02814559353729207
266.378,0.008091269928989675,0.008091269928989675
266.379,0.010895388518163962,-0.010895388518163962
266.38,0.03199625604584855,-0.03199625604584855
266.381,0.05869149312780675,-0.05869149312780675
266.382,0.09205572568704257,-0.09205572568704257
266.383,0.12883472459282663,-0.12883472459282663
266.384,0.16122730428409016,-0.16122730428409016
266.385,0.17868477031135976,-0.17868477031135976
266.386,0.17126883324359388,-0.17126883324359388
266.387,0.1334616757586936,-0.1334616757586936
266.388,0.06704834380773739,-0.06704834380773739
266.389,0.01808619902393005,0.01808619902393005
266.39,0.10574097978854136,0.10574097978854136
266.391,0.17737773941682322,0.17737773941682322
266.392,0.2171168476167038,0.2171168476167038
266.393,0.21616148925658352,0.21616148925658352
266.394,0.17519326014154157,0.17519326014154157
266.395,0.10393028970340756,0.10393028970340756
266.396,0.017988350512198492,0.017988350512198492
266.397,0.06589382178850789,-0.06589382178850789
266.398,0.1346409427586317,-0.1346409427586317
266.399,0.1820198212620726,-0.1820198212620726
266.4,0.2091728471442087,-0.2091728471442087
266.40099999999995,0.22243022847171368,-0.22243022847171368
266.402,0.22932439994681908,-0.22932439994681908
266.403,0.23440405364010497,-0.23440405364010497
266.404,0.2365387538125837,-0.2365387538125837
266.405,0.2288676411780064,-0.2288676411780064
266.406,0.20155598074973158,-0.20155598074973158
266.407,0.1464312796587226,-0.1464312796587226
266.408,0.06177615994235086,-0.06177615994235086
266.409,0.04463576759431476,0.04463576759431476
266.41,0.15566377353664462,0.15566377353664462
266.411,0.24842575499270936,0.24842575499270936
266.412,0.30051498718489,0.30051498718489
266.41299999999995,0.2968929956007882,0.2968929956007882
266.414,0.23515946630213658,0.23515946630213658
266.415,0.12730159527397467,0.12730159527397467
266.416,0.0028925380396579436,-0.0028925380396579436
266.417,0.12615696233347828,-0.12615696233347828
266.418,0.21593606811160937,-0.21593606811160937
266.419,0.2558812943737251,-0.2558812943737251
266.42,0.2442526061654735,-0.2442526061654735
266.421,0.19378452674590485,-0.19378452674590485
266.422,0.12704277099019246,-0.12704277099019246
266.423,0.0687806337557787,-0.0687806337557787
266.424,0.03780315240674459,-0.03780315240674459
266.42499999999995,0.04101731679323661,-0.04101731679323661
266.426,0.07162092909835804,-0.07162092909835804
266.427,0.11199755210803108,-0.11199755210803108
266.428,0.1403031763525986,-0.1403031763525986
266.429,0.13848525623466656,-0.13848525623466656
266.43,0.09898936288194593,-0.09898936288194593
266.431,0.027850152885235624,-0.027850152885235624
266.432,0.056914777204964295,0.056914777204964295
266.433,0.1310987753743842,0.1310987753743842
266.434,0.17235593753042777,0.17235593753042777
266.435,0.16780169150110757,0.16780169150110757
266.436,0.11859594941784124,0.11859594941784124
266.43699999999995,0.039941060777675785,0.039941060777675785
266.438,0.043547139688882686,-0.043547139688882686
266.439,0.10559881479816913,-0.10559881479816913
266.44,0.12664849815713486,-0.12664849815713486
266.441,0.1000706444238092,-0.1000706444238092
266.442,0.034281835136065864,-0.034281835136065864
266.443,0.04993452139090104,0.04993452139090104
266.444,0.1259654401737187,0.1259654401737187
266.445,0.16961827293960074,0.16961827293960074
266.446,0.1664278891158899,0.1664278891158899
266.447,0.11573856901984714,0.11573856901984714
266.448,0.03038516200691399,0.03038516200691399
266.449,0.06774614840510651,-0.06774614840510651
266.45,0.15468394187742684,-0.15468394187742684
266.451,0.21152965725768724,-0.21152965725768724
266.452,0.2295280328760404,-0.2295280328760404
266.453,0.21157258555833747,-0.21157258555833747
266.454,0.1699201085313231,-0.1699201085313231
266.455,0.12115036591924011,-0.12115036591924011
266.456,0.08025560825712708,-0.08025560825712708
266.457,0.05591173680292982,-0.05591173680292982
266.458,0.048444079883403934,-0.048444079883403934
266.459,0.050973281845249074,-0.050973281845249074
266.46,0.05308700350825324,-0.05308700350825324
266.461,0.04553069605477478,-0.04553069605477478
266.462,0.024129872094694416,-0.024129872094694416
266.463,0.008478557628477157,0.008478557628477157
266.464,0.04387119849722865,0.04387119849722865
266.465,0.07115657314203938,0.07115657314203938
266.466,0.08129557423977518,0.08129557423977518
266.467,0.07079176591278391,0.07079176591278391
266.468,0.04337431099253464,0.04337431099253464
266.469,0.009041469056191964,0.009041469056191964
266.47,0.01920814244691016,-0.01920814244691016
266.471,0.02980119188096708,-0.02980119188096708
266.472,0.016611006624969504,-0.016611006624969504
266.473,0.01883397337891979,0.01883397337891979
266.474,0.0677158160294391,0.0677158160294391
266.475,0.11672182130730802,0.11672182130730802
266.476,0.15228141384733074,0.15228141384733074
266.477,0.1647748304585297,0.1647748304585297
266.478,0.1512817356690812,0.1512817356690812
266.479,0.11597610218003829,0.11597610218003829
266.48,0.06811483316146516,0.06811483316146516
266.481,0.018412168940742157,0.018412168940742157
266.482,0.024856140935128668,-0.024856140935128668
266.483,0.05860510034484956,-0.05860510034484956
266.484,0.08556627550443618,-0.08556627550443618
266.485,0.11257962103994257,-0.11257962103994257
266.486,0.14718899798186336,-0.14718899798186336
266.487,0.19379774726370969,-0.19379774726370969
266.488,0.2508173748826483,-0.2508173748826483
266.489,0.3099158765068415,-0.3099158765068415
266.49,0.3577550138743294,-0.3577550138743294
266.491,0.379744118108047,-0.379744118108047
266.492,0.3646264237260872,-0.3646264237260872
266.493,0.30839526784296967,-0.30839526784296967
266.494,0.21622089231372477,-0.21622089231372477
266.495,0.10169409234811733,-0.10169409234811733
266.496,0.016446923599730434,0.016446923599730434
266.497,0.11912976685861199,0.11912976685861199
266.498,0.19183010102505538,0.19183010102505538
266.499,0.22803347283719022,0.22803347283719022
266.5,0.23024789451283056,0.23024789451283056
266.501,0.20832428952499127,0.20832428952499127
266.502,0.17569587747342097,0.17569587747342097
266.503,0.1447934714181256,0.1447934714181256
266.504,0.12312653653674355,0.12312653653674355
266.505,0.1112709289187992,0.1112709289187992
266.506,0.10336072494579351,0.10336072494579351
266.507,0.08985594884259851,0.08985594884259851
266.508,0.06161774480490867,0.06161774480490867
266.509,0.013903579652640774,0.013903579652640774
266.51,0.0510727221365751,-0.0510727221365751
266.511,0.12390347428807202,-0.12390347428807202
266.512,0.19020952833021598,-0.19020952833021598
266.513,0.23466827515809674,-0.23466827515809674
266.514,0.24560986150819653,-0.24560986150819653
266.515,0.21875115151396674,-0.21875115151396674
266.516,0.15889094645681834,-0.15889094645681834
266.517,0.07900816098129104,-0.07900816098129104
266.518,0.003007525858387705,0.003007525858387705
266.519,0.06904960804028071,0.06904960804028071
266.52,0.1055486290303369,0.1055486290303369
266.521,0.10691557295913312,0.10691557295913312
266.522,0.07670938923350201,0.07670938923350201
266.523,0.02624889085201154,0.02624889085201154
266.524,0.02885736985767351,-0.02885736985767351
266.525,0.0731970764258073,-0.0731970764258073
266.52599999999995,0.09573206477096463,-0.09573206477096463
266.527,0.09248900395392246,-0.09248900395392246
266.528,0.06707408008761095,-0.06707408008761095
266.529,0.028998463804343344,-0.028998463804343344
266.53,0.009550147734079806,0.009550147734079806
266.531,0.03742997720414909,0.03742997720414909
266.532,0.047621780649889756,0.047621780649889756
266.533,0.03879410966279728,0.03879410966279728
266.534,0.01501836607795104,0.01501836607795104
266.535,0.01610395261854114,-0.01610395261854114
266.536,0.04615859709650316,-0.04615859709650316
266.537,0.06852613192543522,-0.06852613192543522
266.53799999999995,0.08004021243411974,-0.08004021243411974
266.539,0.08124515953078637,-0.08124515953078637
266.54,0.0753206743123015,-0.0753206743123015
266.541,0.0662095608586073,-0.0662095608586073
266.542,0.05674042655488987,-0.05674042655488987
266.543,0.04749684738297966,-0.04749684738297966
266.544,0.03686731337806781,-0.03686731337806781
266.545,0.022233776844272413,-0.022233776844272413
266.546,0.0017950969066065081,-0.0017950969066065081
266.547,0.023754322994065324,0.023754322994065324
266.548,0.050454251141193396,0.050454251141193396
266.549,0.07166835183652664,0.07166835183652664
266.54999999999995,0.07998138465448923,0.07998138465448923
266.551,0.06983190385607219,0.06983190385607219
266.552,0.039964155602035145,0.039964155602035145
266.553,0.00524968243813273,-0.00524968243813273
266.554,0.05625429641711954,-0.05625429641711954
266.555,0.10059323092665551,-0.10059323092665551
266.556,0.12645884967999055,-0.12645884967999055
266.557,0.12644869523450442,-0.12644869523450442
266.558,0.10030184237566009,-0.10030184237566009
266.559,0.05562882208386477,-0.05562882208386477
266.56,0.006236239789370046,-0.006236239789370046
266.561,0.03159606261009085,0.03159606261009085
266.56199999999995,0.0438455966379625,0.0438455966379625
266.563,0.023068578029948883,0.023068578029948883
266.564,0.02904040371276506,-0.02904040371276506
266.565,0.10170104783580536,-0.10170104783580536
266.566,0.17777344514597648,-0.17777344514597648
266.567,0.2383900571586942,-0.2383900571586942
266.568,0.26812558326180025,-0.26812558326180025
266.569,0.25916209639636056,-0.25916209639636056
266.57,0.21321874861854184,-0.21321874861854184
266.571,0.14071561063915283,-0.14071561063915283
266.572,0.057503553912086613,-0.057503553912086613
266.573,0.01976343254596613,0.01976343254596613
266.574,0.07815095489940616,0.07815095489940616
266.575,0.1114921763272283,0.1114921763272283
266.576,0.12112330531917559,0.12112330531917559
266.577,0.11425452707864414,0.11425452707864414
266.578,0.10069547087180752,0.10069547087180752
266.579,0.0891525206885111,0.0891525206885111
266.58,0.08437992771494351,0.08437992771494351
266.581,0.08608931182409729,0.08608931182409729
266.582,0.08984765847735376,0.08984765847735376
266.583,0.08946831521850362,0.08946831521850362
266.584,0.07988225577352082,0.07988225577352082
266.585,0.05934890823349859,0.05934890823349859
266.586,0.030165408180828024,0.030165408180828024
266.587,0.002357241898753859,-0.002357241898753859
266.588,0.032193428425787096,-0.032193428425787096
266.589,0.05521090821721486,-0.05521090821721486
266.59,0.07098608298387354,-0.07098608298387354
266.591,0.0830209640144941,-0.0830209640144941
266.592,0.09717831124433718,-0.09717831124433718
266.593,0.11887032617055016,-0.11887032617055016
266.594,0.15007944324011246,-0.15007944324011246
266.595,0.18744137520646464,-0.18744137520646464
266.596,0.22230325639577653,-0.22230325639577653
266.597,0.24297812137137353,-0.24297812137137353
266.598,0.2385894975806998,-0.2385894975806998
266.599,0.20323728127021934,-0.20323728127021934
266.6,0.13897410178661074,-0.13897410178661074
266.601,0.05637592632462751,-0.05637592632462751
266.602,0.0277506951678701,0.0277506951678701
266.603,0.09500303033635138,0.09500303033635138
266.604,0.13097195652832871,0.13097195652832871
266.605,0.1299636825378372,0.1299636825378372
266.606,0.09719831508040211,0.09719831508040211
266.607,0.04757955036586159,0.04757955036586159
266.608,0.0012324926135056646,0.0012324926135056646
266.609,0.022897439339293668,-0.022897439339293668
266.61,0.013375933595016543,-0.013375933595016543
266.611,0.029543090558202145,0.029543090558202145
266.612,0.09336352752723065,0.09336352752723065
266.613,0.15675717289196212,0.15675717289196212
266.614,0.19599626494142686,0.19599626494142686
266.615,0.1924504691040383,0.1924504691040383
266.616,0.1387835011426568,0.1387835011426568
266.617,0.0418371820467176,0.0418371820467176
266.618,0.0787955658853402,-0.0787955658853402
266.619,0.19615081099629883,-0.19615081099629883
266.62,0.2836061179839453,-0.2836061179839453
266.621,0.32254763991018676,-0.32254763991018676
266.622,0.30761310357413707,-0.30761310357413707
266.623,0.24789290478775583,-0.24789290478775583
266.624,0.16375094586420713,-0.16375094586420713
266.625,0.0803116155788246,-0.0803116155788246
266.626,0.019701755847655877,-0.019701755847655877
266.627,0.00549862713017002,0.00549862713017002
266.628,0.004431281531052655,-0.004431281531052655
266.629,0.03723527039156438,-0.03723527039156438
266.63,0.07335328057072577,-0.07335328057072577
266.631,0.09277607080788697,-0.09277607080788697
266.632,0.08181022453866749,-0.08181022453866749
266.633,0.037570862067042965,-0.037570862067042965
266.634,0.031185216021236695,0.031185216021236695
266.635,0.10704550953065839,0.10704550953065839
266.636,0.16965803668662915,0.16965803668662915
266.637,0.2022302354229466,0.2022302354229466
266.638,0.1966676083615797,0.1966676083615797
266.639,0.15572536046068142,0.15572536046068142
266.64,0.09158527415905549,0.09158527415905549
266.641,0.021473412378370416,0.021473412378370416
266.642,0.03810335148016264,-0.03810335148016264
266.643,0.07651823702477345,-0.07651823702477345
266.644,0.09187225740505323,-0.09187225740505323
266.645,0.09066139324849287,-0.09066139324849287
266.646,0.08451093742536564,-0.08451093742536564
266.647,0.0852271942533237,-0.0852271942533237
266.648,0.09996795317647467,-0.09996795317647467
266.649,0.12825372210625752,-0.12825372210625752
266.65,0.16186963084450245,-0.16186963084450245
266.65099999999995,0.18768242931090662,-0.18768242931090662
266.652,0.19237442082892242,-0.19237442082892242
266.653,0.167427273478564,-0.167427273478564
266.654,0.11259956360607504,-0.11259956360607504
266.655,0.03665866010702645,-0.03665866010702645
266.656,0.04493062319130603,0.04493062319130603
266.657,0.1146154550257732,0.1146154550257732
266.658,0.15812988902189384,0.15812988902189384
266.659,0.16883753385690148,0.16883753385690148
266.66,0.14958967518511535,0.14958967518511535
266.661,0.11148310138483297,0.11148310138483297
266.662,0.06994470242493533,0.06994470242493533
266.66299999999995,0.03946587610486385,0.03946587610486385
266.664,0.028757287516947283,0.028757287516947283
266.665,0.03794486409422326,0.03794486409422326
266.666,0.05873432178375437,0.05873432178375437
266.667,0.07746995538014789,0.07746995538014789
266.668,0.08004193253344893,0.08004193253344893
266.669,0.0569807267723923,0.0569807267723923
266.67,0.007021850525599893,0.007021850525599893
266.671,0.06205633512832709,-0.06205633512832709
266.672,0.1356022182402964,-0.1356022182402964
266.673,0.19654433204683552,-0.19654433204683552
266.674,0.2306501806825545,-0.2306501806825545
266.67499999999995,0.23085719280678718,-0.23085719280678718
266.676,0.19926834456648523,-0.19926834456648523
266.677,0.14619717904094842,-0.14619717904094842
266.678,0.08663556974631759,-0.08663556974631759
266.679,0.035369053887469803,-0.035369053887469803
266.68,0.0023941911527961546,-0.0023941911527961546
266.681,0.009840278610755426,0.009840278610755426
266.682,0.006491635090215775,0.006491635090215775
266.683,0.0022614759739574275,-0.0022614759739574275
266.684,0.005483459176762295,-0.005483459176762295
266.685,0.004105688450155132,0.004105688450155132
266.686,0.02714108900162926,0.02714108900162926
266.68699999999995,0.05711712621866938,0.05711712621866938
266.688,0.082584567650545,0.082584567650545
266.689,0.09129717463348697,0.09129717463348697
266.69,0.07487096629611978,0.07487096629611978
266.691,0.03231402387992399,0.03231402387992399
266.692,0.028858585117869984,-0.028858585117869984
266.693,0.09440752206113245,-0.09440752206113245
266.694,0.14755123396326275,-0.14755123396326275
266.695,0.17421939371388406,-0.17421939371388406
266.696,0.16765304341841425,-0.16765304341841425
266.697,0.1308016379422675,-0.1308016379422675
266.698,0.07566230827039822,-0.07566230827039822
266.699,0.019696831091471023,-0.019696831091471023
266.7,0.019577895922126887,0.019577895922126887
266.701,0.030116735165757635,0.030116735165757635
266.702,0.009219333637024985,0.009219333637024985
266.703,0.03550900549620728,-0.03550900549620728
266.704,0.08844379405425118,-0.08844379405425118
266.705,0.1307760741348052,-0.1307760741348052
266.706,0.14638558655504008,-0.14638558655504008
266.707,0.12691624254666267,-0.12691624254666267
266.708,0.07447760501101786,-0.07447760501101786
266.709,0.0011532211826873473,-0.0011532211826873473
266.71,0.07449766501348343,0.07449766501348343
266.711,0.13282961576394903,0.13282961576394903
266.712,0.15871899921700616,0.15871899921700616
266.713,0.14570061409792445,0.14570061409792445
266.714,0.09745609509762043,0.09745609509762043
266.715,0.02633933176775094,0.02633933176775094
266.716,0.05045329889684036,-0.05045329889684036
266.717,0.11577522505957194,-0.11577522505957194
266.718,0.15695399410266564,-0.15695399410266564
266.719,0.16848042153995335,-0.16848042153995335
266.72,0.15234631412807398,-0.15234631412807398
266.721,0.11621599173595798,-0.11621599173595798
266.722,0.0702928993500247,-0.0702928993500247
266.723,0.024073526089740893,-0.024073526089740893
266.724,0.01592385132055396,0.01592385132055396
266.725,0.046843420675936054,0.046843420675936054
266.726,0.06863091193235493,0.06863091193235493
266.727,0.08225514879912432,0.08225514879912432
266.728,0.08794514006433629,0.08794514006433629
266.729,0.08429843489159938,0.08429843489159938
266.73,0.06869835390488754,0.06869835390488754
266.731,0.03888725326333531,0.03888725326333531
266.732,0.004988298334251295,-0.004988298334251295
266.733,0.05880780335928604,-0.05880780335928604
266.734,0.11421629462728211,-0.11421629462728211
266.735,0.1600481891150911,-0.1600481891150911
266.736,0.18517034618047334,-0.18517034618047334
266.737,0.1818927273122527,-0.1818927273122527
266.738,0.14878639364128976,-0.14878639364128976
266.739,0.09184717376095397,-0.09184717376095397
266.74,0.023434892420943654,-0.023434892420943654
266.741,0.040854356598507335,0.040854356598507335
266.742,0.08650911666003425,0.08650911666003425
266.743,0.10429012414837291,0.10429012414837291
266.744,0.09293691772177715,0.09293691772177715
266.745,0.05947942546901408,0.05947942546901408
266.746,0.016994860870098716,0.016994860870098716
266.747,0.019521647105421258,-0.019521647105421258
266.748,0.03787993719064675,-0.03787993719064675
266.749,0.03251075707903561,-0.03251075707903561
266.75,0.0061578263455531745,-0.0061578263455531745
266.751,0.031086620460268444,0.031086620460268444
266.752,0.06507620128033098,0.06507620128033098
266.753,0.08215888430458373,0.08215888430458373
266.754,0.07351243253425621,0.07351243253425621
266.755,0.03789254308068335,0.03789254308068335
266.756,0.01804006366153743,-0.01804006366153743
266.757,0.0818456078716635,-0.0818456078716635
266.758,0.13912451620579358,-0.13912451620579358
266.759,0.17775149731687656,-0.17775149731687656
266.76,0.19116582974541718,-0.19116582974541718
266.761,0.17973138341313222,-0.17973138341313222
266.762,0.14986416956908277,-0.14986416956908277
266.763,0.111379210393595,-0.111379210393595
266.764,0.07407314527671693,-0.07407314527671693
266.765,0.04474834169392128,-0.04474834169392128
266.766,0.02564828513150952,-0.02564828513150952
266.767,0.014712445873603652,-0.014712445873603652
266.768,0.007382480148986348,-0.007382480148986348
266.769,0.0008546632754540262,0.0008546632754540262
266.77,0.012226138971428657,0.012226138971428657
266.771,0.025607411069029418,0.025607411069029418
266.772,0.037016928247662007,0.037016928247662007
266.773,0.04143775860593335,0.04143775860593335
266.774,0.03521304520283852,0.03521304520283852
266.775,0.01803431928783361,0.01803431928783361
266.77599999999995,0.006311357393862238,-0.006311357393862238
266.777,0.030803486397235402,-0.030803486397235402
266.778,0.04741582793778498,-0.04741582793778498
266.779,0.04993577905882929,-0.04993577905882929
266.78,0.03635055140488219,-0.03635055140488219
266.781,0.009899875349109855,-0.009899875349109855
266.782,0.021645758394025272,0.021645758394025272
266.783,0.04829214332839382,0.04829214332839382
266.784,0.06095120474914251,0.06095120474914251
266.785,0.05432397620950913,0.05432397620950913
266.786,0.028540553082097464,0.028540553082097464
266.787,0.011007312270233327,-0.011007312270233327
266.78799999999995,0.05556767761027592,-0.05556767761027592
266.789,0.0959756675776664,-0.0959756675776664
266.79,0.12558839429001956,-0.12558839429001956
266.791,0.14216059309870177,-0.14216059309870177
266.792,0.14800550182712702,-0.14800550182712702
266.793,0.1484186447462359,-0.1484186447462359
266.794,0.1489888746360437,-0.1489888746360437
266.795,0.15284502410199008,-0.15284502410199008
266.796,0.15892870494992706,-0.15892870494992706
266.797,0.1620209237277359,-0.1620209237277359
266.798,0.15460564826596312,-0.15460564826596312
266.799,0.1299556209771553,-0.1299556209771553
266.79999999999995,0.0853278932960313,-0.0853278932960313
266.801,0.02404669262752701,-0.02404669262752701
266.802,0.04441683401147145,0.04441683401147145
266.803,0.10658735891204651,0.10658735891204651
266.804,0.14878615831817998,0.14878615831817998
266.805,0.16140230770093744,0.16140230770093744
266.806,0.1422092073729997,0.1422092073729997
266.807,0.09754674712704481,0.09754674712704481
266.808,0.0408499116721972,0.0408499116721972
266.809,0.011132453349143923,-0.011132453349143923
266.81,0.04330695799487416,-0.04330695799487416
266.811,0.046843000728584494,-0.046843000728584494
266.81199999999995,0.021941159858552717,-0.021941159858552717
266.813,0.022154347974691957,0.022154347974691957
266.814,0.06994716255055122,0.06994716255055122
266.815,0.1044370390577487,0.1044370390577487
266.816,0.1123497593899172,0.1123497593899172
266.817,0.08821914005922404,0.08821914005922404
266.818,0.03606066933429175,0.03606066933429175
266.819,0.03185348225924267,-0.03185348225924267
266.82,0.09869037795414615,-0.09869037795414615
266.821,0.14802908559586614,-0.14802908559586614
266.822,0.16854709626961706,-0.16854709626961706
266.823,0.15699664595741425,-0.15699664595741425
266.824,0.11863759532512852,-0.11863759532512852
266.825,0.06513039570419366,-0.06513039570419366
266.826,0.010695610859502769,-0.010695610859502769
266.827,0.03214596919735202,0.03214596919735202
266.828,0.055882282089129376,0.055882282089129376
266.829,0.059393672237175954,0.059393672237175954
266.83,0.047135316149122364,0.047135316149122364
266.831,0.026596844552327914,0.026596844552327914
266.832,0.005071234343888564,0.005071234343888564
266.833,0.013062375113310543,-0.013062375113310543
266.834,0.02759030617521674,-0.02759030617521674
266.835,0.04187484756507409,-0.04187484756507409
266.836,0.060736534168806755,-0.060736534168806755
266.837,0.08767808550623069,-0.08767808550623069
266.838,0.12255296700416962,-0.12255296700416962
266.839,0.16061475990587182,-0.16061475990587182
266.84,0.19338120831261996,-0.19338120831261996
266.841,0.21108875239374925,-0.21108875239374925
266.842,0.20593093988901312,-0.20593093988901312
266.843,0.17496994816597622,-0.17496994816597622
266.844,0.12168934098234352,-0.12168934098234352
266.845,0.05559069900421565,-0.05559069900421565
266.846,0.010121475216984921,0.010121475216984921
266.847,0.06209030032430096,0.06209030032430096
266.848,0.09050560084976111,0.09050560084976111
266.849,0.09180974500994132,0.09180974500994132
266.85,0.06958328066308228,0.06958328066308228
266.851,0.03335928119877618,0.03335928119877618
266.852,0.004240017657813788,-0.004240017657813788
266.853,0.03114696703904085,-0.03114696703904085
266.854,0.03916974474884738,-0.03916974474884738
266.855,0.02603529925866621,-0.02603529925866621
266.856,0.004364443106261495,0.004364443106261495
266.857,0.04346801064312622,0.04346801064312622
266.858,0.08070730776228707,0.08070730776228707
266.859,0.1064617199714728,0.1064617199714728
266.86,0.11442350857964056,0.11442350857964056
266.861,0.10276771478707691,0.10276771478707691
266.862,0.07395758784701889,0.07395758784701889
266.863,0.033460208305560846,0.033460208305560846
266.864,0.012052054482421193,-0.012052054482421193
266.865,0.05636817391342297,-0.05636817391342297
266.866,0.0947877673234705,-0.0947877673234705
266.867,0.12437818698754899,-0.12437818698754899
266.868,0.14359615895244948,-0.14359615895244948
266.869,0.1516566286155373,-0.1516566286155373
266.87,0.14807323784836168,-0.14807323784836168
266.871,0.13264932706549148,-0.13264932706549148
266.872,0.1059356339447508,-0.1059356339447508
266.873,0.069905150849364,-0.069905150849364
266.874,0.028440211368421675,-0.028440211368421675
266.875,0.012749673036289932,0.012749673036289932
266.876,0.0469611956724445,0.0469611956724445
266.877,0.06796180318302003,0.06796180318302003
266.878,0.07167779922806061,0.07167779922806061
266.879,0.05754169988273161,0.05754169988273161
266.88,0.02898005521402558,0.02898005521402558
266.881,0.00723152372589253,-0.00723152372589253
266.882,0.042651416054875546,-0.042651416054875546
266.883,0.06943489951857573,-0.06943489951857573
266.884,0.08249118216167062,-0.08249118216167062
266.885,0.08084573732264155,-0.08084573732264155
266.886,0.06775241296132939,-0.06775241296132939
266.887,0.04949808508571263,-0.04949808508571263
266.888,0.03327398125893155,-0.03327398125893155
266.889,0.024804496448692426,-0.024804496448692426
266.89,0.026514325622527868,-0.026514325622527868
266.891,0.036841749178006644,-0.036841749178006644
266.892,0.05092373618052648,-0.05092373618052648
266.893,0.062414281596890664,-0.062414281596890664
266.894,0.06580884388714303,-0.06580884388714303
266.895,0.058469343767210136,-0.058469343767210136
266.896,0.041640251866788436,-0.041640251866788436
266.897,0.020087790620171186,-0.020087790620171186
266.898,0.00046742023607604377,-0.00046742023607604377
266.899,0.011031037117313014,0.011031037117313014
266.9,0.010949005977735293,0.010949005977735293
266.90099999999995,6.369224035551735e-05,-6.369224035551735e-05
266.902,0.017271998328980964,-0.017271998328980964
266.903,0.033322257628062735,-0.033322257628062735
266.904,0.04070200993027584,-0.04070200993027584
266.905,0.03439118463680113,-0.03439118463680113
266.906,0.013814577301392239,-0.013814577301392239
266.907,0.016586197470127795,0.016586197470127795
266.908,0.04840361037945473,0.04840361037945473
266.909,0.07165304395509109,0.07165304395509109
266.91,0.07777307448072146,0.07777307448072146
266.911,0.06230086442002003,0.06230086442002003
266.912,0.026377875691428354,0.026377875691428354
266.91299999999995,0.023395244000293802,-0.023395244000293802
266.914,0.0767183857012852,-0.0767183857012852
266.915,0.12242679607575913,-0.12242679607575913
266.916,0.15153382166477825,-0.15153382166477825
266.917,0.1595649248736477,-0.1595649248736477
266.918,0.1475057543117263,-0.1475057543117263
266.919,0.12113264376869948,-0.12113264376869948
266.92,0.08899837233617902,-0.08899837233617902
266.921,0.05974717183398304,-0.05974717183398304
266.922,0.0396070312693243,-0.0396070312693243
266.923,0.03080805538567455,-0.03080805538567455
266.924,0.031346629321708064,-0.031346629321708064
266.92499999999995,0.036072314352939006,-0.036072314352939006
266.926,0.03866502863456589,-0.03866502863456589
266.927,0.03382319302515591,-0.03382319302515591
266.928,0.01896845662308766,-0.01896845662308766
266.929,0.005020857582862082,0.005020857582862082
266.93,0.03418944024632031,0.03418944024632031
266.931,0.06277688727524589,0.06277688727524589
266.932,0.08490128898181282,0.08490128898181282
266.933,0.09609481257850394,0.09609481257850394
266.934,0.09424376481164987,0.09424376481164987
266.935,0.07973456590027794,0.07973456590027794
266.936,0.05489550319081493,0.05489550319081493
266.93699999999995,0.02304859618871058,0.02304859618871058
266.938,0.012426788576978098,-0.012426788576978098
266.939,0.04868585797189762,-0.04868585797189762
266.94,0.08351981516314932,-0.08351981516314932
266.941,0.11504633224136607,-0.11504633224136607
266.942,0.14124453804884496,-0.14124453804884496
266.943,0.15965067235615127,-0.15965067235615127
266.944,0.16745637308974048,-0.16745637308974048
266.945,0.16207422600981214,-0.16207422600981214
266.946,0.14202446638121458,-0.14202446638121458
266.947,0.107833803105019,-0.107833803105019
266.948,0.06258513045749459,-0.06258513045749459
266.949,0.01183766163565414,-0.01183766163565414
266.95,0.037174768971451,0.037174768971451
266.951,0.0769272141133499,0.0769272141133499
266.952,0.10123094798018073,0.10123094798018073
266.953,0.10666909926676005,0.10666909926676005
266.954,0.09343982584683341,0.09343982584683341
266.955,0.06536167226219303,0.06536167226219303
266.956,0.029022278441739546,0.029022278441739546
266.957,0.007720077236552769,-0.007720077236552769
266.958,0.037508457954997354,-0.037508457954997354
266.959,0.0551014119124591,-0.0551014119124591
266.96,0.05845453611724749,-0.05845453611724749
266.961,0.04904056573514759,-0.04904056573514759
266.962,0.03136775303302697,-0.03136775303302697
266.963,0.011836704710254664,-0.011836704710254664
266.964,0.002792414069595628,0.002792414069595628
266.965,0.006988168463798905,0.006988168463798905
266.966,0.0022346098491550226,-0.0022346098491550226
266.967,0.024529846286377888,-0.024529846286377888
266.968,0.05612771813689277,-0.05612771813689277
266.969,0.0904727842671228,-0.0904727842671228
266.97,0.11950301157374699,-0.11950301157374699
266.971,0.1353578933208558,-0.1353578933208558
266.972,0.13220220268931293,-0.13220220268931293
266.973,0.10779046289176264,-0.10779046289176264
266.974,0.06439875381773008,-0.06439875381773008
266.975,0.008833281243438185,-0.008833281243438185
266.976,0.04860765726399063,0.04860765726399063
266.977,0.09611094034730439,0.09611094034730439
266.978,0.12291043870228657,0.12291043870228657
266.979,0.12187990480305855,0.12187990480305855
266.98,0.09151916976728813,0.09151916976728813
266.981,0.03677086948278263,0.03677086948278263
266.982,0.03165647233756608,-0.03165647233756608
266.983,0.09942586851810364,-0.09942586851810364
266.984,0.15174820634898412,-0.15174820634898412
266.985,0.17686454253486728,-0.17686454253486728
266.986,0.168964427663579,-0.168964427663579
266.987,0.1297624651697168,-0.1297624651697168
266.988,0.06826770611450284,-0.06826770611450284
266.989,0.0012616369583084985,0.0012616369583084985
266.99,0.0627046415356669,0.0627046415356669
266.991,0.10196298778422364,0.10196298778422364
266.992,0.11035439681098502,0.11035439681098502
266.993,0.0866427096783775,0.0866427096783775
266.994,0.03719080497137539,0.03719080497137539
266.995,0.025779788301837248,-0.025779788301837248
266.996,0.0873401731379192,-0.0873401731379192
266.997,0.1335730992556603,-0.1335730992556603
266.998,0.15489119395378048,-0.15489119395378048
266.999,0.14812464021520277,-0.14812464021520277
267.0,0.11690457112390806,-0.11690457112390806
267.001,0.0703355122548478,-0.0703355122548478
267.002,0.020395601231539162,-0.020395601231539162
267.003,0.021192798198750973,0.021192798198750973
267.004,0.045790739576178296,0.045790739576178296
267.005,0.04967331850513923,0.04967331850513923
267.006,0.0344764598328271,0.0344764598328271
267.007,0.006258944174655223,0.006258944174655223
267.008,0.02646557847224207,-0.02646557847224207
267.009,0.05513637797790838,-0.05513637797790838
267.01,0.07333788075963132,-0.07333788075963132
267.011,0.07822766522390079,-0.07822766522390079
267.012,0.07088816564470857,-0.07088816564470857
267.013,0.05558716640622641,-0.05558716640622641
267.014,0.03821287454435063,-0.03821287454435063
267.015,0.024347987963496465,-0.024347987963496465
267.016,0.01752238961500241,-0.01752238961500241
267.017,0.018124639114437624,-0.018124639114437624
267.018,0.023276312002090016,-0.023276312002090016
267.019,0.027722166321816122,-0.027722166321816122
267.02,0.02552006745147184,-0.02552006745147184
267.021,0.012089643757832724,-0.012089643757832724
267.022,0.0139463508858777,0.0139463508858777
267.023,0.04968109704087942,0.04968109704087942
267.024,0.08799617088357414,0.08799617088357414
267.025,0.11889894515995136,0.11889894515995136
267.02599999999995,0.1318946560000045,0.1318946560000045
267.027,0.11884657295323775,0.11884657295323775
267.028,0.07657828408077205,0.07657828408077205
267.029,0.008460804426118074,0.008460804426118074
267.03,0.07556941043124688,-0.07556941043124688
267.031,0.16073083855280101,-0.16073083855280101
267.032,0.23055129325749568,-0.23055129325749568
267.033,0.27071996638893625,-0.27071996638893625
267.034,0.2726434395972791,-0.2726434395972791
267.035,0.2357231665594578,-0.2357231665594578
267.036,0.16767157637750085,-0.16767157637750085
267.037,0.08270417814519004,-0.08270417814519004
267.03799999999995,0.00195666222522739,0.00195666222522739
267.039,0.07033213786579107,0.07033213786579107
267.04,0.11151748782658588,0.11151748782658588
267.041,0.122023492884197,0.122023492884197
267.042,0.1059915467528103,0.1059915467528103
267.043,0.0732792556442976,0.0732792556442976
267.044,0.03605640129631382,0.03605640129631382
267.045,0.004998294461701525,0.004998294461701525
267.046,0.01373197119084979,-0.01373197119084979
267.047,0.019797852865680365,-0.019797852865680365
267.048,0.017958047411540945,-0.017958047411540945
267.049,0.01562871174125302,-0.01562871174125302
267.04999999999995,0.019642823157883682,-0.019642823157883682
267.051,0.0333673552204623,-0.0333673552204623
267.052,0.055199737242211944,-0.055199737242211944
267.053,0.07897480383309319,-0.07897480383309319
267.054,0.09613858941840447,-0.09613858941840447
267.055,0.09891827422085164,-0.09891827422085164
267.056,0.08335708036055389,-0.08335708036055389
267.057,0.05111746966274122,-0.05111746966274122
267.058,0.009377401008365482,-0.009377401008365482
267.059,0.03119158603869221,0.03119158603869221
267.06,0.05970065156201354,0.05970065156201354
267.061,0.06846275438173155,0.06846275438173155
267.06199999999995,0.05538330854672724,0.05538330854672724
267.063,0.024504257925137773,0.024504257925137773
267.064,0.015472473653897811,-0.015472473653897811
267.065,0.05414819928932302,-0.05414819928932302
267.066,0.08282390286543184,-0.08282390286543184
267.067,0.09713291217469044,-0.09713291217469044
267.068,0.09799937128919334,-0.09799937128919334
267.069,0.09062798293158347,-0.09062798293158347
267.07,0.08195445365494247,-0.08195445365494247
267.071,0.07755459233815842,-0.07755459233815842
267.072,0.0792125868416308,-0.0792125868416308
267.073,0.08410579192031742,-0.08410579192031742
267.074,0.08595687571904786,-0.08595687571904786
267.075,0.07775227066559487,-0.07775227066559487
267.076,0.0550049890126012,-0.0550049890126012
267.077,0.018285042881518998,-0.018285042881518998
267.078,0.026041544948662843,0.026041544948662843
267.079,0.06729827765991137,0.06729827765991137
267.08,0.09382394195707988,0.09382394195707988
267.081,0.0970391798279826,0.0970391798279826
267.082,0.0748084303378378,0.0748084303378378
267.083,0.032816535957239434,0.032816535957239434
267.084,0.016683389907987567,-0.016683389907987567
267.085,0.05849411626105372,-0.05849411626105372
267.086,0.07936181183322322,-0.07936181183322322
267.087,0.07251848845869435,-0.07251848845869435
267.088,0.04031193015722978,-0.04031193015722978
267.089,0.006058985602173106,0.006058985602173106
267.09,0.04974296851785387,0.04974296851785387
267.091,0.07342418269579776,0.07342418269579776
267.092,0.06486532574330006,0.06486532574330006
267.093,0.02101816260520728,0.02101816260520728
267.094,0.05064518406310958,-0.05064518406310958
267.095,0.1340346164488454,-0.1340346164488454
267.096,0.2089873850794145,-0.2089873850794145
267.097,0.2570181750539682,-0.2570181750539682
267.098,0.2664683203622432,-0.2664683203622432
267.099,0.23547835830294817,-0.23547835830294817
267.1,0.1719487375386013,-0.1719487375386013
267.101,0.0906465585563605,-0.0906465585563605
267.102,0.008523056371573134,-0.008523056371573134
267.103,0.06017400907795567,0.06017400907795567
267.104,0.10743748393716612,0.10743748393716612
267.105,0.13267678947084294,0.13267678947084294
267.106,0.1413754124948814,0.1413754124948814
267.107,0.14192820593052513,0.14192820593052513
267.108,0.14192012418800992,0.14192012418800992
267.109,0.14519920806885667,0.14519920806885667
267.11,0.15070964517391738,0.15070964517391738
267.111,0.1533488710880644,0.1533488710880644
267.112,0.14636366742029727,0.14636366742029727
267.113,0.12427587445576438,0.12427587445576438
267.114,0.08520613486478168,0.08520613486478168
267.115,0.031766293661269485,0.031766293661269485
267.116,0.029717263033022467,-0.029717263033022467
267.117,0.0912422280958054,-0.0912422280958054
267.118,0.14557178556067352,-0.14557178556067352
267.119,0.18812333944308446,-0.18812333944308446
267.12,0.2176297489325032,-0.2176297489325032
267.121,0.23543146805984083,-0.23543146805984083
267.122,0.2438251456292394,-0.2438251456292394
267.123,0.24426895815685823,-0.24426895815685823
267.124,0.23628094505441066,-0.23628094505441066
267.125,0.21755362734857664,-0.21755362734857664
267.126,0.18527480004204122,-0.18527480004204122
267.127,0.13810704594055967,-0.13810704594055967
267.128,0.07795656336272094,-0.07795656336272094
267.129,0.010691296277064222,-0.010691296277064222
267.13,0.05465261315099368,0.05465261315099368
267.131,0.10804903655756726,0.10804903655756726
267.132,0.14134776043892328,0.14134776043892328
267.133,0.1508056550938519,0.1508056550938519
267.134,0.1383176867291942,0.1383176867291942
267.135,0.11081561457332834,0.11081561457332834
267.136,0.07796019263116016,0.07796019263116016
267.137,0.04889275232313928,0.04889275232313928
267.138,0.029190647160802774,0.029190647160802774
267.139,0.019136201707650624,0.019136201707650624
267.14,0.013959835909942653,0.013959835909942653
267.141,0.006009528896994576,0.006009528896994576
267.142,0.01191363430800596,-0.01191363430800596
267.143,0.04326690605381456,-0.04326690605381456
267.144,0.08575698650212182,-0.08575698650212182
267.145,0.13141225740651064,-0.13141225740651064
267.146,0.16880325616230385,-0.16880325616230385
267.147,0.1867024250842152,-0.1867024250842152
267.148,0.17793713289024582,-0.17793713289024582
267.149,0.14208965790562977,-0.14208965790562977
267.15,0.08607578343848687,-0.08607578343848687
267.15099999999995,0.02235882280535484,-0.02235882280535484
267.152,0.034628818675960904,0.034628818675960904
267.153,0.07266928561334063,0.07266928561334063
267.154,0.08516406223263107,0.08516406223263107
267.155,0.07266454162107672,0.07266454162107672
267.156,0.0420993675277348,0.0420993675277348
267.157,0.004070881006114746,0.004070881006114746
267.158,0.030759088851497696,-0.030759088851497696
267.159,0.05490810585132566,-0.05490810585132566
267.16,0.06585334833259437,-0.06585334833259437
267.161,0.0658547917811263,-0.0658547917811263
267.162,0.060065640130658626,-0.060065640130658626
267.16299999999995,0.05379629418089715,-0.05379629418089715
267.164,0.05007114265343782,-0.05007114265343782
267.165,0.048447518745750595,-0.048447518745750595
267.166,0.04552733132306974,-0.04552733132306974
267.167,0.03689672777067976,-0.03689672777067976
267.168,0.01964753930393981,-0.01964753930393981
267.169,0.005609060463087623,0.005609060463087623
267.17,0.03413680038546851,0.03413680038546851
267.171,0.0582259925900348,0.0582259925900348
267.172,0.06975133514146759,0.06975133514146759
267.173,0.06320386053356697,0.06320386053356697
267.174,0.03803203944537992,0.03803203944537992
267.17499999999995,0.000660777930352463,-0.000660777930352463
267.176,0.043428918802945304,-0.043428918802945304
267.177,0.0794270408465646,-0.0794270408465646
267.178,0.09997607148197873,-0.09997607148197873
267.179,0.10147740453322418,-0.10147740453322418
267.18,0.0865999173708959,-0.0865999173708959
267.181,0.06326789099616992,-0.06326789099616992
267.182,0.041769844325864836,-0.041769844325864836
267.183,0.030999587802670536,-0.030999587802670536
267.184,0.03517515846831898,-0.03517515846831898
267.185,0.052230357324040355,-0.052230357324040355
267.186,0.07448570842017133,-0.07448570842017133
267.18699999999995,0.09138979349360343,-0.09138979349360343
267.188,0.09337241440089739,-0.09337241440089739
267.189,0.07544039681093317,-0.07544039681093317
267.19,0.03922603805991465,-0.03922603805991465
267.191,0.007258931476988195,0.007258931476988195
267.192,0.05209869215881047,0.05209869215881047
267.193,0.08332293501439914,0.08332293501439914
267.194,0.09279176635683939,0.09279176635683939
267.195,0.07877136955129771,0.07877136955129771
267.196,0.046327722484684974,0.046327722484684974
267.197,0.005442151943876761,0.005442151943876761
267.198,0.03244733832981839,-0.03244733832981839
267.199,0.058237686458193716,-0.058237686458193716
267.2,0.06795779381582445,-0.06795779381582445
267.201,0.06363128801481144,-0.06363128801481144
267.202,0.05197916086370158,-0.05197916086370158
267.203,0.0415128893824267,-0.0415128893824267
267.204,0.039126983248551794,-0.039126983248551794
267.205,0.047444015043498045,-0.047444015043498045
267.206,0.06385344704517115,-0.06385344704517115
267.207,0.08154282687379255,-0.08154282687379255
267.208,0.0920884067606611,-0.0920884067606611
267.209,0.08862033910679779,-0.08862033910679779
267.21,0.0684009275926738,-0.0684009275926738
267.211,0.033905749133998575,-0.033905749133998575
267.212,0.007929058446282555,0.007929058446282555
267.213,0.04795570814540273,0.04795570814540273
267.214,0.07769869250568018,0.07769869250568018
267.215,0.09182745784678392,0.09182745784678392
267.216,0.08938035863662375,0.08938035863662375
267.217,0.07341124729876203,0.07341124729876203
267.218,0.04933517017413447,0.04933517017413447
267.219,0.022717565191375133,0.022717565191375133
267.22,0.0025915366878320745,-0.0025915366878320745
267.221,0.025279311220152145,-0.025279311220152145
267.222,0.04611906645093433,-0.04611906645093433
267.223,0.06656079294331074,-0.06656079294331074
267.224,0.08707515152481371,-0.08707515152481371
267.225,0.10605584884878727,-0.10605584884878727
267.226,0.11983897651701991,-0.11983897651701991
267.227,0.12391277914503196,-0.12391277914503196
267.228,0.11486443657317658,-0.11486443657317658
267.229,0.09225732397489272,-0.09225732397489272
267.23,0.05960171209625842,-0.05960171209625842
267.231,0.023896450972259342,-0.023896450972259342
267.232,0.006235940479545787,0.006235940479545787
267.233,0.023232536149915273,0.023232536149915273
267.234,0.02314032016893286,0.02314032016893286
267.235,0.0070728794262988615,0.0070728794262988615
267.236,0.019025345951476313,-0.019025345951476313
267.237,0.04629881508317091,-0.04629881508317091
267.238,0.06594787176938322,-0.06594787176938322
267.239,0.07219583367526505,-0.07219583367526505
267.24,0.06417932472764953,-0.06417932472764953
267.241,0.04605828936026202,-0.04605828936026202
267.242,0.025288776862832707,-0.025288776862832707
267.243,0.009685422591391935,-0.009685422591391935
267.244,0.0043657000587388195,-0.0043657000587388195
267.245,0.009734749117512709,-0.009734749117512709
267.246,0.021303376393393414,-0.021303376393393414
267.247,0.0314592180662967,-0.0314592180662967
267.248,0.032575594132844166,-0.032575594132844166
267.249,0.020316387535410985,-0.020316387535410985
267.25,0.004121396905762076,0.004121396905762076
267.251,0.03373981868670484,0.03373981868670484
267.252,0.057666879198748244,0.057666879198748244
267.253,0.064704069204218,0.064704069204218
267.254,0.0473112644595961,0.0473112644595961
267.255,0.0046444228245590136,0.0046444228245590136
267.256,0.0564526898632568,-0.0564526898632568
267.257,0.12292391406130454,-0.12292391406130454
267.258,0.17903075494024445,-0.17903075494024445
267.259,0.21082677853765563,-0.21082677853765563
267.26,0.21014751529092013,-0.21014751529092013
267.261,0.17685602574778303,-0.17685602574778303
267.262,0.11867634899931678,-0.11867634899931678
267.263,0.048750158069377325,-0.048750158069377325
267.264,0.0182157650712802,0.0182157650712802
267.265,0.06993211732934945,0.06993211732934945
267.266,0.0993996420525991,0.0993996420525991
267.267,0.1058876198723746,0.1058876198723746
267.268,0.09392737099473858,0.09392737099473858
267.269,0.07090351659145999,0.07090351659145999
267.27,0.04424216058023456,0.04424216058023456
267.271,0.01922123385133645,0.01922123385133645
267.272,0.0019197374098003372,-0.0019197374098003372
267.273,0.01946155989873466,-0.01946155989873466
267.274,0.03473059044248561,-0.03473059044248561
267.275,0.04845719736782739,-0.04845719736782739
267.27599999999995,0.0597543868589695,-0.0597543868589695
267.277,0.06617720239722602,-0.06617720239722602
267.278,0.06481831634535207,-0.06481831634535207
267.279,0.05392240969801354,-0.05392240969801354
267.28,0.03425539925456622,-0.03425539925456622
267.281,0.009544770313550499,-0.009544770313550499
267.282,0.014317659424508689,0.014317659424508689
267.283,0.03110030364227323,0.03110030364227323
267.284,0.03642109730895515,0.03642109730895515
267.285,0.029439826335250663,0.029439826335250663
267.286,0.01333491827083888,0.01333491827083888
267.287,0.005713878855920562,-0.005713878855920562
267.28799999999995,0.02074251154300566,-0.02074251154300566
267.289,0.026639560779147198,-0.026639560779147198
267.29,0.022218256926856306,-0.022218256926856306
267.291,0.010903429381431518,-0.010903429381431518
267.292,0.000302422278496417,0.000302422278496417
267.293,0.003279324109336512,0.003279324109336512
267.294,0.008161600674895464,-0.008161600674895464
267.295,0.03572944234914355,-0.03572944234914355
267.296,0.07555007951609682,-0.07555007951609682
267.297,0.11896157363312987,-0.11896157363312987
267.298,0.15499538985662753,-0.15499538985662753
267.299,0.17372992446710644,-0.17372992446710644
267.29999999999995,0.1693869080829825,-0.1693869080829825
267.301,0.14212553531867345,-0.14212553531867345
267.302,0.09794336067352327,-0.09794336067352327
267.303,0.04675214142398787,-0.04675214142398787
267.304,0.0006776861401376344,0.0006776861401376344
267.305,0.03584248768978404,0.03584248768978404
267.306,0.054656986741153046,0.054656986741153046
267.307,0.05797574574271547,0.05797574574271547
267.308,0.05043620607680799,0.05043620607680799
267.309,0.03817496224496564,0.03817496224496564
267.31,0.026341471976218722,0.026341471976218722
267.311,0.017348218701010776,0.017348218701010776
267.31199999999995,0.010459782695416253,0.010459782695416253
267.313,0.002773316334154341,0.002773316334154341
267.314,0.008905177625521565,-0.008905177625521565
267.315,0.026120813005313104,-0.026120813005313104
267.316,0.047598184305455815,-0.047598184305455815
267.317,0.06934075127868589,-0.06934075127868589
267.318,0.08597855920679875,-0.08597855920679875
267.319,0.09282871786650693,-0.09282871786650693
267.32,0.08783428496728085,-0.08783428496728085
267.321,0.07257992131842728,-0.07257992131842728
267.322,0.051934934551470135,-0.051934934551470135
267.323,0.03240965063131218,-0.03240965063131218
267.324,0.01982128639391001,-0.01982128639391001
267.325,0.017151143151880044,-0.017151143151880044
267.326,0.023422271078108015,-0.023422271078108015
267.327,0.03405206117546655,-0.03405206117546655
267.328,0.042578210352183454,-0.042578210352183454
267.329,0.04313086106816144,-0.04313086106816144
267.33,0.032730228059308475,-0.032730228059308475
267.331,0.012542157091979589,-0.012542157091979589
267.332,0.012393354616057728,0.012393354616057728
267.333,0.034876552044800446,0.034876552044800446
267.334,0.04808025022980322,0.04808025022980322
267.335,0.047967451719846954,0.047967451719846954
267.336,0.03470413972343889,0.03470413972343889
267.337,0.012554087253329183,0.012554087253329183
267.338,0.011688928893814898,-0.011688928893814898
267.339,0.031131631249507796,-0.031131631249507796
267.34,0.04116046958472808,-0.04116046958472808
267.341,0.04089005942333834,-0.04089005942333834
267.342,0.03316928583042922,-0.03316928583042922
267.343,0.02319229976807402,-0.02319229976807402
267.344,0.016295596950011704,-0.016295596950011704
267.345,0.015825782498527285,-0.015825782498527285
267.346,0.021918896093249374,-0.021918896093249374
267.347,0.031659115647372005,-0.031659115647372005
267.348,0.04052814028396312,-0.04052814028396312
267.349,0.04453464552884012,-0.04453464552884012
267.35,0.04213199080522512,-0.04213199080522512
267.351,0.035105653851606244,-0.035105653851606244
267.352,0.02801584213417818,-0.02801584213417818
267.353,0.02636137172926656,-0.02636137172926656
267.354,0.03416202369047494,-0.03416202369047494
267.355,0.05192668567687542,-0.05192668567687542
267.356,0.07586943038612115,-0.07586943038612115
267.357,0.09878471005331857,-0.09878471005331857
267.358,0.11236092319906721,-0.11236092319906721
267.359,0.11013838555179456,-0.11013838555179456
267.36,0.09002698213766058,-0.09002698213766058
267.361,0.05541194040015207,-0.05541194040015207
267.362,0.014363336596459386,-0.014363336596459386
267.363,0.022847317486185625,0.022847317486185625
267.364,0.04708600426364096,0.04708600426364096
267.365,0.05337311909161557,0.05337311909161557
267.366,0.04248957118111818,0.04248957118111818
267.367,0.020577223759763008,0.020577223759763008
267.368,0.003138246663067168,-0.003138246663067168
267.369,0.019687449492542197,-0.019687449492542197
267.37,0.023551638456241863,-0.023551638456241863
267.371,0.014551454974596645,-0.014551454974596645
267.372,0.0022513692277621455,0.0022513692277621455
267.373,0.018586958598033387,0.018586958598033387
267.374,0.026175164846545362,0.026175164846545362
267.375,0.019886275688186572,0.019886275688186572
267.376,0.0003208059291520682,-0.0003208059291520682
267.377,0.029405709756456844,-0.029405709756456844
267.378,0.05918472218794646,-0.05918472218794646
267.379,0.0814504497336509,-0.0814504497336509
267.38,0.09106935210487455,-0.09106935210487455
267.381,0.08785564216802899,-0.08785564216802899
267.382,0.07648312373946453,-0.07648312373946453
267.383,0.06444988151462294,-0.06444988151462294
267.384,0.05887064179755219,-0.05887064179755219
267.385,0.06334710545692568,-0.06334710545692568
267.386,0.07616962132300287,-0.07616962132300287
267.387,0.0906223995079779,-0.0906223995079779
267.388,0.09737130348380152,-0.09737130348380152
267.389,0.08810291501570167,-0.08810291501570167
267.39,0.059064472779729815,-0.059064472779729815
267.391,0.013132280916896999,-0.013132280916896999
267.392,0.040465443930953304,0.040465443930953304
267.393,0.08879880472037249,0.08879880472037249
267.394,0.11940002335929845,0.11940002335929845
267.395,0.12448465404992048,0.12448465404992048
267.396,0.1036988210542773,0.1036988210542773
267.397,0.06434993916105114,0.06434993916105114
267.398,0.01896552635631088,0.01896552635631088
267.399,0.019007106509965954,-0.019007106509965954
267.4,0.03985279015428922,-0.03985279015428922
267.40099999999995,0.04092473017502585,-0.04092473017502585
267.402,0.027442856515247582,-0.027442856515247582
267.403,0.01043151421570132,-0.01043151421570132
267.404,0.002507305404092608,-0.002507305404092608
267.405,0.013020747068761884,-0.013020747068761884
267.406,0.044314331830832,-0.044314331830832
267.407,0.09048169188964128,-0.09048169188964128
267.408,0.13912576583769265,-0.13912576583769265
267.409,0.17553336911725315,-0.17553336911725315
267.41,0.18779939953137315,-0.18779939953137315
267.411,0.1710696860757781,-0.1710696860757781
267.412,0.12936576224393326,-0.12936576224393326
267.41299999999995,0.07430857658238221,-0.07430857658238221
267.414,0.021168164730829275,-0.021168164730829275
267.415,0.016366674430684958,0.016366674430684958
267.416,0.030832012466440295,0.030832012466440295
267.417,0.02337641587614292,0.02337641587614292
267.418,0.0030253673816573734,0.0030253673816573734
267.419,0.016922295772929474,-0.016922295772929474
267.42,0.02407048771608422,-0.02407048771608422
267.421,0.011797020236570255,-0.011797020236570255
267.422,0.017968004355077838,0.017968004355077838
267.423,0.055109519663665285,0.055109519663665285
267.424,0.0847721995857793,0.0847721995857793
267.42499999999995,0.092705215010638,0.092705215010638
267.426,0.07062955824052808,0.07062955824052808
267.427,0.01971138702651909,0.01971138702651909
267.428,0.04913549407317652,-0.04913549407317652
267.429,0.11829996669432974,-0.11829996669432974
267.43,0.16889340519832607,-0.16889340519832607
267.431,0.18672927922148108,-0.18672927922148108
267.432,0.16685406757305943,-0.16685406757305943
267.433,0.11511614855914987,-0.11511614855914987
267.434,0.04627095796670477,-0.04627095796670477
267.435,0.02070760665514504,0.02070760665514504
267.436,0.06851546064232772,0.06851546064232772
267.43699999999995,0.08665037877894588,0.08665037877894588
267.438,0.0741448695117124,0.0741448695117124
267.439,0.03911933740607365,0.03911933740607365
267.44,0.004527178193382997,-0.004527178193382997
267.441,0.04202571829974655,-0.04202571829974655
267.442,0.06251151189427451,-0.06251151189427451
267.443,0.06207804412310225,-0.06207804412310225
267.444,0.044215665502406076,-0.044215665502406076
267.445,0.017703814090051395,-0.017703814090051395
267.446,0.007089118688533791,0.007089118688533791
267.447,0.022050133362863766,0.022050133362863766
267.448,0.02391681453616168,0.02391681453616168
267.449,0.014786697623773604,0.014786697623773604
267.45,0.0005349933614364755,0.0005349933614364755
267.451,0.012079165635871414,-0.012079165635871414
267.452,0.01838673940468394,-0.01838673940468394
267.453,0.01767061864290309,-0.01767061864290309
267.454,0.013217869936754556,-0.013217869936754556
267.455,0.010612076319422181,-0.010612076319422181
267.456,0.015020868329572612,-0.015020868329572612
267.457,0.028626634011680308,-0.028626634011680308
267.458,0.049282620658070764,-0.049282620658070764
267.459,0.07098377624157037,-0.07098377624157037
267.46,0.08601645076409714,-0.08601645076409714
267.461,0.0879755556526447,-0.0879755556526447
267.462,0.07447353227465459,-0.07447353227465459
267.463,0.04845447345969778,-0.04845447345969778
267.464,0.017538027750224616,-0.017538027750224616
267.465,0.008440468940844825,0.008440468940844825
267.466,0.020834905620682242,0.020834905620682242
267.467,0.015299759451305572,0.015299759451305572
267.468,0.0065512492851401705,-0.0065512492851401705
267.469,0.0375841089160861,-0.0375841089160861
267.47,0.0675640585174716,-0.0675640585174716
267.471,0.08670976426034638,-0.08670976426034638
267.472,0.08911031029971184,-0.08911031029971184
267.473,0.07476987789418288,-0.07476987789418288
267.474,0.04953391717696731,-0.04953391717696731
267.475,0.022915161388008753,-0.022915161388008753
267.476,0.0045997890349590564,-0.0045997890349590564
267.477,0.0008955762805893386,-0.0008955762805893386
267.478,0.012409173081040725,-0.012409173081040725
267.479,0.033798905700852866,-0.033798905700852866
267.48,0.05570223427550758,-0.05570223427550758
267.481,0.0681534241311651,-0.0681534241311651
267.482,0.0642696602005951,-0.0642696602005951
267.483,0.04288523440203318,-0.04288523440203318
267.484,0.009187049497118682,-0.009187049497118682
267.485,0.026885851044561537,0.026885851044561537
267.486,0.05392626242646781,0.05392626242646781
267.487,0.06288545439194282,0.06288545439194282
267.488,0.0501209607353712,0.0501209607353712
267.489,0.018629297187475746,0.018629297187475746
267.49,0.022929899395205955,-0.022929899395205955
267.491,0.06304509918607948,-0.06304509918607948
267.492,0.09100807835718172,-0.09100807835718172
267.493,0.10016545800140608,-0.10016545800140608
267.494,0.08970409526236289,-0.08970409526236289
267.495,0.06445479925418973,-0.06445479925418973
267.496,0.03290189288495815,-0.03290189288495815
267.497,0.004190812548953704,-0.004190812548953704
267.498,0.014778033763001686,0.014778033763001686
267.499,0.02118525015240058,0.02118525015240058
267.5,0.016522963000240143,0.016522963000240143
267.501,0.005298866464127139,0.005298866464127139
267.502,0.00715883217630775,-0.00715883217630775
267.503,0.016884046248383244,-0.016884046248383244
267.504,0.02260447347243466,-0.02260447347243466
267.505,0.025770518122405273,-0.025770518122405273
267.506,0.02937102079400089,-0.02937102079400089
267.507,0.036108844095485315,-0.036108844095485315
267.508,0.046750658661564026,-0.046750658661564026
267.509,0.059376787951923915,-0.059376787951923915
267.51,0.06987909196122088,-0.06987909196122088
267.511,0.07353852829471896,-0.07353852829471896
267.512,0.0670619623131441,-0.0670619623131441
267.513,0.05024705781466143,-0.05024705781466143
267.514,0.026558964305687938,-0.026558964305687938
267.515,0.0023028784209213615,-0.0023028784209213615
267.516,0.015387004056241604,0.015387004056241604
267.517,0.021051692303582614,0.021051692303582614
267.518,0.012990790671938202,0.012990790671938202
267.519,0.005876101509505016,-0.005876101509505016
267.52,0.028756188078752798,-0.028756188078752798
267.521,0.04715390778417994,-0.04715390778417994
267.522,0.05375939725637535,-0.05375939725637535
267.523,0.04506801673154026,-0.04506801673154026
267.524,0.022807538181172426,-0.022807538181172426
267.525,0.006359618260545874,0.006359618260545874
267.52599999999995,0.03280823691688717,0.03280823691688717
267.527,0.04697245587472221,0.04697245587472221
267.528,0.042431595175774994,0.042431595175774994
267.529,0.018045699818089567,0.018045699818089567
267.53,0.021557304392066823,-0.021557304392066823
267.531,0.06729311949526051,-0.06729311949526051
267.532,0.10829135793987432,-0.10829135793987432
267.533,0.13505279685576366,-0.13505279685576366
267.534,0.14208990449581527,-0.14208990449581527
267.535,0.1292504005483549,-0.1292504005483549
267.536,0.1013822324519501,-0.1013822324519501
267.537,0.0665478434101201,-0.0665478434101201
267.53799999999995,0.03344736083212496,-0.03344736083212496
267.539,0.0089175323347358,-0.0089175323347358
267.54,0.0037201249718079588,0.0037201249718079588
267.541,0.005032352520281114,0.005032352520281114
267.542,0.0014004726206858775,-0.0014004726206858775
267.543,0.010663915792342604,-0.010663915792342604
267.544,0.018327831301981345,-0.018327831301981345
267.545,0.021765762446545822,-0.021765762446545822
267.546,0.020588672533803032,-0.020588672533803032
267.547,0.016172713768760505,-0.016172713768760505
267.548,0.010600693252895699,-0.010600693252895699
267.549,0.005526919843729439,-0.005526919843729439
267.54999999999995,0.0014542926847329607,-0.0014542926847329607
267.551,0.0022982950867962426,0.0022982950867962426
267.552,0.006969732721708866,0.006969732721708866
267.553,0.01338686852501314,0.01338686852501314
267.554,0.02111390261036772,0.02111390261036772
267.555,0.028140158013060468,0.028140158013060468
267.556,0.03130967955948094,0.03130967955948094
267.557,0.02739296176320316,0.02739296176320316
267.558,0.014427751798543609,0.014427751798543609
267.559,0.007181990443360764,-0.007181990443360764
267.56,0.034267152320825556,-0.034267152320825556
267.561,0.06142474590899605,-0.06142474590899605
267.56199999999995,0.08238619052828444,-0.08238619052828444
267.563,0.09182556775318018,-0.09182556775318018
267.564,0.08703537245870563,-0.08703537245870563
267.565,0.0689141484927972,-0.0689141484927972
267.566,0.04191647697618661,-0.04191647697618661
267.567,0.012942656330739544,-0.012942656330739544
267.568,0.010516287301120864,0.010516287301120864
267.569,0.022425196541706605,0.022425196541706605
267.57,0.01983051754358356,0.01983051754358356
267.571,0.0035881665946997376,0.0035881665946997376
267.572,0.022000622957479954,-0.022000622957479954
267.573,0.0505035209843091,-0.0505035209843091
267.574,0.07519835659426366,-0.07519835659426366
267.575,0.09087884337111996,-0.09087884337111996
267.576,0.09510184761226359,-0.09510184761226359
267.577,0.08855100122764792,-0.08855100122764792
267.578,0.07447725536747751,-0.07447725536747751
267.579,0.057456962347159135,-0.057456962347159135
267.58,0.0418958293061894,-0.0418958293061894
267.581,0.030750551905598944,-0.030750551905598944
267.582,0.024835619441120227,-0.024835619441120227
267.583,0.022873524893023633,-0.022873524893023633
267.584,0.022204846221667074,-0.022204846221667074
267.585,0.01987758683430496,-0.01987758683430496
267.586,0.013740318435666365,-0.013740318435666365
267.587,0.0031925817297423498,-0.0031925817297423498
267.588,0.010619697905390524,0.010619697905390524
267.589,0.025185820253206037,0.025185820253206037
267.59,0.03742787750363097,0.03742787750363097
267.591,0.04463339316581294,0.04463339316581294
267.592,0.04521841715456598,0.04521841715456598
267.593,0.03908997447869922,0.03908997447869922
267.594,0.027518878875418373,0.027518878875418373
267.595,0.012596740156187947,0.012596740156187947
267.596,0.0035171693058654308,-0.0035171693058654308
267.597,0.019292557152532974,-0.019292557152532974
267.598,0.034228358559917016,-0.034228358559917016
267.599,0.04882078386017197,-0.04882078386017197
267.6,0.06411120726726593,-0.06411120726726593
267.601,0.08097095772715679,-0.08097095772715679
267.602,0.0993765698629211,-0.0993765698629211
267.603,0.11794565785693878,-0.11794565785693878
267.604,0.1339326617471085,-0.1339326617471085
267.605,0.143744162172999,-0.143744162172999
267.606,0.14386584846181238,-0.14386584846181238
267.607,0.13194856473141714,-0.13194856473141714
267.608,0.10772573576929745,-0.10772573576929745
267.609,0.07345672247557611,-0.07345672247557611
267.61,0.03370978628547139,-0.03370978628547139
267.611,0.005516074759979617,0.005516074759979617
267.612,0.03813205411824061,0.03813205411824061
267.613,0.05941278084289481,0.05941278084289481
267.614,0.06715615714007517,0.06715615714007517
267.615,0.06220836552350972,0.06220836552350972
267.616,0.04818334013923797,0.04818334013923797
267.617,0.030435997403531312,0.030435997403531312
267.618,0.014569622336087162,0.014569622336087162
267.619,0.004901316585192328,0.004901316585192328
267.62,0.0033280572801619446,0.0033280572801619446
267.621,0.008920035336537735,0.008920035336537735
267.622,0.018350265001413346,0.018350265001413346
267.623,0.02701619293405111,0.02701619293405111
267.624,0.03049954990163828,0.03049954990163828
267.625,0.025911996355547195,0.025911996355547195
267.626,0.012718538964402448,0.012718538964402448
267.627,0.007195632746495706,-0.007195632746495706
267.628,0.030202749266517115,-0.030202749266517115
267.629,0.05210396872181955,-0.05210396872181955
267.63,0.06939258783279634,-0.06939258783279634
267.631,0.08019161232614014,-0.08019161232614014
267.632,0.08457350248184659,-0.08457350248184659
267.633,0.08419145939985295,-0.08419145939985295
267.634,0.0813926967866766,-0.0813926967866766
267.635,0.07816126815149171,-0.07816126815149171
267.636,0.07529000161451449,-0.07529000161451449
267.637,0.07209046082806303,-0.07209046082806303
267.638,0.06674914329463433,-0.06674914329463433
267.639,0.05719868400727901,-0.05719868400727901
267.64,0.0421798161347513,-0.0421798161347513
267.641,0.022092227822400612,-0.022092227822400612
267.642,0.0007014230840134417,0.0007014230840134417
267.643,0.022266705050361546,0.022266705050361546
267.644,0.03808906963796144,0.03808906963796144
267.645,0.04435775561782718,0.04435775561782718
267.646,0.03912501849612249,0.03912501849612249
267.647,0.022958050814469555,0.022958050814469555
267.648,0.0011337924052450266,-0.0011337924052450266
267.649,0.028475447201791737,-0.028475447201791737
267.65,0.053956538702932155,-0.053956538702932155
267.65099999999995,0.07332532706938988,-0.07332532706938988
267.652,0.08414951583193764,-0.08414951583193764
267.653,0.08617376596748827,-0.08617376596748827
267.654,0.08101519954032332,-0.08101519954032332
267.655,0.07135835024850101,-0.07135835024850101
267.656,0.05996332452757003,-0.05996332452757003
267.657,0.04883571451217572,-0.04883571451217572
267.658,0.0388182579817693,-0.0388182579817693
267.659,0.02969096943295546,-0.02969096943295546
267.66,0.020675760763844475,-0.020675760763844475
267.661,0.011103646726245642,-0.011103646726245642
267.662,0.0009646088100716543,-0.0009646088100716543
267.66299999999995,0.008870467567764662,0.008870467567764662
267.664,0.01682296553472984,0.01682296553472984
267.665,0.02108420412464307,0.02108420412464307
267.666,0.020196774569080755,0.020196774569080755
267.667,0.013516163612646848,0.013516163612646848
267.668,0.0013975375882468999,0.0013975375882468999
267.669,0.014922163154327706,-0.014922163154327706
267.67,0.03365034609091022,-0.03365034609091022
267.671,0.052803835753016726,-0.052803835753016726
267.672,0.07045464171187432,-0.07045464171187432
267.673,0.08478608953731115,-0.08478608953731115
267.674,0.0940121060114596,-0.0940121060114596
267.67499999999995,0.0963115108474415,-0.0963115108474415
267.676,0.0899525063943174,-0.0899525063943174
267.677,0.07370935092852626,-0.07370935092852626
267.678,0.047524992277115596,-0.047524992277115596
267.679,0.013208622291800531,-0.013208622291800531
267.68,0.02515040856774342,0.02515040856774342
267.681,0.06136127472281627,0.06136127472281627
267.682,0.08806594079780972,0.08806594079780972
267.683,0.0983436331607559,0.0983436331607559
267.684,0.08762937540969684,0.08762937540969684
267.685,0.05539736626053138,0.05539736626053138
267.686,0.006028783537481708,0.006028783537481708
267.68699999999995,0.05155069138079982,-0.05155069138079982
267.688,0.10554776217801298,-0.10554776217801298
267.689,0.14397542480930903,-0.14397542480930903
267.69,0.15766183461116712,-0.15766183461116712
267.691,0.1427639697671147,-0.1427639697671147
267.692,0.10203401416805646,-0.10203401416805646
267.693,0.04440322334518132,-0.04440322334518132
267.694,0.017082759069585007,0.017082759069585007
267.695,0.0684619599530718,0.0684619599530718
267.696,0.09832918841965888,0.09832918841965888
267.697,0.10063152777140894,0.10063152777140894
267.698,0.07602215164899029,0.07602215164899029
267.699,0.031425005920659776,0.031425005920659776
267.7,0.0220199602553105,-0.0220199602553105
267.701,0.07200278879797695,-0.07200278879797695
267.702,0.10819211763539816,-0.10819211763539816
267.703,0.12461075038172309,-0.12461075038172309
267.704,0.12063640998298986,-0.12063640998298986
267.705,0.1004662287362903,-0.1004662287362903
267.706,0.07134640993204688,-0.07134640993204688
267.707,0.0412085193626327,-0.0412085193626327
267.708,0.016471348857340362,-0.016471348857340362
267.709,0.0006389993768327606,-0.0006389993768327606
267.71,0.00599066095654277,0.00599066095654277
267.711,0.005581922191493893,0.005581922191493893
267.712,0.0013848135611806978,0.0013848135611806978
267.713,0.0037069786029421126,-0.0037069786029421126
267.714,0.00814170743389786,-0.00814170743389786
267.715,0.011938643267540794,-0.011938643267540794
267.716,0.016170824170426257,-0.016170824170426257
267.717,0.02199508257770999,-0.02199508257770999
267.718,0.029680098925181975,-0.029680098925181975
267.719,0.03806395540826557,-0.03806395540826557
267.72,0.044691432482801385,-0.044691432482801385
267.721,0.04660951891038445,-0.04660951891038445
267.722,0.0415384742554854,-0.0415384742554854
267.723,0.028979752207637377,-0.028979752207637377
267.724,0.010826076123757744,-0.010826076123757744
267.725,0.00879964179140913,0.00879964179140913
267.726,0.02448858595774439,0.02448858595774439
267.727,0.031015568392520176,0.031015568392520176
267.728,0.02488957241690315,0.02488957241690315
267.729,0.005500848615633824,0.005500848615633824
267.73,0.024502095424317027,-0.024502095424317027
267.731,0.05973719399224786,-0.05973719399224786
267.732,0.09337255870380523,-0.09337255870380523
267.733,0.11880150072345652,-0.11880150072345652
267.734,0.13123429531847963,-0.13123429531847963
267.735,0.12877213363541584,-0.12877213363541584
267.736,0.11269619707954293,-0.11269619707954293
267.737,0.0869416275748518,-0.0869416275748518
267.738,0.05695626929719744,-0.05695626929719744
267.739,0.02829873610079925,-0.02829873610079925
267.74,0.005369440735927045,-0.005369440735927045
267.741,0.009409603846064707,0.009409603846064707
267.742,0.015810520004616135,0.015810520004616135
267.743,0.015441176025753567,0.015441176025753567
267.744,0.010996595845645496,0.010996595845645496
267.745,0.005383413915215796,0.005383413915215796
267.746,0.0009717323871885064,0.0009717323871885064
267.747,0.0008532223590276278,-0.0008532223590276278
267.748,0.00021368987886583035,0.00021368987886583035
267.749,0.0035953712645078184,0.0035953712645078184
267.75,0.00819049374937264,0.00819049374937264
267.751,0.012743262279357292,0.012743262279357292
267.752,0.016113689474710702,0.016113689474710702
267.753,0.017405149316288115,0.017405149316288115
267.754,0.015975305540376405,0.015975305540376405
267.755,0.011400895534856126,0.011400895534856126
267.756,0.0034720789910689387,0.0034720789910689387
267.757,0.007740144250488079,-0.007740144250488079
267.758,0.02175373465088981,-0.02175373465088981
267.759,0.037544781029993035,-0.037544781029993035
267.76,0.05350559448258119,-0.05350559448258119
267.761,0.06757068795159471,-0.06757068795159471
267.762,0.0775412112958408,-0.0775412112958408
267.763,0.08156646812365909,-0.08156646812365909
267.764,0.07866962277470413,-0.07866962277470413
267.765,0.06915983680687177,-0.06915983680687177
267.766,0.05477480586339323,-0.05477480586339323
267.767,0.03845263530806797,-0.03845263530806797
267.768,0.023730085436594717,-0.023730085436594717
267.769,0.013880006786233356,-0.013880006786233356
267.77,0.010999798978093334,-0.010999798978093334
267.771,0.015311165895689482,-0.015311165895689482
267.772,0.024906838662858255,-0.024906838662858255
267.773,0.03607963369792855,-0.03607963369792855
267.774,0.044213778564607176,-0.044213778564607176
267.775,0.04504832658839342,-0.04504832658839342
267.77599999999995,0.035988000965780254,-0.035988000965780254
267.777,0.017083659434194542,-0.017083659434194542
267.778,0.008641082730479033,0.008641082730479033
267.779,0.035682724308620184,0.035682724308620184
267.78,0.05731125809214621,0.05731125809214621
267.781,0.06729510959612628,0.06729510959612628
267.782,0.061643154497188934,0.061643154497188934
267.783,0.03986506913856913,0.03986506913856913
267.784,0.005352838156096329,0.005352838156096329
267.785,0.03528499274751029,-0.03528499274751029
267.786,0.07380870491556346,-0.07380870491556346
267.787,0.10244730443326688,-0.10244730443326688
267.78799999999995,0.11593521500781934,-0.11593521500781934
267.789,0.11289999759505986,-0.11289999759505986
267.79,0.09618364895822751,-0.09618364895822751
267.791,0.07198189225244911,-0.07198189225244911
267.792,0.048034133497874554,-0.048034133497874554
267.793,0.031385407384570185,-0.031385407384570185
267.794,0.026378835933018152,-0.026378835933018152
267.795,0.03347537307907911,-0.03347537307907911
267.796,0.04925088477336248,-0.04925088477336248
267.797,0.0675621647690452,-0.0675621647690452
267.798,0.08151412488788468,-0.08151412488788468
267.799,0.08561371449563715,-0.08561371449563715
267.79999999999995,0.07744168056989975,-0.07744168056989975
267.801,0.058329983857371315,-0.058329983857371315
267.802,0.03285150223231259,-0.03285150223231259
267.803,0.007307594373560544,-0.007307594373560544
267.804,0.012283998686701603,0.012283998686701603
267.805,0.022045980478041738,0.022045980478041738
267.806,0.02134893296537066,0.02134893296537066
267.807,0.012828229553038417,0.012828229553038417
267.808,0.001330345955850687,0.001330345955850687
267.809,0.007841672062080307,-0.007841672062080307
267.81,0.010789917852539799,-0.010789917852539799
267.811,0.006370990149918154,-0.006370990149918154
267.81199999999995,0.0034084315752407335,0.0034084315752407335
267.813,0.014070908393910342,0.014070908393910342
267.814,0.020188750717089254,0.020188750717089254
267.815,0.01724004777818955,0.01724004777818955
267.816,0.0031930446700436654,0.0031930446700436654
267.817,0.02069007827319025,-0.02069007827319025
267.818,0.050078411276515356,-0.050078411276515356
267.819,0.0787418363498611,-0.0787418363498611
267.82,0.10028536815043698,-0.10028536815043698
267.821,0.10990625194923698,-0.10990625194923698
267.822,0.1056480889897986,-0.1056480889897986
267.823,0.08880722647706185,-0.08880722647706185
267.824,0.06342472754684869,-0.06342472754684869
267.825,0.03507699013861443,-0.03507699013861443
267.826,0.009369715837506565,-0.009369715837506565
267.827,0.009410929607294394,0.009410929607294394
267.828,0.019132527854427428,0.019132527854427428
267.829,0.019975036168488725,0.019975036168488725
267.83,0.013974845104337552,0.013974845104337552
267.831,0.004187188967051059,0.004187188967051059
267.832,0.006228488816628408,-0.006228488816628408
267.833,0.014733798679862353,-0.014733798679862353
267.834,0.019798743434178978,-0.019798743434178978
267.835,0.020945345194455678,-0.020945345194455678
267.836,0.018553110539959117,-0.018553110539959117
267.837,0.013575514791373533,-0.013575514791373533
267.838,0.007288391248875259,-0.007288391248875259
267.839,0.0011170919053853368,-0.0011170919053853368
267.84,0.0034876270524784037,0.0034876270524784037
267.841,0.005195137792534776,0.005195137792534776
267.842,0.003016099219490753,0.003016099219490753
267.843,0.003409317487395591,-0.003409317487395591
267.844,0.013541281025296281,-0.013541281025296281
267.845,0.02582195954634925,-0.02582195954634925
267.846,0.03783170232357691,-0.03783170232357691
267.847,0.0467655097395826,-0.0467655097395826
267.848,0.050156247649700614,-0.050156247649700614
267.849,0.04665489092784525,-0.04665489092784525
267.85,0.03661480399966388,-0.03661480399966388
267.851,0.022250249522016485,-0.022250249522016485
267.852,0.00725134316153242,-0.00725134316153242
267.853,0.004093553875685441,0.004093553875685441
267.854,0.008047909642534323,0.008047909642534323
267.855,0.0025206672101429906,0.0025206672101429906
267.856,0.012231655212765036,-0.012231655212765036
267.857,0.03352565332467239,-0.03352565332467239
267.858,0.05684291066148528,-0.05684291066148528
267.859,0.07693900424449762,-0.07693900424449762
267.86,0.08916027772949198,-0.08916027772949198
267.861,0.09060128898128905,-0.09060128898128905
267.862,0.0807922219561712,-0.0807922219561712
267.863,0.06175358394231967,-0.06175358394231967
267.864,0.037442904552195566,-0.037442904552195566
267.865,0.012782521838618166,-0.012782521838618166
267.866,0.007451013974968834,0.007451013974968834
267.867,0.019597386566453823,0.019597386566453823
267.868,0.021745880953902397,0.021745880953902397
267.869,0.013956094202499436,0.013956094202499436
267.87,0.001896598018888751,-0.001896598018888751
267.871,0.02254542016847183,-0.02254542016847183
267.872,0.043909681443653925,-0.043909681443653925
267.873,0.061738567770893815,-0.061738567770893815
267.874,0.07227329545544559,-0.07227329545544559
267.875,0.07289543196962234,-0.07289543196962234
267.876,0.0627070747307854,-0.0627070747307854
267.877,0.042939767391401706,-0.042939767391401706
267.878,0.017046767904433824,-0.017046767904433824
267.879,0.009662462519659742,0.009662462519659742
267.88,0.03090977471250511,0.03090977471250511
267.881,0.0407770034467585,0.0407770034467585
267.882,0.035221659967609176,0.035221659967609176
267.883,0.013388705188508654,0.013388705188508654
267.884,0.02170698748273925,-0.02170698748273925
267.885,0.06344589419034008,-0.06344589419034008
267.886,0.10289568472840038,-0.10289568472840038
267.887,0.13089783610936545,-0.13089783610936545
267.888,0.14043386106771238,-0.14043386106771238
267.889,0.12860322137857605,-0.12860322137857605
267.89,0.09759285685299157,-0.09759285685299157
267.891,0.0542739092203115,-0.0542739092203115
267.892,0.008459464832457075,-0.008459464832457075
267.893,0.029723237679279535,0.029723237679279535
267.894,0.05259074907831862,0.05259074907831862
267.895,0.05696103471543834,0.05696103471543834
267.896,0.04487087725972083,0.04487087725972083
267.897,0.02271963089707496,0.02271963089707496
267.898,0.0008976915187653978,-0.0008976915187653978
267.899,0.01798106859437032,-0.01798106859437032
267.9,0.023645545076944385,-0.023645545076944385
267.90099999999995,0.01756077370468545,-0.01756077370468545
267.902,0.0038539726375045325,-0.0038539726375045325
267.903,0.010471101333036303,0.010471101333036303
267.904,0.018053218965477402,0.018053218965477402
267.905,0.013774360957995002,0.013774360957995002
267.906,0.0034351671449097676,-0.0034351671449097676
267.907,0.03018734484048402,-0.03018734484048402
267.908,0.059742853292756415,-0.059742853292756415
267.909,0.08423572749475661,-0.08423572749475661
267.91,0.09724228556400805,-0.09724228556400805
267.911,0.095814853538568,-0.095814853538568
267.912,0.08130082401686567,-0.08130082401686567
267.91299999999995,0.05870059926489546,-0.05870059926489546
267.914,0.034829882987563954,-0.034829882987563954
267.915,0.015961708374537587,-0.015961708374537587
267.916,0.005788163987972994,-0.005788163987972994
267.917,0.004406070305632448,-0.004406070305632448
267.918,0.008647508462466091,-0.008647508462466091
267.919,0.013585799426289014,-0.013585799426289014
267.92,0.014627859512353458,-0.014627859512353458
267.921,0.009405011118777229,-0.009405011118777229
267.922,0.0012349886462694748,0.0012349886462694748
267.923,0.013488797484767723,0.013488797484767723
267.924,0.02199826143968875,0.02199826143968875
267.92499999999995,0.021859625828323015,0.021859625828323015
267.926,0.010492571887988023,0.010492571887988023
267.927,0.011317856610634447,-0.011317856610634447
267.928,0.039578963582337034,-0.039578963582337034
267.929,0.06837238986691496,-0.06837238986691496
267.93,0.09177144340114451,-0.09177144340114451
267.931,0.10567934403511392,-0.10567934403511392
267.932,0.10891916031871407,-0.10891916031871407
267.933,0.10320288232111607,-0.10320288232111607
267.934,0.09204149239501569,-0.09204149239501569
267.935,0.07906454638464999,-0.07906454638464999
267.936,0.0664415313163611,-0.0664415313163611
267.93699999999995,0.054051933320404144,-0.054051933320404144
267.938,0.03975226312934843,-0.03975226312934843
267.939,0.020648778946235402,-0.020648778946235402
267.94,0.005127953846440603,0.005127953846440603
267.941,0.03687612928456585,0.03687612928456585
267.942,0.07067973697668073,0.07067973697668073
267.943,0.10002654910110698,0.10002654910110698
267.944,0.11757233682464818,0.11757233682464818
267.945,0.11748698594164741,0.11748698594164741
267.946,0.09756138072118725,0.09756138072118725
267.947,0.06029293276598757,0.06029293276598757
267.948,0.01249784124206732,0.01249784124206732
267.949,0.036493230079227,-0.036493230079227
267.95,0.07749388363176035,-0.07749388363176035
267.951,0.10409514916205476,-0.10409514916205476
267.952,0.11438280457088912,-0.11438280457088912
267.953,0.11115578188671416,-0.11115578188671416
267.954,0.10058197193171192,-0.10058197193171192
267.955,0.08977546418627635,-0.08977546418627635
267.956,0.08415880100236273,-0.08415880100236273
267.957,0.08554729604777844,-0.08554729604777844
267.958,0.09163124921240984,-0.09163124921240984
267.959,0.09702798222289022,-0.09702798222289022
267.96,0.09550920625964021,-0.09550920625964021
267.961,0.08258399845921416,-0.08258399845921416
267.962,0.057487192861410685,-0.057487192861410685
267.963,0.02383499421593216,-0.02383499421593216
267.964,0.011311657127943242,0.011311657127943242
267.965,0.03966212037697048,0.03966212037697048
267.966,0.0544141145953021,0.0544141145953021
267.967,0.052515806256448805,0.052515806256448805
267.968,0.035673031027052104,0.035673031027052104
267.969,0.009748476259497707,0.009748476259497707
267.97,0.017229827452971525,-0.017229827452971525
267.971,0.03774319040059371,-0.03774319040059371
267.972,0.047198086591172306,-0.047198086591172306
267.973,0.04524451968729426,-0.04524451968729426
267.974,0.03555992575148437,-0.03555992575148437
267.975,0.024214584607238465,-0.024214584607238465
267.976,0.01723894753896016,-0.01723894753896016
267.977,0.018288676550785254,-0.018288676550785254
267.978,0.027253395395173463,-0.027253395395173463
267.979,0.04030221425123437,-0.04030221425123437
267.98,0.05133390053461806,-0.05133390053461806
267.981,0.054293256101713205,-0.054293256101713205
267.982,0.04550936939177541,-0.04550936939177541
267.983,0.02521249613183274,-0.02521249613183274
267.984,0.0023113148887625723,0.0023113148887625723
267.985,0.029979025925316316,0.029979025925316316
267.986,0.05013591252062177,0.05013591252062177
267.987,0.05697186803680854,0.05697186803680854
267.988,0.048306789584962484,0.048306789584962484
267.989,0.02616691713611874,0.02616691713611874
267.99,0.003988596033523195,-0.003988596033523195
267.991,0.03506377748546652,-0.03506377748546652
267.992,0.06048752484414133,-0.06048752484414133
267.993,0.07600338771791437,-0.07600338771791437
267.994,0.08053506288725087,-0.08053506288725087
267.995,0.07594385354512567,-0.07594385354512567
267.996,0.0659005664442085,-0.0659005664442085
267.997,0.05438546408673817,-0.05438546408673817
267.998,0.044404435160926514,-0.044404435160926514
267.999,0.03735385226678212,-0.03735385226678212
268.0,0.033156843746520726,-0.033156843746520726
268.001,0.03096308367165168,-0.03096308367165168
268.002,0.029988493193632837,-0.029988493193632837
268.003,0.03005452356675864,-0.03005452356675864
268.004,0.03156832095318629,-0.03156832095318629
268.005,0.03498097786106624,-0.03498097786106624
268.006,0.04003874180420208,-0.04003874180420208
268.007,0.045275452960992335,-0.045275452960992335
268.008,0.048117108003397524,-0.048117108003397524
268.009,0.04570405974302816,-0.04570405974302816
268.01,0.03618895542179035,-0.03618895542179035
268.011,0.01998784638294293,-0.01998784638294293
268.012,0.0003796662527937311,-0.0003796662527937311
268.013,0.01697583179456963,0.01697583179456963
268.014,0.02564339529990134,0.02564339529990134
268.015,0.020717470525617898,0.020717470525617898
268.016,0.0010432719535415913,0.0010432719535415913
268.017,0.029528704771967673,-0.029528704771967673
268.018,0.06250337536950556,-0.06250337536950556
268.019,0.08685189975657148,-0.08685189975657148
268.02,0.09237842385834427,-0.09237842385834427
268.021,0.07332715967376768,-0.07332715967376768
268.022,0.031003626932758488,-0.031003626932758488
268.023,0.025610219092266684,0.025610219092266684
268.024,0.08168192305602284,0.08168192305602284
268.025,0.12044184371498723,0.12044184371498723
268.02599999999995,0.12809885243341523,0.12809885243341523
268.027,0.09825667437459029,0.09825667437459029
268.028,0.03438963901513836,0.03438963901513836
268.029,0.05051936211258601,-0.05051936211258601
268.03,0.1372079063349152,-0.1372079063349152
268.031,0.20534425277236135,-0.20534425277236135
268.032,0.23917425851160712,-0.23917425851160712
268.033,0.23188470074494827,-0.23188470074494827
268.034,0.18733994437069057,-0.18733994437069057
268.035,0.11866544317888561,-0.11866544317888561
268.036,0.044144707166972275,-0.044144707166972275
268.037,0.018258960607707042,0.018258960607707042
268.03799999999995,0.05602672011348875,0.05602672011348875
268.039,0.06527109823219779,0.06527109823219779
268.04,0.05106086938117582,0.05106086938117582
268.041,0.024908441386823243,0.024908441386823243
268.042,0.00036582496652193264,0.00036582496652193264
268.043,0.011736978958625466,-0.011736978958625466
268.044,0.0068139277445916635,-0.0068139277445916635
268.045,0.012319779382380824,0.012319779382380824
268.046,0.036942124044195834,0.036942124044195834
268.047,0.05594501931014251,0.05594501931014251
268.048,0.06008080946256045,0.06008080946256045
268.049,0.045421293137742236,0.045421293137742236
268.04999999999995,0.014829075185245344,0.014829075185245344
268.051,0.023038478441211097,-0.023038478441211097
268.052,0.056800626046750735,-0.056800626046750735
268.053,0.07638850618965465,-0.07638850618965465
268.054,0.07661163198837473,-0.07661163198837473
268.055,0.05900436158897515,-0.05900436158897515
268.056,0.031314069029113156,-0.031314069029113156
268.057,0.0048186507219142305,-0.0048186507219142305
268.058,0.009588649484238099,0.009588649484238099
268.059,0.005191893339361986,0.005191893339361986
268.06,0.018178317063978877,-0.018178317063978877
268.061,0.054000334189258425,-0.054000334189258425
268.06199999999995,0.09117685808573195,-0.09117685808573195
268.063,0.11767939452452525,-0.11767939452452525
268.064,0.12448631317301206,-0.12448631317301206
268.065,0.10850201709449403,-0.10850201709449403
268.066,0.07351178952795068,-0.07351178952795068
268.067,0.02890275423305333,-0.02890275423305333
268.068,0.013370700824187232,0.013370700824187232
268.069,0.042533272404364775,0.042533272404364775
268.07,0.05220501636668606,0.05220501636668606
268.071,0.042069109085288714,0.042069109085288714
268.072,0.017526832868819175,0.017526832868819175
268.073,0.012439165786018891,-0.012439165786018891
268.074,0.038392237767476134,-0.038392237767476134
268.075,0.053474753689875976,-0.053474753689875976
268.076,0.055356186158043386,-0.055356186158043386
268.077,0.04652771369420594,-0.04652771369420594
268.078,0.032964609511780374,-0.032964609511780374
268.079,0.021725660871037222,-0.021725660871037222
268.08,0.018380329379205085,-0.018380329379205085
268.081,0.02515203636469776,-0.02515203636469776
268.082,0.04035939411714484,-0.04035939411714484
268.083,0.05925018075706512,-0.05925018075706512
268.084,0.07583500373345597,-0.07583500373345597
268.085,0.08500878965702885,-0.08500878965702885
268.086,0.08419957262028088,-0.08419957262028088
268.087,0.07400589756434717,-0.07400589756434717
268.088,0.05768132853516772,-0.05768132853516772
268.089,0.0397451010080343,-0.0397451010080343
268.09,0.02429022493255706,-0.02429022493255706
268.091,0.013627155963761073,-0.013627155963761073
268.092,0.0077318851644473385,-0.0077318851644473385
268.093,0.004637326380968254,-0.004637326380968254
268.094,0.0015460270493903305,-0.0015460270493903305
268.095,0.0038150539930281724,0.0038150539930281724
268.096,0.01214086723816954,0.01214086723816954
268.097,0.022195132923132688,0.022195132923132688
268.098,0.03126909565825531,0.03126909565825531
268.099,0.03624536436550718,0.03624536436550718
268.1,0.03483282058816051,0.03483282058816051
268.101,0.026484945678446392,0.026484945678446392
268.102,0.01264863345894729,0.01264863345894729
268.103,0.003742842612060704,-0.003742842612060704
268.104,0.01932513462430585,-0.01932513462430585
268.105,0.03148999492315885,-0.03148999492315885
268.106,0.03924212958127382,-0.03924212958127382
268.107,0.043395911863457814,-0.043395911863457814
268.108,0.046040437899661835,-0.046040437899661835
268.109,0.04948663720133606,-0.04948663720133606
268.11,0.055114102730625336,-0.055114102730625336
268.111,0.06258093982967161,-0.06258093982967161
268.112,0.06972966241567724,-0.06972966241567724
268.113,0.07326384829423471,-0.07326384829423471
268.114,0.06997907533425862,-0.06997907533425862
268.115,0.058114817149936604,-0.058114817149936604
268.116,0.03833148666522679,-0.03833148666522679
268.117,0.013932563071203496,-0.013932563071203496
268.118,0.009794722223684715,0.009794722223684715
268.119,0.026944963266249067,0.026944963266249067
268.12,0.03264755666584107,0.03264755666584107
268.121,0.0244871903326771,0.0244871903326771
268.122,0.0032470023975619267,0.0032470023975619267
268.123,0.027248000653330107,-0.027248000653330107
268.124,0.061119143754995164,-0.061119143754995164
268.125,0.0919278015956213,-0.0919278015956213
268.126,0.1142091218543384,-0.1142091218543384
268.127,0.124600964495582,-0.124600964495582
268.128,0.12228827026149025,-0.12228827026149025
268.129,0.10872698034341588,-0.10872698034341588
268.13,0.0868449437716966,-0.0868449437716966
268.131,0.06005945012785807,-0.06005945012785807
268.132,0.031459172084601805,-0.031459172084601805
268.133,0.0033808423923352704,-0.0033808423923352704
268.134,0.02257781133398451,0.02257781133398451
268.135,0.045249724826469384,0.045249724826469384
268.136,0.06354059730232997,0.06354059730232997
268.137,0.07625760325806685,0.07625760325806685
268.138,0.082246234489886,0.082246234489886
268.139,0.08078898664979595,0.08078898664979595
268.14,0.0720715427183456,0.0720715427183456
268.141,0.05745871790258161,0.05745871790258161
268.142,0.03937473648250589,0.03937473648250589
268.143,0.02073456864284018,0.02073456864284018
268.144,0.004067438754428387,0.004067438754428387
268.145,0.009367793303108995,-0.009367793303108995
268.146,0.020121447988917684,-0.020121447988917684
268.147,0.030474181811535495,-0.030474181811535495
268.148,0.04366809296907315,-0.04366809296907315
268.149,0.06262692247727564,-0.06262692247727564
268.15,0.08855831751145327,-0.08855831751145327
268.15099999999995,0.11992493622092448,-0.11992493622092448
268.152,0.15220071565398918,-0.15220071565398918
268.153,0.17860568048599135,-0.17860568048599135
268.154,0.19170367684153533,-0.19170367684153533
268.155,0.18545258653703156,-0.18545258653703156
268.156,0.15711639624092522,-0.15711639624092522
268.157,0.10844903831926356,-0.10844903831926356
268.158,0.045749090798735126,-0.045749090798735126
268.159,0.021292405070080456,0.021292405070080456
268.16,0.081671845570632,0.081671845570632
268.161,0.12552410223800026,0.12552410223800026
268.162,0.146278875385075,0.146278875385075
268.16299999999995,0.14195005707367003,0.14195005707367003
268.164,0.11525095840576638,0.11525095840576638
268.165,0.07257868589993688,0.07257868589993688
268.166,0.02223389996121905,0.02223389996121905
268.167,0.027563890923056666,-0.027563890923056666
268.168,0.07029727901148763,-0.07029727901148763
268.169,0.10201168141180794,-0.10201168141180794
268.17,0.12130533581870218,-0.12130533581870218
268.171,0.12863645496510068,-0.12863645496510068
268.172,0.12534367646121314,-0.12534367646121314
268.173,0.11282589352840622,-0.11282589352840622
268.174,0.09220839970827777,-0.09220839970827777
268.17499999999995,0.06458350594864481,-0.06458350594864481
268.176,0.03164714557350823,-0.03164714557350823
268.177,0.003640148329536075,0.003640148329536075
268.178,0.03678412750519122,0.03678412750519122
268.179,0.062170229598716986,0.062170229598716986
268.18,0.0741945249876872,0.0741945249876872
268.181,0.06885062138766829,0.06885062138766829
268.182,0.045281125426192004,0.045281125426192004
268.183,0.006728553271168947,0.006728553271168947
268.184,0.039557932023730924,-0.039557932023730924
268.185,0.08361339147017344,-0.08361339147017344
268.186,0.1150257786561687,-0.1150257786561687
268.18699999999995,0.12562466548540896,-0.12562466548540896
268.188,0.11184280207075037,-0.11184280207075037
268.189,0.07603292392989836,-0.07603292392989836
268.19,0.026274884182062475,-0.026274884182062475
268.191,0.025382341330642433,0.025382341330642433
268.192,0.06585043374044641,0.06585043374044641
268.193,0.08435526411528271,0.08435526411528271
268.194,0.07531420871182815,0.07531420871182815
268.195,0.039938483562572236,0.039938483562572236
268.196,0.013907611483316651,-0.013907611483316651
268.197,0.07358980773546175,-0.07358980773546175
268.198,0.1248536082442454,-0.1248536082442454
268.199,0.15541783773501283,-0.15541783773501283
268.2,0.15806724936252248,-0.15806724936252248
268.201,0.13243546586481358,-0.13243546586481358
268.202,0.08502356817041656,-0.08502356817041656
268.203,0.02747167044382426,-0.02747167044382426
268.204,0.0264397438973194,0.0264397438973194
268.205,0.0642590474458502,0.0642590474458502
