Czas,AbsSum,Sum
264.655,0.11031213677726659,-0.11031213677726659
264.656,0.08789275178956568,-0.08789275178956568
264.657,0.06348475479991156,-0.06348475479991156
264.658,0.04298663777921341,-0.04298663777921341
264.659,0.030883912085022835,-0.030883912085022835
264.66,0.028931466610710665,-0.028931466610710665
264.661,0.03576871577992968,-0.03576871577992968
264.662,0.04757194397054165,-0.04757194397054165
264.66299999999995,0.059491751450782115,-0.059491751450782115
264.664,0.06736113281373224,-0.06736113281373224
264.665,0.06908127717249335,-0.06908127717249335
264.666,0.06522126170039488,-0.06522126170039488
264.667,0.058654576220455334,-0.058654576220455334
264.668,0.05339560087484485,-0.05339560087484485
264.669,0.0530720995109053,-0.0530720995109053
264.67,0.059581565157566074,-0.059581565157566074
264.671,0.07239539255973204,-0.07239539255973204
264.672,0.0887311219486473,-0.0887311219486473
264.673,0.10450081789996435,-0.10450081789996435
264.674,0.11567592651590264,-0.11567592651590264
264.67499999999995,0.11957906883291636,-0.11957906883291636
264.676,0.11566208884708551,-0.11566208884708551
264.677,0.10553260206269988,-0.10553260206269988
264.678,0.09226898638449921,-0.09226898638449921
264.679,0.07931280385180983,-0.07931280385180983
264.68,0.06935895045819396,-0.06935895045819396
264.681,0.06363479255953608,-0.06363479255953608
264.682,0.06178824015323747,-0.06178824015323747
264.683,0.06236134222864953,-0.06236134222864953
264.684,0.06360525741197653,-0.06360525741197653
264.685,0.06427740449031039,-0.06427740449031039
264.686,0.06409265732992697,-0.06409265732992697
264.68699999999995,0.06366103203469031,-0.06366103203469031
264.688,0.06396816461508825,-0.06396816461508825
264.689,0.06565209107114611,-0.06565209107114611
264.69,0.06842159160209837,-0.06842159160209837
264.691,0.07091017831051427,-0.07091017831051427
264.692,0.07108403779170291,-0.07108403779170291
264.693,0.06708928277936688,-0.06708928277936688
264.694,0.05822474791383114,-0.05822474791383114
264.695,0.04564140714389986,-0.04564140714389986
264.696,0.03243679878180461,-0.03243679878180461
264.697,0.023014126793962197,-0.023014126793962197
264.698,0.0218412614095278,-0.0218412614095278
264.699,0.031978710028142454,-0.031978710028142454
264.7,0.05386048898759177,-0.05386048898759177
264.701,0.08476129382730735,-0.08476129382730735
264.702,0.11917947433180953,-0.11917947433180953
264.703,0.15007500527322426,-0.15007500527322426
264.704,0.17062333688878306,-0.17062333688878306
264.705,0.1759748476976395,-0.1759748476976395
264.706,0.16450385138449153,-0.16450385138449153
264.707,0.1381917768018236,-0.1381917768018236
264.708,0.10206028000115597,-0.10206028000115597
264.709,0.06285908020024733,-0.06285908020024733
264.71,0.027424083111118436,-0.027424083111118436
264.711,0.0011877680711920302,-0.0011877680711920302
264.712,0.012768020422073478,0.012768020422073478
264.713,0.01393555539881186,0.01393555539881186
264.714,0.003945903028779174,0.003945903028779174
264.715,0.014264430798066496,-0.014264430798066496
264.716,0.037342696967754496,-0.037342696967754496
264.717,0.06217400334792955,-0.06217400334792955
264.718,0.08616118553890784,-0.08616118553890784
264.719,0.10717572439404899,-0.10717572439404899
264.72,0.12336561135339164,-0.12336561135339164
264.721,0.133047892987453,-0.133047892987453
264.722,0.1348438874961575,-0.1348438874961575
264.723,0.1280673284558429,-0.1280673284558429
264.724,0.11321585991102068,-0.11321585991102068
264.725,0.09231601268514189,-0.09231601268514189
264.726,0.06887947515497517,-0.06887947515497517
264.727,0.04734932661596669,-0.04734932661596669
264.728,0.0321074971974854,-0.0321074971974854
264.729,0.026305812305286058,-0.026305812305286058
264.73,0.03089512158684915,-0.03089512158684915
264.731,0.04420862257716329,-0.04420862257716329
264.732,0.06230200542058484,-0.06230200542058484
264.733,0.08001091886559386,-0.08001091886559386
264.734,0.09243786804174425,-0.09243786804174425
264.735,0.09641529566077078,-0.09641529566077078
264.736,0.09147295894879381,-0.09147295894879381
264.737,0.07997974334985247,-0.07997974334985247
264.738,0.06639022640140202,-0.06639022640140202
264.739,0.055819093698751376,-0.055819093698751376
264.74,0.052392556804602974,-0.052392556804602974
264.741,0.05790669132600457,-0.05790669132600457
264.742,0.07122819687155335,-0.07122819687155335
264.743,0.08863323691154557,-0.08863323691154557
264.744,0.10497438659672453,-0.10497438659672453
264.745,0.11529659753385679,-0.11529659753385679
264.746,0.1163803048910349,-0.1163803048910349
264.747,0.10771999111927077,-0.10771999111927077
264.748,0.09163753263370666,-0.09163753263370666
264.749,0.07251537827210475,-0.07251537827210475
264.75,0.05541829649708707,-0.05541829649708707
264.751,0.044560171484845146,-0.044560171484845146
264.752,0.04210486398022406,-0.04210486398022406
264.753,0.047662039577210935,-0.047662039577210935
264.754,0.05859867963569665,-0.05859867963569665
264.755,0.07101898520925243,-0.07101898520925243
264.756,0.0810595493305395,-0.0810595493305395
264.757,0.08606792588566614,-0.08606792588566614
264.758,0.08529998541732386,-0.08529998541732386
264.759,0.07995347414401877,-0.07995347414401877
264.76,0.07258390324852193,-0.07258390324852193
264.761,0.0661447718948176,-0.0661447718948176
264.762,0.0629941978847387,-0.0629941978847387
264.763,0.06418849127110515,-0.06418849127110515
264.764,0.06925779984947678,-0.06925779984947678
264.765,0.07648163472875713,-0.07648163472875713
264.766,0.0835182125057512,-0.0835182125057512
264.767,0.08814577370251897,-0.08814577370251897
264.768,0.08887174053601832,-0.08887174053601832
264.769,0.08524631215144474,-0.08524631215144474
264.77,0.07784160884790381,-0.07784160884790381
264.771,0.06797485307389328,-0.06797485307389328
264.772,0.057321922984735374,-0.057321922984735374
264.773,0.04756746955536417,-0.04756746955536417
264.774,0.040180134261943334,-0.040180134261943334
264.775,0.03631898258558963,-0.03631898258558963
264.77599999999995,0.036809941890958764,-0.036809941890958764
264.777,0.042108628472836696,-0.042108628472836696
264.778,0.05219605970756236,-0.05219605970756236
264.779,0.06641926058748848,-0.06641926058748848
264.78,0.08335588942935734,-0.08335588942935734
264.781,0.10081525900504407,-0.10081525900504407
264.782,0.11606614235210844,-0.11606614235210844
264.783,0.12630721527355515,-0.12630721527355515
264.784,0.12929565746519178,-0.12929565746519178
264.785,0.12396401533957713,-0.12396401533957713
264.786,0.1108232452944028,-0.1108232452944028
264.787,0.0919907977003791,-0.0919907977003791
264.78799999999995,0.07078884247359474,-0.07078884247359474
264.789,0.05099514195220656,-0.05099514195220656
264.79,0.03594909441898153,-0.03594909441898153
264.791,0.02777316316733236,-0.02777316316733236
264.792,0.026941268300728405,-0.026941268300728405
264.793,0.032317574439026275,-0.032317574439026275
264.794,0.04163756484652137,-0.04163756484652137
264.795,0.05226108675030583,-0.05226108675030583
264.796,0.061944355758019376,-0.061944355758019376
264.797,0.06938375556822807,-0.06938375556822807
264.798,0.07437563907870282,-0.07437563907870282
264.799,0.07757908967785743,-0.07757908967785743
264.79999999999995,0.08001006622320428,-0.08001006622320428
264.801,0.0824839102147984,-0.0824839102147984
264.802,0.08522750941497381,-0.08522750941497381
264.803,0.0878030898783817,-0.0878030898783817
264.804,0.08935477638296552,-0.08935477638296552
264.805,0.08905803137463653,-0.08905803137463653
264.806,0.08657170661806057,-0.08657170661806057
264.807,0.08229361832894722,-0.08229361832894722
264.808,0.07730233237272988,-0.07730233237272988
264.809,0.07299771430749291,-0.07299771430749291
264.81,0.07057917073721243,-0.07057917073721243
264.811,0.07057267170935622,-0.07057267170935622
264.81199999999995,0.07260560328472532,-0.07260560328472532
264.813,0.0755350431434525,-0.0755350431434525
264.814,0.07789527644797933,-0.07789527644797933
264.815,0.07849863754096165,-0.07849863754096165
264.816,0.07695290440614122,-0.07695290440614122
264.817,0.07387909049845576,-0.07387909049845576
264.818,0.07072134784846096,-0.07072134784846096
264.819,0.06919728950885129,-0.06919728950885129
264.82,0.07058330495158083,-0.07058330495158083
264.821,0.07510788283134362,-0.07510788283134362
264.822,0.08170280146932629,-0.08170280146932629
264.823,0.08824105619909928,-0.08824105619909928
264.824,0.09221280750347949,-0.09221280750347949
264.825,0.09162092948673328,-0.09162092948673328
264.826,0.08578014781944998,-0.08578014781944998
264.827,0.07571816200726911,-0.07571816200726911
264.828,0.06400335859021733,-0.06400335859021733
264.829,0.05402023327314753,-0.05402023327314753
264.83,0.04891167849647282,-0.04891167849647282
264.831,0.05053530402369932,-0.05053530402369932
264.832,0.05879069237926182,-0.05879069237926182
264.833,0.07155910806359489,-0.07155910806359489
264.834,0.08529457059615331,-0.08529457059615331
264.835,0.09608507946710354,-0.09608507946710354
264.836,0.10084203928614133,-0.10084203928614133
264.837,0.09823114913700959,-0.09823114913700959
264.838,0.08904507412762808,-0.08904507412762808
264.839,0.07590652948529786,-0.07590652948529786
264.84,0.06241391472007862,-0.06241391472007862
264.841,0.052022545072532234,-0.052022545072532234
264.842,0.04703118570861364,-0.04703118570861364
264.843,0.04799229490760881,-0.04799229490760881
264.844,0.053707197326624656,-0.053707197326624656
264.845,0.061763289047250036,-0.061763289047250036
264.846,0.06939296976860465,-0.06939296976860465
264.847,0.07434450939553938,-0.07434450939553938
264.848,0.0754802696234308,-0.0754802696234308
264.849,0.07294125746375768,-0.07294125746375768
264.85,0.06788698944730553,-0.06788698944730553
264.851,0.06196946674268289,-0.06196946674268289
264.852,0.05677427204266172,-0.05677427204266172
264.853,0.053437207463456926,-0.053437207463456926
264.854,0.052538640336489806,-0.052538640336489806
264.855,0.05423937783454902,-0.05423937783454902
264.856,0.05851270509072559,-0.05851270509072559
264.857,0.06529476365229858,-0.06529476365229858
264.858,0.07443369657095222,-0.07443369657095222
264.859,0.08544096340793261,-0.08544096340793261
264.86,0.09718001240931462,-0.09718001240931462
264.861,0.10770502320070596,-0.10770502320070596
264.862,0.11444225235977867,-0.11444225235977867
264.863,0.114784805986754,-0.114784805986754
264.864,0.10698904790650887,-0.10698904790650887
264.865,0.0910892087792271,-0.0910892087792271
264.866,0.06946226572194825,-0.06946226572194825
264.867,0.046727420201893466,-0.046727420201893466
264.868,0.028853757560697524,-0.028853757560697524
264.869,0.021621616889391793,-0.021621616889391793
264.87,0.028844677466858037,-0.028844677466858037
264.871,0.05091080921224689,-0.05091080921224689
264.872,0.08417086265318785,-0.08417086265318785
264.873,0.12148561727688456,-0.12148561727688456
264.874,0.15389013382090955,-0.15389013382090955
264.875,0.1729624840129964,-0.1729624840129964
264.876,0.17321769530640463,-0.17321769530640463
264.877,0.15378752506105364,-0.15378752506105364
264.878,0.11882729195868202,-0.11882729195868202
264.879,0.07646629926029935,-0.07646629926029935
264.88,0.0365728231793816,-0.0365728231793816
264.881,0.007989910151860569,-0.007989910151860569
264.882,0.003916903172225483,0.003916903172225483
264.883,0.0013573505562467503,-0.0013573505562467503
264.884,0.01956835800303014,-0.01956835800303014
264.885,0.04327749896062205,-0.04327749896062205
264.886,0.0643360286406005,-0.0643360286406005
264.887,0.07648665304068292,-0.07648665304068292
264.888,0.07724047245759469,-0.07724047245759469
264.889,0.0684357883306399,-0.0684357883306399
264.89,0.05532994554493853,-0.05532994554493853
264.891,0.04456670307522037,-0.04456670307522037
264.892,0.0417337240216501,-0.0417337240216501
264.893,0.0493521024224125,-0.0493521024224125
264.894,0.0659803298123286,-0.0659803298123286
264.895,0.0867247478500015,-0.0867247478500015
264.896,0.10496218882368169,-0.10496218882368169
264.897,0.11466540406920489,-0.11466540406920489
264.898,0.11251994941702104,-0.11251994941702104
264.899,0.09910020713010981,-0.09910020713010981
264.9,0.07870273028835595,-0.07870273028835595
264.90099999999995,0.05790114938526991,-0.05790114938526991
264.902,0.04332668275945473,-0.04332668275945473
264.903,0.03944051094917622,-0.03944051094917622
264.904,0.04706033332849935,-0.04706033332849935
264.905,0.06313756799619374,-0.06313756799619374
264.906,0.08184849106463854,-0.08184849106463854
264.907,0.09661328167270677,-0.09661328167270677
264.908,0.10234604444960693,-0.10234604444960693
264.909,0.0971709024233719,-0.0971709024233719
264.91,0.08303318549164673,-0.08303318549164673
264.911,0.0650190301464616,-0.0650190301464616
264.912,0.04963578950482406,-0.04963578950482406
264.91299999999995,0.04264825415333062,-0.04264825415333062
264.914,0.04719757549080117,-0.04719757549080117
264.915,0.06281240998543991,-0.06281240998543991
264.916,0.08560354102664214,-0.08560354102664214
264.917,0.10952996334531673,-0.10952996334531673
264.918,0.12827701411152825,-0.12827701411152825
264.919,0.13711152605006716,-0.13711152605006716
264.92,0.13412658085642426,-0.13412658085642426
264.921,0.1205307665414308,-0.1205307665414308
264.922,0.09997894978254152,-0.09997894978254152
264.923,0.0772586515864202,-0.0772586515864202
264.924,0.056829278754077506,-0.056829278754077506
264.92499999999995,0.04170595719724168,-0.04170595719724168
264.926,0.033001916004056775,-0.033001916004056775
264.927,0.03017117168043071,-0.03017117168043071
264.928,0.031734249120574654,-0.031734249120574654
264.929,0.036119658448522496,-0.036119658448522496
264.93,0.04226144618428718,-0.04226144618428718
264.931,0.049743524991106125,-0.049743524991106125
264.932,0.058504832504385096,-0.058504832504385096
264.933,0.06832016185275369,-0.06832016185275369
264.934,0.07836700142319641,-0.07836700142319641
264.935,0.08714156608786983,-0.08714156608786983
264.936,0.09281965184056584,-0.09281965184056584
264.93699999999995,0.09394232685843107,-0.09394232685843107
264.938,0.09013574209745745,-0.09013574209745745
264.939,0.08252431524388926,-0.08252431524388926
264.94,0.07359459812789881,-0.07359459812789881
264.941,0.06647986001283002,-0.06647986001283002
264.942,0.06388028201959983,-0.06388028201959983
264.943,0.06701067121470272,-0.06701067121470272
264.944,0.07499891898361044,-0.07499891898361044
264.945,0.08502058011425773,-0.08502058011425773
264.946,0.09319086572703761,-0.09319086572703761
264.947,0.09594077060751027,-0.09594077060751027
264.948,0.09139273146072402,-0.09139273146072402
264.949,0.08021146325729844,-0.08021146325729844
264.95,0.06556475642186588,-0.06556475642186588
264.951,0.05213949497245063,-0.05213949497245063
264.952,0.04451169062605764,-0.04451169062605764
264.953,0.04543477297821874,-0.04543477297821874
264.954,0.05468205553582717,-0.05468205553582717
264.955,0.0689180647947013,-0.0689180647947013
264.956,0.08272476268152751,-0.08272476268152751
264.957,0.0904901866638208,-0.0904901866638208
264.958,0.08852852690057689,-0.08852852690057689
264.959,0.07667079368759433,-0.07667079368759433
264.96,0.05870337173713702,-0.05870337173713702
264.961,0.041403178305748356,-0.041403178305748356
264.962,0.03240230370463559,-0.03240230370463559
264.963,0.03754520273321571,-0.03754520273321571
264.964,0.058622579030781274,-0.058622579030781274
264.965,0.09229018960799418,-0.09229018960799418
264.966,0.130620953067058,-0.130620953067058
264.967,0.1632079061086874,-0.1632079061086874
264.968,0.18021015752550185,-0.18021015752550185
264.969,0.17539425085182692,-0.17539425085182692
264.97,0.14819067951004905,-0.14819067951004905
264.971,0.10407884046002103,-0.10407884046002103
264.972,0.0531415790866302,-0.0531415790866302
264.973,0.007219402112637052,-0.007219402112637052
264.974,0.023451962950009175,0.023451962950009175
264.975,0.03307122165358445,0.03307122165358445
264.976,0.02169718526121045,0.02169718526121045
264.977,0.005138326252397185,-0.005138326252397185
264.978,0.03844825680918851,-0.03844825680918851
264.979,0.06873565162383422,-0.06873565162383422
264.98,0.08888547614132303,-0.08888547614132303
264.981,0.09607594530655494,-0.09607594530655494
264.982,0.09214376741598962,-0.09214376741598962
264.983,0.08237737805671952,-0.08237737805671952
264.984,0.07324265801249641,-0.07324265801249641
264.985,0.06988601577604503,-0.06988601577604503
264.986,0.07429832452846308,-0.07429832452846308
264.987,0.084754859074744,-0.084754859074744
264.988,0.09667245852664519,-0.09667245852664519
264.989,0.10451643228138474,-0.10451643228138474
264.99,0.10402557250903155,-0.10402557250903155
264.991,0.09392897648363452,-0.09392897648363452
264.992,0.07653080782071509,-0.07653080782071509
264.993,0.05696078181124298,-0.05696078181124298
264.994,0.0413749077407789,-0.0413749077407789
264.995,0.03476811208057007,-0.03476811208057007
264.996,0.03919464866835676,-0.03919464866835676
264.997,0.05303879493435237,-0.05303879493435237
264.998,0.07159544659826322,-0.07159544659826322
264.999,0.08874724111642263,-0.08874724111642263
265.0,0.09913184677688436,-0.09913184677688436
265.001,0.1000200031407511,-0.1000200031407511
265.002,0.0922321018868516,-0.0922321018868516
265.003,0.07976847958586752,-0.07976847958586752
265.004,0.06829078236646868,-0.06829078236646868
265.005,0.0630033191051701,-0.0630033191051701
265.006,0.06669780399056346,-0.06669780399056346
265.007,0.07866669694674078,-0.07866669694674078
265.008,0.0948810424045744,-0.0948810424045744
265.009,0.1093787405751463,-0.1093787405751463
265.01,0.11637828058788147,-0.11637828058788147
265.011,0.11237338382357565,-0.11237338382357565
265.012,0.09746691095531301,-0.09746691095531301
265.013,0.0754661489941093,-0.0754661489941093
265.014,0.05269299826443041,-0.05269299826443041
265.015,0.035910169014249926,-0.035910169014249926
265.016,0.03007204399965202,-0.03007204399965202
265.017,0.03666998738336702,-0.03666998738336702
265.018,0.05323670924078561,-0.05323670924078561
265.019,0.0741755579945681,-0.0741755579945681
265.02,0.09262742790084288,-0.09262742790084288
265.021,0.10273687798610476,-0.10273687798610476
265.022,0.10154966134356991,-0.10154966134356991
265.023,0.08990799662799265,-0.08990799662799265
265.024,0.07205832249964994,-0.07205832249964994
265.025,0.05412692891887394,-0.05412692891887394
265.02599999999995,0.04200002295436467,-0.04200002295436467
265.027,0.039337545029165644,-0.039337545029165644
265.028,0.04639200027055734,-0.04639200027055734
265.029,0.0600188512675538,-0.0600188512675538
265.03,0.07485434035414418,-0.07485434035414418
265.031,0.08524135796064614,-0.08524135796064614
265.032,0.08723732132459372,-0.08723732132459372
265.033,0.08002004620823011,-0.08002004620823011
265.034,0.06621954135044072,-0.06621954135044072
265.035,0.05106962403490656,-0.05106962403490656
265.036,0.0406677942372049,-0.0406677942372049
265.037,0.03992334556912003,-0.03992334556912003
265.03799999999995,0.05086860013970129,-0.05086860013970129
265.039,0.0718805735807011,-0.0718805735807011
265.04,0.09805838209589623,-0.09805838209589623
265.041,0.12262867716661285,-0.12262867716661285
265.042,0.1389298808937126,-0.1389298808937126
265.043,0.14235686662419866,-0.14235686662419866
265.044,0.13167841488997545,-0.13167841488997545
265.045,0.10935160128309007,-0.10935160128309007
265.046,0.0807750369533905,-0.0807750369533905
265.047,0.05274220695906506,-0.05274220695906506
265.048,0.03157856128250591,-0.03157856128250591
265.049,0.021509755553027476,-0.021509755553027476
265.04999999999995,0.023705313443709075,-0.023705313443709075
265.051,0.036215768540880156,-0.036215768540880156
265.052,0.05474980854503042,-0.05474980854503042
265.053,0.07400566554036991,-0.07400566554036991
265.054,0.08914258427697774,-0.08914258427697774
265.055,0.09698050645764644,-0.09698050645764644
265.056,0.09663417629617499,-0.09663417629617499
265.057,0.08947440163091591,-0.08947440163091591
265.058,0.07850288882652678,-0.07850288882652678
265.059,0.06737281501463743,-0.06737281501463743
265.06,0.05935163293569945,-0.05935163293569945
265.061,0.056500070152874726,-0.056500070152874726
265.06199999999995,0.059251272661770216,-0.059251272661770216
265.063,0.06645069090188704,-0.06645069090188704
265.064,0.07579703717104813,-0.07579703717104813
265.065,0.08453579176248416,-0.08453579176248416
265.066,0.09021409255144452,-0.09021409255144452
265.067,0.09131059355235072,-0.09131059355235072
265.068,0.0875973342876668,-0.0875973342876668
265.069,0.08015922394296271,-0.08015922394296271
265.07,0.0710758176375067,-0.0710758176375067
265.071,0.06284591153822705,-0.06284591153822705
265.072,0.05769547418876797,-0.05769547418876797
265.073,0.056942047270219454,-0.056942047270219454
265.074,0.06058475653754303,-0.06058475653754303
265.075,0.06724426877983225,-0.06724426877983225
265.076,0.07449567740688845,-0.07449567740688845
265.077,0.0795343607028205,-0.0795343607028205
265.078,0.08001502284321149,-0.08001502284321149
265.079,0.07483664821854197,-0.07483664821854197
265.08,0.06463619696287404,-0.06463619696287404
265.081,0.05181330605219936,-0.05181330605219936
265.082,0.04002863186781991,-0.04002863186781991
265.083,0.033270428571517074,-0.033270428571517074
265.084,0.034723777497956854,-0.034723777497956854
265.085,0.045759156481475216,-0.045759156481475216
265.086,0.06534973702802749,-0.06534973702802749
265.087,0.09012358030417689,-0.09012358030417689
265.088,0.11508192965787012,-0.11508192965787012
265.089,0.13481755679525298,-0.13481755679525298
265.09,0.1449081439200811,-0.1449081439200811
265.091,0.14309136194087924,-0.14309136194087924
265.092,0.12987705561249385,-0.12987705561249385
265.093,0.10840800215475599,-0.10840800215475599
265.094,0.08359944580084788,-0.08359944580084788
265.095,0.06080258514319736,-0.06080258514319736
265.096,0.04438100281198776,-0.04438100281198776
265.097,0.03661525135474453,-0.03661525135474453
265.098,0.03724963965196182,-0.03724963965196182
265.099,0.043797441067604415,-0.043797441067604415
265.1,0.052488171430991604,-0.052488171430991604
265.101,0.05954654136365489,-0.05954654136365489
265.102,0.062398109300471294,-0.062398109300471294
265.103,0.06043036603057361,-0.06043036603057361
265.104,0.05508743823528306,-0.05508743823528306
265.105,0.04929231599588613,-0.04929231599588613
265.106,0.04640252594312411,-0.04640252594312411
265.107,0.04904607994848709,-0.04904607994848709
265.108,0.05821131840226401,-0.05821131840226401
265.109,0.0728717591682626,-0.0728717591682626
265.11,0.09024864161454194,-0.09024864161454194
265.111,0.10660952034504412,-0.10660952034504412
265.112,0.11833728800011811,-0.11833728800011811
265.113,0.12293116146597682,-0.12293116146597682
265.114,0.11963877131990619,-0.11963877131990619
265.115,0.10954937976524781,-0.10954937976524781
265.116,0.09515589281529657,-0.09515589281529657
265.117,0.0795583221412296,-0.0795583221412296
265.118,0.06558137295962396,-0.06558137295962396
265.119,0.0550853643913467,-0.0550853643913467
265.12,0.04866608150151619,-0.04866608150151619
265.121,0.04579785770987321,-0.04579785770987321
265.122,0.04532456116119721,-0.04532456116119721
265.123,0.04609447455368321,-0.04609447455368321
265.124,0.04750045975331196,-0.04750045975331196
265.125,0.04973349199690669,-0.04973349199690669
265.126,0.05366610050913845,-0.05366610050913845
265.127,0.06041408070067711,-0.06041408070067711
265.128,0.07073624544976165,-0.07073624544976165
265.129,0.08448798377046174,-0.08448798377046174
265.13,0.10032929396251755,-0.10032929396251755
265.131,0.11580897008768098,-0.11580897008768098
265.132,0.12783014146768745,-0.12783014146768745
265.133,0.13338468598023334,-0.13338468598023334
265.134,0.13035988417141164,-0.13035988417141164
265.135,0.11819325321524876,-0.11819325321524876
265.136,0.09818679780801387,-0.09818679780801387
265.137,0.07337847591685054,-0.07337847591685054
265.138,0.04798209942259313,-0.04798209942259313
265.139,0.026517244700783982,-0.026517244700783982
265.14,0.01283049981961526,-0.01283049981961526
265.141,0.009239747152413269,-0.009239747152413269
265.142,0.01600774745566469,-0.01600774745566469
265.143,0.0312765136396187,-0.0312765136396187
265.144,0.051487106439157215,-0.051487106439157215
265.145,0.07219472299926744,-0.07219472299926744
265.146,0.08909245111146913,-0.08909245111146913
265.147,0.09900177103605046,-0.09900177103605046
265.148,0.10058864925263211,-0.10058864925263211
265.149,0.09462383356691872,-0.09462383356691872
265.15,0.08371392879972361,-0.08371392879972361
265.15099999999995,0.07156240726673269,-0.07156240726673269
265.152,0.06194471336798402,-0.06194471336798402
265.153,0.05766551666562325,-0.05766551666562325
265.154,0.05978291383641687,-0.05978291383641687
265.155,0.06732370353676853,-0.06732370353676853
265.156,0.07758626375383981,-0.07758626375383981
265.157,0.0869639036522617,-0.0869639036522617
265.158,0.0920663597669289,-0.0920663597669289
265.159,0.09081671791345403,-0.09081671791345403
265.16,0.08318974488062914,-0.08318974488062914
265.161,0.07134580009516989,-0.07134580009516989
265.162,0.05908308319654898,-0.05908308319654898
265.16299999999995,0.050734568276311176,-0.050734568276311176
265.164,0.049814733375296516,-0.049814733375296516
265.165,0.05781836555457598,-0.05781836555457598
265.166,0.07355373321278869,-0.07355373321278869
265.167,0.09325364422112459,-0.09325364422112459
265.168,0.11148557868998998,-0.11148557868998998
265.169,0.12263963373842113,-0.12263963373842113
265.17,0.12258389865085972,-0.12258389865085972
265.171,0.11000209857300647,-0.11000209857300647
265.172,0.08699669712433056,-0.08699669712433056
265.173,0.058738137750633745,-0.058738137750633745
265.174,0.032213185163366354,-0.032213185163366354
265.17499999999995,0.01439294824319659,-0.01439294824319659
265.176,0.010323254856267838,-0.010323254856267838
265.177,0.02167924184395109,-0.02167924184395109
265.178,0.04620676504942256,-0.04620676504942256
265.179,0.07822753427150275,-0.07822753427150275
265.18,0.1100834381574054,-0.1100834381574054
265.181,0.13412676736257434,-0.13412676736257434
265.182,0.14470643702091268,-0.14470643702091268
265.183,0.13960222773277808,-0.13960222773277808
265.184,0.12051870692727096,-0.12051870692727096
265.185,0.09252020942846473,-0.09252020942846473
265.186,0.0625881479334458,-0.0625881479334458
265.18699999999995,0.03772412756457877,-0.03772412756457877
265.188,0.023137445053481365,-0.023137445053481365
265.189,0.021013043637070128,-0.021013043637070128
265.19,0.030172553447260553,-0.030172553447260553
265.191,0.046674464402875926,-0.046674464402875926
265.192,0.06513033296866966,-0.06513033296866966
265.193,0.08032091753656867,-0.08032091753656867
265.194,0.08863272998687755,-0.08863272998687755
265.195,0.08891485367618579,-0.08891485367618579
265.196,0.08254841897135723,-0.08254841897135723
265.197,0.07276489977907019,-0.07276489977907019
265.198,0.0634697887760377,-0.0634697887760377
265.199,0.05796068138634192,-0.05796068138634192
265.2,0.05793772502368799,-0.05793772502368799
265.201,0.06309257434334692,-0.06309257434334692
265.202,0.07136836295995863,-0.07136836295995863
265.203,0.07976983430309192,-0.07976983430309192
265.204,0.08543549508064285,-0.08543549508064285
265.205,0.08661218066050269,-0.08661218066050269
265.206,0.08321591375395576,-0.08321591375395576
265.207,0.07680504663279808,-0.07680504663279808
265.208,0.06998625807987391,-0.06998625807987391
265.209,0.06545953097626667,-0.06545953097626667
265.21,0.0650266713274098,-0.0650266713274098
265.211,0.06890208140187315,-0.06890208140187315
265.212,0.07556932908998026,-0.07556932908998026
265.213,0.08225128268888182,-0.08225128268888182
265.214,0.08585928739683069,-0.08585928739683069
265.215,0.08412145200285914,-0.08412145200285914
265.216,0.076515231534662,-0.076515231534662
265.217,0.06467240402931795,-0.06467240402931795
265.218,0.05207696185182764,-0.05207696185182764
265.219,0.043095697999642635,-0.043095697999642635
265.22,0.041601864808613276,-0.041601864808613276
265.221,0.04960484411401955,-0.04960484411401955
265.222,0.06633110654792174,-0.06633110654792174
265.223,0.08809581043392434,-0.08809581043392434
265.224,0.10908383559760026,-0.10908383559760026
265.225,0.12288446271197084,-0.12288446271197084
265.226,0.12437655349905019,-0.12437655349905019
265.227,0.11141922925837211,-0.11141922925837211
265.228,0.0858177122624515,-0.0858177122624515
265.229,0.053211527171862394,-0.053211527171862394
265.23,0.021829489668208746,-0.021829489668208746
265.231,0.00039028407578967084,-0.00039028407578967084
265.232,0.00430007534001331,0.00430007534001331
265.233,0.010621918179386403,-0.010621918179386403
265.234,0.0430265222514119,-0.0430265222514119
265.235,0.08607260175455045,-0.08607260175455045
265.236,0.1298059278074103,-0.1298059278074103
265.237,0.16367662438511432,-0.16367662438511432
265.238,0.17929922968701462,-0.17929922968701462
265.239,0.17268857234130297,-0.17268857234130297
265.24,0.14533637794874377,-0.14533637794874377
265.241,0.10381410297817584,-0.10381410297817584
265.242,0.058005735315038165,-0.058005735315038165
265.243,0.018467283318934435,-0.018467283318934435
265.244,0.00634021267297924,0.00634021267297924
265.245,0.012166050739674805,0.012166050739674805
265.246,0.00014665901220667354,-0.00014665901220667354
265.247,0.0252223192999127,-0.0252223192999127
265.248,0.05494639269666579,-0.05494639269666579
265.249,0.08092409272309287,-0.08092409272309287
265.25,0.0968601727172752,-0.0968601727172752
265.251,0.10016716211224164,-0.10016716211224164
265.252,0.0923686548694358,-0.0923686548694358
265.253,0.07824659614097351,-0.07824659614097351
265.254,0.06406539323009808,-0.06406539323009808
265.255,0.055471790395723586,-0.055471790395723586
265.256,0.05573859868003117,-0.05573859868003117
265.257,0.06487791719923686,-0.06487791719923686
265.258,0.0798485200891289,-0.0798485200891289
265.259,0.09572462273127924,-0.09572462273127924
265.26,0.10739584482226039,-0.10739584482226039
265.261,0.11122366498774172,-0.11122366498774172
265.262,0.10612754093360477,-0.10612754093360477
265.263,0.09378926557643819,-0.09378926557643819
265.264,0.07796828724033844,-0.07796828724033844
265.265,0.06320916924597719,-0.06320916924597719
265.266,0.05340075317189141,-0.05340075317189141
265.267,0.05066190220083433,-0.05066190220083433
265.268,0.05488536216706652,-0.05488536216706652
265.269,0.06402713939459537,-0.06402713939459537
265.27,0.07497297997593255,-0.07497297997593255
265.271,0.08463436465951524,-0.08463436465951524
265.272,0.09088086014697261,-0.09088086014697261
265.273,0.09301083627084339,-0.09301083627084339
265.274,0.09165556527247154,-0.09165556527247154
265.275,0.088227082142049,-0.088227082142049
265.27599999999995,0.08417828024169904,-0.08417828024169904
265.277,0.08038970513227939,-0.08038970513227939
265.278,0.07692035219880766,-0.07692035219880766
265.279,0.07319473191387649,-0.07319473191387649
265.28,0.06851258578947594,-0.06851258578947594
265.281,0.06263388013750826,-0.06263388013750826
265.282,0.05616144077796614,-0.05616144077796614
265.283,0.05052757474825287,-0.05052757474825287
265.284,0.047555786497958996,-0.047555786497958996
265.285,0.04874951390340043,-0.04874951390340043
265.286,0.054585329657917514,-0.054585329657917514
265.287,0.06410737741310446,-0.06410737741310446
265.28799999999995,0.0750219904402275,-0.0750219904402275
265.289,0.08431013301721346,-0.08431013301721346
265.29,0.08917681989337867,-0.08917681989337867
265.291,0.08801571302672806,-0.08801571302672806
265.292,0.08103907947379618,-0.08103907947379618
265.293,0.07032336232404302,-0.07032336232404302
265.294,0.05921713756200642,-0.05921713756200642
265.295,0.051283301602655484,-0.051283301602655484
265.296,0.04912065883233441,-0.04912065883233441
265.297,0.053467714242601216,-0.053467714242601216
265.298,0.06290915297466715,-0.06290915297466715
265.299,0.0743080592176254,-0.0743080592176254
265.29999999999995,0.08384044804260682,-0.08384044804260682
265.301,0.08829779757916145,-0.08829779757916145
265.302,0.08622179225503968,-0.08622179225503968
265.303,0.07848053799824584,-0.07848053799824584
265.304,0.0680742600969586,-0.0680742600969586
265.305,0.05921220513877934,-0.05921220513877934
265.306,0.05594639349601627,-0.05594639349601627
265.307,0.06080009457988966,-0.06080009457988966
265.308,0.07383813228890679,-0.07383813228890679
265.309,0.09248890808579657,-0.09248890808579657
265.31,0.11218956179261275,-0.11218956179261275
265.311,0.12766427167925254,-0.12766427167925254
265.31199999999995,0.13444625020630052,-0.13444625020630052
265.313,0.13017989004382535,-0.13017989004382535
265.314,0.11531219485418098,-0.11531219485418098
265.315,0.09297565369374461,-0.09297565369374461
265.316,0.06811381837408237,-0.06811381837408237
265.317,0.04612606230041383,-0.04612606230041383
265.318,0.03144011777236955,-0.03144011777236955
265.319,0.02642330442710117,-0.02642330442710117
265.32,0.030921843176356156,-0.030921843176356156
265.321,0.042516710036877514,-0.042516710036877514
265.322,0.05737055662078372,-0.05737055662078372
265.323,0.07137926679036932,-0.07137926679036932
265.324,0.08127840189485869,-0.08127840189485869
265.325,0.0854000486660722,-0.0854000486660722
265.326,0.08390598844584041,-0.08390598844584041
265.327,0.07849125687296965,-0.07849125687296965
265.328,0.07170382397935171,-0.07170382397935171
265.329,0.06611786376072093,-0.06611786376072093
265.33,0.06360964379778744,-0.06360964379778744
265.331,0.06492300329068668,-0.06492300329068668
265.332,0.06960375228753202,-0.06960375228753202
265.333,0.07626718672497124,-0.07626718672497124
265.334,0.08307522598112804,-0.08307522598112804
265.335,0.08826096069947997,-0.08826096069947997
265.336,0.09055218149988131,-0.09055218149988131
265.337,0.08939910233165316,-0.08939910233165316
265.338,0.08498273898072861,-0.08498273898072861
265.339,0.07804575379454093,-0.07804575379454093
265.34,0.0696294551859915,-0.0696294551859915
265.341,0.06081131952664931,-0.06081131952664931
265.342,0.05251918292004665,-0.05251918292004665
265.343,0.04546073545402718,-0.04546073545402718
265.344,0.04016304507989865,-0.04016304507989865
265.345,0.03707901232339206,-0.03707901232339206
265.346,0.036695399073469415,-0.036695399073469415
265.347,0.03957563873654957,-0.03957563873654957
265.348,0.04629064612014189,-0.04629064612014189
265.349,0.05722827177737777,-0.05722827177737777
265.35,0.07231841044891962,-0.07231841044891962
265.351,0.0907539541581942,-0.0907539541581942
265.352,0.11081395360489155,-0.11081395360489155
265.353,0.12989234896573043,-0.12989234896573043
265.354,0.14479723827498314,-0.14479723827498314
265.355,0.15231551435484547,-0.15231551435484547
265.356,0.14995102909832214,-0.14995102909832214
265.357,0.13666596345980708,-0.13666596345980708
265.358,0.11341282655435314,-0.11341282655435314
265.359,0.08326069104172562,-0.08326069104172562
265.36,0.05100105198909688,-0.05100105198909688
265.361,0.022252379972180658,-0.022252379972180658
265.362,0.0022340976012578118,-0.0022340976012578118
265.363,0.005495742643647272,0.005495742643647272
265.364,6.308781125285989e-06,-6.308781125285989e-06
265.365,0.016722039678738088,-0.016722039678738088
265.366,0.04008227619844229,-0.04008227619844229
265.367,0.06407887077204921,-0.06407887077204921
265.368,0.08281025288107735,-0.08281025288107735
265.369,0.09204519167348957,-0.09204519167348957
265.37,0.0903579546976857,-0.0903579546976857
265.371,0.07949193225560669,-0.07949193225560669
265.372,0.06382451304561876,-0.06382451304561876
265.373,0.04907180692200408,-0.04907180692200408
265.374,0.04060568898326544,-0.04060568898326544
265.375,0.04188141436290238,-0.04188141436290238
265.376,0.053447239756728715,-0.053447239756728715
265.377,0.072831807357294,-0.072831807357294
265.378,0.09533335479113403,-0.09533335479113403
265.379,0.1154532825602993,-0.1154532825602993
265.38,0.1285168482689084,-0.1285168482689084
265.381,0.1319720310744824,-0.1319720310744824
265.382,0.12597174644402243,-0.12597174644402243
265.383,0.11308687805069695,-0.11308687805069695
265.384,0.09728666784518047,-0.09728666784518047
265.385,0.08256112091694512,-0.08256112091694512
265.386,0.07166660413314807,-0.07166660413314807
265.387,0.06541533223575557,-0.06541533223575557
265.388,0.06272446137730536,-0.06272446137730536
265.389,0.06136403557180303,-0.06136403557180303
265.39,0.0590931550079985,-0.0590931550079985
265.391,0.054739129298175815,-0.054739129298175815
265.392,0.048802730178595044,-0.048802730178595044
265.393,0.04335339601834198,-0.04335339601834198
265.394,0.04124593223449369,-0.04124593223449369
265.395,0.044947722373646526,-0.044947722373646526
265.396,0.055418578391083884,-0.055418578391083884
265.397,0.0714770745845158,-0.0714770745845158
265.398,0.08991860382808714,-0.08991860382808714
265.399,0.10638088157840975,-0.10638088157840975
265.4,0.11667903558354431,-0.11667903558354431
265.40099999999995,0.11815427251506916,-0.11815427251506916
265.402,0.11056349098716822,-0.11056349098716822
265.403,0.09619038146336023,-0.09619038146336023
265.404,0.07912832031706507,-0.07912832031706507
265.405,0.06397572726188372,-0.06397572726188372
265.406,0.05439114394745859,-0.05439114394745859
265.407,0.05200321141178421,-0.05200321141178421
265.408,0.05604203960616838,-0.05604203960616838
265.409,0.06379918577666888,-0.06379918577666888
265.41,0.07172726994437328,-0.07172726994437328
265.411,0.07676465943065902,-0.07676465943065902
265.412,0.07739777495473499,-0.07739777495473499
265.41299999999995,0.07407989346177457,-0.07407989346177457
265.414,0.06887157058377524,-0.06887157058377524
265.415,0.06446288922412591,-0.06446288922412591
265.416,0.06297192354197823,-0.06297192354197823
265.417,0.0649991075098233,-0.0649991075098233
265.418,0.0693202345306907,-0.0693202345306907
265.419,0.07335589976164436,-0.07335589976164436
265.42,0.07425255835078726,-0.07425255835078726
265.421,0.07016350498230217,-0.07016350498230217
265.422,0.06122193396955178,-0.06122193396955178
265.423,0.04979352963045036,-0.04979352963045036
265.424,0.03985292912988814,-0.03985292912988814
265.42499999999995,0.03565593000321077,-0.03565593000321077
265.426,0.04015755087983586,-0.04015755087983586
265.427,0.05374961978691595,-0.05374961978691595
265.428,0.07380877870563862,-0.07380877870563862
265.429,0.095279024179597,-0.095279024179597
265.43,0.11215234366013727,-0.11215234366013727
265.431,0.11938362754507037,-0.11938362754507037
265.432,0.11460054383878493,-0.11460054383878493
265.433,0.09901292033983244,-0.09901292033983244
265.434,0.07718026653594212,-0.07718026653594212
265.435,0.05567638044724532,-0.05567638044724532
265.436,0.04106617887697228,-0.04106617887697228
265.43699999999995,0.03785077687138305,-0.03785077687138305
265.438,0.04705678493797927,-0.04705678493797927
265.439,0.06593542113295237,-0.06593542113295237
265.44,0.08886722032328587,-0.08886722032328587
265.441,0.10916559494636235,-0.10916559494636235
265.442,0.1211756264020677,-0.1211756264020677
265.443,0.12197479964109892,-0.12197479964109892
265.444,0.1121291793375987,-0.1121291793375987
265.445,0.09528871783222148,-0.09528871783222148
265.446,0.07680268760672138,-0.07680268760672138
265.447,0.061862329795431714,-0.061862329795431714
265.448,0.05382108571390065,-0.05382108571390065
265.449,0.053257202845802376,-0.053257202845802376
265.45,0.05806400529993205,-0.05806400529993205
265.451,0.06448214274838993,-0.06448214274838993
265.452,0.06865848113241235,-0.06865848113241235
265.453,0.06814364842102016,-0.06814364842102016
265.454,0.06278238328403563,-0.06278238328403563
265.455,0.05468802298176412,-0.05468802298176412
265.456,0.04733572136245612,-0.04733572136245612
265.457,0.044132903246209776,-0.044132903246209776
265.458,0.04701359007698602,-0.04701359007698602
265.459,0.05558961476407287,-0.05558961476407287
265.46,0.0671838023698158,-0.0671838023698158
265.461,0.07774505213835226,-0.07774505213835226
265.462,0.08332118889815254,-0.08332118889815254
265.463,0.08155902287855399,-0.08155902287855399
265.464,0.07268549772172406,-0.07268549772172406
265.465,0.059603480053545654,-0.059603480053545654
265.466,0.047045560510429074,-0.047045560510429074
265.467,0.040058802816668626,-0.040058802816668626
265.468,0.042326828416499485,-0.042326828416499485
265.469,0.054892641385632324,-0.054892641385632324
265.47,0.07570900189650409,-0.07570900189650409
265.471,0.10016354966111285,-0.10016354966111285
265.472,0.12240224516539111,-0.12240224516539111
265.473,0.1370184579147503,-0.1370184579147503
265.474,0.1405707845644215,-0.1405707845644215
265.475,0.13246965287416834,-0.13246965287416834
265.476,0.11499677967307775,-0.11499677967307775
265.477,0.092509629912778,-0.092509629912778
265.478,0.07013462652538849,-0.07013462652538849
265.479,0.05238590612853178,-0.05238590612853178
265.48,0.04212503409949098,-0.04212503409949098
265.481,0.040121496059643436,-0.040121496059643436
265.482,0.045249521467023546,-0.045249521467023546
265.483,0.05514828238971958,-0.05514828238971958
265.484,0.06705124632166615,-0.06705124632166615
265.485,0.07848988471876028,-0.07848988471876028
265.486,0.0876828779562776,-0.0876828779562776
265.487,0.09358146353041885,-0.09358146353041885
265.488,0.09568590804473032,-0.09568590804473032
265.489,0.0938204646025117,-0.0938204646025117
265.49,0.08803145006819901,-0.08803145006819901
265.491,0.0786731579580302,-0.0786731579580302
265.492,0.0666190357605686,-0.0666190357605686
265.493,0.0534409605955275,-0.0534409605955275
265.494,0.04138254879311665,-0.04138254879311665
265.495,0.03302438927975104,-0.03302438927975104
265.496,0.03067233398340774,-0.03067233398340774
265.497,0.035639147682373196,-0.035639147682373196
265.498,0.04767410701175179,-0.04767410701175179
265.499,0.06478323071936143,-0.06478323071936143
265.5,0.08357053932185798,-0.08357053932185798
265.501,0.10005428439918496,-0.10005428439918496
265.502,0.11073538674301875,-0.11073538674301875
265.503,0.11358612536875834,-0.11358612536875834
265.504,0.10863088561975165,-0.10863088561975165
265.505,0.09791241026960995,-0.09791241026960995
265.506,0.08483758138582986,-0.08483758138582986
265.507,0.07310679090385774,-0.07310679090385774
265.508,0.06557539266288293,-0.06557539266288293
265.509,0.06342158223558347,-0.06342158223558347
265.51,0.06589124831349236,-0.06589124831349236
265.511,0.07069234568233096,-0.07069234568233096
265.512,0.07488871006952835,-0.07488871006952835
265.513,0.07597458088406617,-0.07597458088406617
265.514,0.07275565131092321,-0.07275565131092321
265.515,0.06573869849956215,-0.06573869849956215
265.516,0.05691099215989592,-0.05691099215989592
265.517,0.04900748215010964,-0.04900748215010964
265.518,0.04454043240719119,-0.04454043240719119
265.519,0.044940651920435726,-0.044940651920435726
265.52,0.050107681313135366,-0.050107681313135366
265.521,0.05851016114512164,-0.05851016114512164
265.522,0.06777624925774184,-0.06777624925774184
265.523,0.07554138034395252,-0.07554138034395252
265.524,0.080238457674501,-0.080238457674501
265.525,0.08155066900384755,-0.08155066900384755
265.52599999999995,0.08038277639096691,-0.08038277639096691
265.527,0.07838976186061963,-0.07838976186061963
265.528,0.0772630499299719,-0.0772630499299719
265.529,0.07805518441904913,-0.07805518441904913
265.53,0.08079653451095647,-0.08079653451095647
265.531,0.08453612475190009,-0.08453612475190009
265.532,0.08777167911779282,-0.08777167911779282
265.533,0.08908587505502197,-0.08908587505502197
265.534,0.08773224013281655,-0.08773224013281655
265.535,0.08394113291356597,-0.08394113291356597
265.536,0.0788310895593014,-0.0788310895593014
265.537,0.0739675765649761,-0.0739675765649761
265.53799999999995,0.07074883459317927,-0.07074883459317927
265.539,0.069864335701884,-0.069864335701884
265.54,0.07104097230822659,-0.07104097230822659
265.541,0.07317817303127538,-0.07317817303127538
265.542,0.07482024878209936,-0.07482024878209936
265.543,0.07478145989719354,-0.07478145989719354
265.544,0.0726774971512979,-0.0726774971512979
265.545,0.06914984841097782,-0.06914984841097782
265.546,0.06568439518221869,-0.06568439518221869
265.547,0.06407907234168186,-0.06407907234168186
265.548,0.06574974167324421,-0.06574974167324421
265.549,0.07112833387006223,-0.07112833387006223
265.54999999999995,0.07937883225399,-0.07937883225399
265.551,0.08854569454688643,-0.08854569454688643
265.552,0.09609699533903016,-0.09609699533903016
265.553,0.09968654203582228,-0.09968654203582228
265.554,0.09788469714049508,-0.09788469714049508
265.555,0.09064149816143208,-0.09064149816143208
265.556,0.07934001738932173,-0.07934001738932173
265.557,0.06643617323104434,-0.06643617323104434
265.558,0.054812756784895056,-0.054812756784895056
265.559,0.047054894150835636,-0.047054894150835636
265.56,0.04485792795981669,-0.04485792795981669
265.561,0.048712471825757886,-0.048712471825757886
265.56199999999995,0.057906143210740946,-0.057906143210740946
265.563,0.07077989772987736,-0.07077989772987736
265.564,0.08511594277312173,-0.08511594277312173
265.565,0.09853091608079878,-0.09853091608079878
265.566,0.10879396140109654,-0.10879396140109654
265.567,0.11405591382599578,-0.11405591382599578
265.568,0.11302774634078205,-0.11302774634078205
265.569,0.10515779468321318,-0.10515779468321318
265.57,0.09082321316922637,-0.09082321316922637
265.571,0.07149028061095664,-0.07149028061095664
265.572,0.04974473006986768,-0.04974473006986768
265.573,0.02908157646386811,-0.02908157646386811
265.574,0.013392271791908383,-0.013392271791908383
265.575,0.006187427712460503,-0.006187427712460503
265.576,0.00971194208496895,-0.00971194208496895
265.577,0.02419807206826652,-0.02419807206826652
265.578,0.047517300604513424,-0.047517300604513424
265.579,0.0754134788888805,-0.0754134788888805
265.58,0.10234165376464532,-0.10234165376464532
265.581,0.12274571681359747,-0.12274571681359747
265.582,0.13244803400908634,-0.13244803400908634
265.583,0.1297553311607499,-0.1297553311607499
265.584,0.11593983843659039,-0.11593983843659039
265.585,0.09492434460897581,-0.09492434460897581
265.586,0.07223491111138536,-0.07223491111138536
265.587,0.05351064714950138,-0.05351064714950138
265.588,0.04300106323955388,-0.04300106323955388
265.589,0.042489126609620675,-0.042489126609620675
265.59,0.05094720715254275,-0.05094720715254275
265.591,0.06500524274062858,-0.06500524274062858
265.592,0.0800602147245687,-0.0800602147245687
265.593,0.09166541888080015,-0.09166541888080015
265.594,0.09676828743319277,-0.09676828743319277
265.595,0.0944362152388808,-0.0944362152388808
265.596,0.08589267492073294,-0.08589267492073294
265.597,0.0739154812764019,-0.0739154812764019
265.598,0.061846540287017415,-0.061846540287017415
265.599,0.05256338480023137,-0.05256338480023137
265.6,0.04773932142931081,-0.04773932142931081
265.601,0.04758797282263949,-0.04758797282263949
265.602,0.0511030522015411,-0.0511030522015411
265.603,0.05663472282967974,-0.05663472282967974
265.604,0.06254898808199771,-0.06254898808199771
265.605,0.0677239625981827,-0.0677239625981827
265.606,0.07173439002177573,-0.07173439002177573
265.607,0.07471808672328484,-0.07471808672328484
265.608,0.07704581565914204,-0.07704581565914204
265.609,0.0789799009880191,-0.0789799009880191
265.61,0.08048593886331123,-0.08048593886331123
265.611,0.08127129526455745,-0.08127129526455745
265.612,0.08100705505120787,-0.08100705505120787
265.613,0.07959957820563113,-0.07959957820563113
265.614,0.077353904435564,-0.077353904435564
265.615,0.07492435183468937,-0.07492435183468937
265.616,0.07305407482580506,-0.07305407482580506
265.617,0.07221704262830819,-0.07221704262830819
265.618,0.07234072445265916,-0.07234072445265916
265.619,0.07277197048995976,-0.07277197048995976
265.62,0.07255233357694901,-0.07255233357694901
265.621,0.07092836999201024,-0.07092836999201024
265.622,0.0678959876442683,-0.0678959876442683
265.623,0.06452371431094339,-0.06452371431094339
265.624,0.06285062681436127,-0.06285062681436127
265.625,0.06530231544506337,-0.06530231544506337
265.626,0.07376311647354017,-0.07376311647354017
265.627,0.08861070233477264,-0.08861070233477264
265.628,0.10808876313665161,-0.10808876313665161
265.629,0.12832533914829292,-0.12832533914829292
265.63,0.14410867428672347,-0.14410867428672347
265.631,0.15026969706415827,-0.15026969706415827
265.632,0.14328191867091855,-0.14328191867091855
265.633,0.12256603863287996,-0.12256603863287996
265.634,0.09103316050060017,-0.09103316050060017
265.635,0.054614534472886334,-0.054614534472886334
265.636,0.02084370594205076,-0.02084370594205076
265.637,0.003125849481963927,0.003125849481963927
265.638,0.012478451597723206,0.012478451597723206
265.639,0.006061902933758967,0.006061902933758967
265.64,0.013342498942053083,-0.013342498942053083
265.641,0.03989927615627187,-0.03989927615627187
265.642,0.06647322871621364,-0.06647322871621364
265.643,0.0867034097549505,-0.0867034097549505
265.644,0.09674270672620333,-0.09674270672620333
265.645,0.09612872087079327,-0.09612872087079327
265.646,0.0875486673610526,-0.0875486673610526
265.647,0.07563319380893019,-0.07563319380893019
265.648,0.06523276738076544,-0.06523276738076544
265.649,0.059786007402491737,-0.059786007402491737
265.65,0.060330237657115315,-0.060330237657115315
265.65099999999995,0.06545499760809292,-0.06545499760809292
265.652,0.07215106403797822,-0.07215106403797822
265.653,0.07718681901522295,-0.07718681901522295
265.654,0.07846556823570172,-0.07846556823570172
265.655,0.07584407313921215,-0.07584407313921215
265.656,0.0711114510768156,-0.0711114510768156
265.657,0.0671557915455765,-0.0671557915455765
265.658,0.06666055165188478,-0.06666055165188478
265.659,0.07085643839334976,-0.07085643839334976
265.66,0.07883793242295667,-0.07883793242295667
265.661,0.08774186608201984,-0.08774186608201984
265.662,0.09375624797764603,-0.09375624797764603
265.66299999999995,0.09360306556836084,-0.09360306556836084
265.664,0.08594109979740361,-0.08594109979740361
265.665,0.07214056212851239,-0.07214056212851239
265.666,0.056093190972345774,-0.056093190972345774
265.667,0.04306584014760695,-0.04306584014760695
265.668,0.037958942953165487,-0.037958942953165487
265.669,0.04356433515827929,-0.04356433515827929
265.67,0.059442028480701015,-0.059442028480701015
265.671,0.0818388229617033,-0.0818388229617033
265.672,0.10471916436319773,-0.10471916436319773
265.673,0.12159334132172961,-0.12159334132172961
265.674,0.1275461685521474,-0.1275461685521474
265.67499999999995,0.12079141768568358,-0.12079141768568358
265.676,0.10323242714480652,-0.10323242714480652
265.677,0.07984421557333277,-0.07984421557333277
265.678,0.05709024213453984,-0.05709024213453984
265.679,0.04090898710480961,-0.04090898710480961
265.68,0.034940427270378493,-0.034940427270378493
265.681,0.039565605222589895,-0.039565605222589895
265.682,0.05204116959076455,-0.05204116959076455
265.683,0.06763020946485088,-0.06763020946485088
265.684,0.0812958221053598,-0.0812958221053598
265.685,0.0893508416174823,-0.0893508416174823
265.686,0.09050243428889104,-0.09050243428889104
265.68699999999995,0.08597136865496124,-0.08597136865496124
265.688,0.07871085912092879,-0.07871085912092879
265.689,0.07207207865628784,-0.07207207865628784
265.69,0.06844721980270574,-0.06844721980270574
265.691,0.06840373808058331,-0.06840373808058331
265.692,0.07061710764887308,-0.07061710764887308
265.693,0.07259484678999628,-0.07259484678999628
265.694,0.07188061405081525,-0.07188061405081525
265.695,0.06724665685671116,-0.06724665685671116
265.696,0.059391280389408774,-0.059391280389408774
265.697,0.05085001361961439,-0.05085001361961439
265.698,0.045131574460643864,-0.045131574460643864
265.699,0.04538912701891973,-0.04538912701891973
265.7,0.053122102953481076,-0.053122102953481076
265.701,0.06740529390655903,-0.06740529390655903
265.702,0.08495899135000096,-0.08495899135000096
265.703,0.1010732014666883,-0.1010732014666883
265.704,0.11108971146016833,-0.11108971146016833
265.705,0.11193999910808561,-0.11193999910808561
265.706,0.10320866084825042,-0.10320866084825042
265.707,0.08735087401958286,-0.08735087401958286
265.708,0.06898107437757839,-0.06898107437757839
265.709,0.05346570211176471,-0.05346570211176471
265.71,0.0452847908899906,-0.0452847908899906
265.711,0.04669631082978232,-0.04669631082978232
265.712,0.057123601996792894,-0.057123601996792894
265.713,0.07343462484272056,-0.07343462484272056
265.714,0.09098355583128848,-0.09098355583128848
265.715,0.10504464409942027,-0.10504464409942027
265.716,0.11216467260240304,-0.11216467260240304
265.717,0.11102142117729774,-0.11102142117729774
265.718,0.10256958572603636,-0.10256958572603636
265.719,0.08950623154521054,-0.08950623154521054
265.72,0.07530380041149864,-0.07530380041149864
265.721,0.0631677915750466,-0.0631677915750466
265.722,0.055250512588183254,-0.055250512588183254
265.723,0.05231524341279048,-0.05231524341279048
265.724,0.05385934049896146,-0.05385934049896146
265.725,0.05854533134279494,-0.05854533134279494
265.726,0.06471371123055625,-0.06471371123055625
265.727,0.07077896981022325,-0.07077896981022325
265.728,0.07541656165801414,-0.07541656165801414
265.729,0.07757733016295243,-0.07757733016295243
265.73,0.07645553888167855,-0.07645553888167855
265.731,0.07154612366280622,-0.07154612366280622
265.732,0.06285323489127703,-0.06285323489127703
265.733,0.05119211124939038,-0.05119211124939038
265.734,0.03841992496951108,-0.03841992496951108
265.735,0.02739594361974307,-0.02739594361974307
265.736,0.021536066364142847,-0.021536066364142847
265.737,0.02397701305932043,-0.02397701305932043
265.738,0.036546163600290726,-0.036546163600290726
265.739,0.05886894143314492,-0.05886894143314492
265.74,0.08797113151608815,-0.08797113151608815
265.741,0.11862097746443179,-0.11862097746443179
265.742,0.14443044530679117,-0.14443044530679117
265.743,0.15946934218358466,-0.15946934218358466
265.744,0.15993583556151147,-0.15993583556151147
265.745,0.14535610791688858,-0.14535610791688858
265.746,0.11889328395505572,-0.11889328395505572
265.747,0.08660752361977686,-0.08660752361977686
265.748,0.05584345542483282,-0.05584345542483282
265.749,0.03321483902293587,-0.03321483902293587
265.75,0.022804797141245614,-0.022804797141245614
265.751,0.025145246379080333,-0.025145246379080333
265.752,0.037293053564940726,-0.037293053564940726
265.753,0.05396272157724846,-0.05396272157724846
265.754,0.06932741854097235,-0.06932741854097235
265.755,0.0788825678358428,-0.0788825678358428
265.756,0.08075584357357635,-0.08075584357357635
265.757,0.0760489537293636,-0.0760489537293636
265.758,0.06813973277299945,-0.06813973277299945
265.759,0.06123667430589219,-0.06123667430589219
265.76,0.05873306457487326,-0.05873306457487326
265.761,0.061963743410376915,-0.061963743410376915
265.762,0.06980512692520635,-0.06980512692520635
265.763,0.07923835279315317,-0.07923835279315317
265.764,0.08663394556736481,-0.08663394556736481
265.765,0.08924729578059998,-0.08924729578059998
265.766,0.08633736409553294,-0.08633736409553294
265.767,0.0794660515526392,-0.0794660515526392
265.768,0.0718503967231594,-0.0718503967231594
265.769,0.06700818119308849,-0.06700818119308849
265.77,0.06722172216876388,-0.06722172216876388
265.771,0.07243531760391553,-0.07243531760391553
265.772,0.08005928477994728,-0.08005928477994728
265.773,0.08582388000206242,-0.08582388000206242
265.774,0.08542655749055972,-0.08542655749055972
265.775,0.07639268620073747,-0.07639268620073747
265.77599999999995,0.05944645096255574,-0.05944645096255574
265.777,0.03881975436142682,-0.03881975436142682
265.778,0.021276306488075547,-0.021276306488075547
265.779,0.014079218272365357,-0.014079218272365357
265.78,0.02252597950830948,-0.02252597950830948
265.781,0.047871605033876996,-0.047871605033876996
265.782,0.08638126105870136,-0.08638126105870136
265.783,0.12991459167428976,-0.12991459167428976
265.784,0.1679528268223116,-0.1679528268223116
265.785,0.19049942999206648,-0.19049942999206648
265.786,0.19097835137219532,-0.19097835137219532
265.787,0.16822765254264116,-0.16822765254264116
265.78799999999995,0.12695388655892426,-0.12695388655892426
265.789,0.0764890649464719,-0.0764890649464719
265.79,0.028222000429475647,-0.028222000429475647
265.791,0.0075139167309372645,0.0075139167309372645
265.792,0.024156666527232362,0.024156666527232362
265.793,0.02043832268486434,0.02043832268486434
265.794,0.000309631810640143,0.000309631810640143
265.795,0.02862983093180904,-0.02862983093180904
265.796,0.05763469385936493,-0.05763469385936493
265.797,0.079428628595416,-0.079428628595416
265.798,0.09012345902766983,-0.09012345902766983
265.799,0.08990642527478154,-0.08990642527478154
265.79999999999995,0.08238775135572185,-0.08238775135572185
265.801,0.0729375369049079,-0.0729375369049079
265.802,0.06664235821300935,-0.06664235821300935
265.803,0.0665860552072568,-0.0665860552072568
265.804,0.07299508950624989,-0.07299508950624989
265.805,0.08345631035211232,-0.08345631035211232
265.806,0.09403660060867958,-0.09403660060867958
265.807,0.10084072217300766,-0.10084072217300766
265.808,0.10142990902550664,-0.10142990902550664
265.809,0.09561638820360596,-0.09561638820360596
265.81,0.08540238279637247,-0.08540238279637247
265.811,0.07414787775835374,-0.07414787775835374
265.81199999999995,0.06531562380728728,-0.06531562380728728
265.813,0.061265750181207834,-0.061265750181207834
265.814,0.06252187830816736,-0.06252187830816736
265.815,0.06773508735716827,-0.06773508735716827
265.816,0.07431002757956828,-0.07431002757956828
265.817,0.07942593061940739,-0.07942593061940739
265.818,0.08106418101814206,-0.08106418101814206
265.819,0.07867898645386395,-0.07867898645386395
265.82,0.07329966975731328,-0.07329966975731328
265.821,0.06706920440564423,-0.06706920440564423
265.822,0.06242213958699672,-0.06242213958699672
265.823,0.06121630050620053,-0.06121630050620053
265.824,0.06412330740454664,-0.06412330740454664
265.825,0.07046580677992498,-0.07046580677992498
265.826,0.07851538856423101,-0.07851538856423101
265.827,0.08610238437718931,-0.08610238437718931
265.828,0.09129560611831322,-0.09129560611831322
265.829,0.0929145659149403,-0.0929145659149403
265.83,0.0907279219264906,-0.0907279219264906
265.831,0.0853269159481358,-0.0853269159481358
265.832,0.07778514208938114,-0.07778514208938114
265.833,0.06927917789949756,-0.06927917789949756
265.834,0.060828635552385046,-0.060828635552385046
265.835,0.0532326750191735,-0.0532326750191735
265.836,0.04717275009691968,-0.04717275009691968
265.837,0.04336689142269967,-0.04336689142269967
265.838,0.04263617913730122,-0.04263617913730122
265.839,0.04578958800490118,-0.04578958800490118
265.84,0.053328863502348445,-0.053328863502348445
265.841,0.0650782598915225,-0.0650782598915225
265.842,0.07990814938101964,-0.07990814938101964
265.843,0.09571502950799027,-0.09571502950799027
265.844,0.10974024200841759,-0.10974024200841759
265.845,0.11918349945256568,-0.11918349945256568
265.846,0.12194346697604408,-0.12194346697604408
265.847,0.11724650083440025,-0.11724650083440025
265.848,0.10593851522455666,-0.10593851522455666
265.849,0.0903146265929291,-0.0903146265929291
265.85,0.07351436460228145,-0.07351436460228145
265.851,0.058662495325286335,-0.058662495325286335
265.852,0.0480304286456007,-0.0480304286456007
265.853,0.04249349142455239,-0.04249349142455239
265.854,0.041461508402502734,-0.041461508402502734
265.855,0.043296667600127625,-0.043296667600127625
265.856,0.04606105222942891,-0.04606105222942891
265.857,0.04831839264590232,-0.04831839264590232
265.858,0.04969423465055378,-0.04969423465055378
265.859,0.05098504126516756,-0.05098504126516756
265.86,0.053770495639682836,-0.053770495639682836
265.861,0.05966672961910913,-0.05966672961910913
265.862,0.0694955883303352,-0.0694955883303352
265.863,0.08268607034182818,-0.08268607034182818
265.864,0.0971521525884863,-0.0971521525884863
265.865,0.1097296689041305,-0.1097296689041305
265.866,0.1170591297271244,-0.1170591297271244
265.867,0.11663941363859931,-0.11663941363859931
265.868,0.1077060495482326,-0.1077060495482326
265.869,0.09163320578409939,-0.09163320578409939
265.87,0.07170632781247388,-0.07170632781247388
265.871,0.05231339634888954,-0.05231339634888954
265.872,0.03778984910687111,-0.03778984910687111
265.873,0.03126330969351121,-0.03126330969351121
265.874,0.03384350896718147,-0.03384350896718147
265.875,0.04439205996625872,-0.04439205996625872
265.876,0.059924260612616354,-0.059924260612616354
265.877,0.07650161642969089,-0.07650161642969089
265.878,0.09033167386537189,-0.09033167386537189
265.879,0.09874424404313298,-0.09874424404313298
265.88,0.1007707041092204,-0.1007707041092204
265.881,0.09719167004001272,-0.09719167004001272
265.882,0.0900889205554889,-0.0900889205554889
265.883,0.08208367237454628,-0.08208367237454628
265.884,0.07552053234093792,-0.07552053234093792
265.885,0.07184572430841374,-0.07184572430841374
265.886,0.07134066749649415,-0.07134066749649415
265.887,0.07324296947774311,-0.07324296947774311
265.888,0.07616217025297778,-0.07616217025297778
265.889,0.07861723804346499,-0.07861723804346499
265.89,0.07950836026432029,-0.07950836026432029
265.891,0.07838432334970469,-0.07838432334970469
265.892,0.07545507340039592,-0.07545507340039592
265.893,0.07139232610147173,-0.07139232610147173
265.894,0.06702678661555506,-0.06702678661555506
265.895,0.06306912874022474,-0.06306912874022474
265.896,0.05995237386174335,-0.05995237386174335
265.897,0.0578317553562413,-0.0578317553562413
265.898,0.0567103580912357,-0.0567103580912357
265.899,0.056610330404755604,-0.056610330404755604
265.9,0.05769658163261826,-0.05769658163261826
265.90099999999995,0.06028475481245488,-0.06028475481245488
265.902,0.06471637546671405,-0.06471637546671405
265.903,0.07114137447997348,-0.07114137447997348
265.904,0.07929068184741206,-0.07929068184741206
265.905,0.08833454476138936,-0.08833454476138936
265.906,0.0969015310726018,-0.0969015310726018
265.907,0.10328585585488115,-0.10328585585488115
265.908,0.10581177313154166,-0.10581177313154166
265.909,0.10327121040572651,-0.10327121040572651
265.91,0.09531994129108556,-0.09531994129108556
265.911,0.08271721146600008,-0.08271721146600008
265.912,0.06732443859114867,-0.06732443859114867
265.91299999999995,0.05183328897383832,-0.05183328897383832
265.914,0.039259448246334094,-0.039259448246334094
265.915,0.0323005003244593,-0.0323005003244593
265.916,0.032699688768548896,-0.032699688768548896
265.917,0.040770355744106146,-0.040770355744106146
265.918,0.055212551324729686,-0.055212551324729686
265.919,0.0732951507154237,-0.0732951507154237
265.92,0.09139361917898337,-0.09139361917898337
265.921,0.10578279955905334,-0.10578279955905334
265.922,0.1135081356874792,-0.1135081356874792
265.923,0.1131199277109819,-0.1131199277109819
265.924,0.10506955169649579,-0.10506955169649579
265.92499999999995,0.09163771677660959,-0.09163771677660959
265.926,0.07638047522481073,-0.07638047522481073
265.927,0.0632113284021133,-0.0632113284021133
265.928,0.05535053885252306,-0.05535053885252306
265.929,0.054429599245931826,-0.054429599245931826
265.93,0.06001609378274875,-0.06001609378274875
265.931,0.0697201581914102,-0.0697201581914102
265.932,0.07988205828862549,-0.07988205828862549
265.933,0.08666565658858871,-0.08666565658858871
265.934,0.08724814343769294,-0.08724814343769294
265.935,0.08074807734720557,-0.08074807734720557
265.936,0.06859367593948262,-0.06859367593948262
265.93699999999995,0.05419050299975936,-0.05419050299975936
265.938,0.04195886189728559,-0.04195886189728559
265.939,0.036012210546396584,-0.036012210546396584
265.94,0.03887350436642323,-0.03887350436642323
265.941,0.05063173518198738,-0.05063173518198738
265.942,0.06881794761817217,-0.06881794761817217
265.943,0.08906225056978034,-0.08906225056978034
265.944,0.1063472958247016,-0.1063472958247016
265.945,0.11647839138465277,-0.11647839138465277
265.946,0.11731164546385464,-0.11731164546385464
265.947,0.10934925013688868,-0.10934925013688868
265.948,0.09550774731579426,-0.09550774731579426
265.949,0.08012994136324281,-0.08012994136324281
265.95,0.06755844768943575,-0.06755844768943575
265.951,0.06073634253881799,-0.06073634253881799
265.952,0.060296666754052985,-0.060296666754052985
265.953,0.06444550221137202,-0.06444550221137202
265.954,0.06968213076953633,-0.06968213076953633
265.955,0.07211958358630355,-0.07211958358630355
265.956,0.06896305657556445,-0.06896305657556445
265.957,0.05964246361093528,-0.05964246361093528
265.958,0.04620184332015076,-0.04620184332015076
265.959,0.03278961002703318,-0.03278961002703318
265.96,0.024391244557235514,-0.024391244557235514
265.961,0.02520154391399243,-0.02520154391399243
265.962,0.037161505110207216,-0.037161505110207216
265.963,0.059141574687306964,-0.059141574687306964
265.964,0.0870513408759862,-0.0870513408759862
265.965,0.11486141328237931,-0.11486141328237931
265.966,0.1362326603587264,-0.1362326603587264
265.967,0.14625615209394027,-0.14625615209394027
265.968,0.1427759362220139,-0.1427759362220139
265.969,0.1269044684726114,-0.1269044684726114
265.97,0.10259965833892282,-0.10259965833892282
265.971,0.07546642741743248,-0.07546642741743248
265.972,0.05117813422160389,-0.05117813422160389
265.973,0.03401065693782401,-0.03401065693782401
265.974,0.025917610004842495,-0.025917610004842495
265.975,0.026376895209914486,-0.026376895209914486
265.976,0.03297791005843009,-0.03297791005843009
265.977,0.04248467230541919,-0.04248467230541919
265.978,0.05197939524193573,-0.05197939524193573
265.979,0.05970169605395026,-0.05970169605395026
265.98,0.06533863844875343,-0.06533863844875343
265.981,0.0697343096675751,-0.0697343096675751
265.982,0.07419601799936915,-0.07419601799936915
265.983,0.07970456331835907,-0.07970456331835907
265.984,0.08634656514829375,-0.08634656514829375
265.985,0.09318035536805536,-0.09318035536805536
265.986,0.09856815848451816,-0.09856815848451816
265.987,0.10082515249515067,-0.10082515249515067
265.988,0.09891798665398555,-0.09891798665398555
265.989,0.09293294817410802,-0.09293294817410802
265.99,0.08412845069938057,-0.08412845069938057
265.991,0.07454948932683736,-0.07454948932683736
265.992,0.06635030122289698,-0.06635030122289698
265.993,0.06108206086762291,-0.06108206086762291
265.994,0.05921417979533228,-0.05921417979533228
265.995,0.060067357941644084,-0.060067357941644084
265.996,0.06217887098300057,-0.06217887098300057
265.997,0.06395545025723604,-0.06395545025723604
265.998,0.06435875200359187,-0.06435875200359187
265.999,0.06335442202250952,-0.06335442202250952
266.0,0.06194379100499958,-0.06194379100499958
266.001,0.06175498009432767,-0.06175498009432767
266.002,0.0643393411590284,-0.0643393411590284
266.003,0.07043681959472348,-0.07043681959472348
266.004,0.07949562566570512,-0.07949562566570512
266.005,0.08964793460831177,-0.08964793460831177
266.006,0.09818301386962025,-0.09818301386962025
266.007,0.10237911340737205,-0.10237911340737205
266.008,0.10042023595096006,-0.10042023595096006
266.009,0.09208261095906312,-0.09208261095906312
266.01,0.07894434060848066,-0.07894434060848066
266.011,0.06402749394934504,-0.06402749394934504
266.012,0.05097142446971947,-0.05097142446971947
266.013,0.04299400688252575,-0.04299400688252575
266.014,0.04196966603634544,-0.04196966603634544
266.015,0.04791521375036445,-0.04791521375036445
266.016,0.059040286904281314,-0.059040286904281314
266.017,0.07233495715510652,-0.07233495715510652
266.018,0.08449539975467624,-0.08449539975467624
266.019,0.09288631326151175,-0.09288631326151175
266.02,0.09623812001585541,-0.09623812001585541
266.021,0.09487479686145406,-0.09487479686145406
266.022,0.09042851459580337,-0.09042851459580337
266.023,0.08516460322161079,-0.08516460322161079
266.024,0.081159244132194,-0.081159244132194
266.025,0.07960601534973721,-0.07960601534973721
266.02599999999995,0.0804694871438636,-0.0804694871438636
266.027,0.08257876193927793,-0.08257876193927793
266.028,0.08410626787213527,-0.08410626787213527
266.029,0.08325670131273233,-0.08325670131273233
266.03,0.07893471173268074,-0.07893471173268074
266.031,0.07118075791815359,-0.07118075791815359
266.032,0.06124928468162438,-0.06124928468162438
266.033,0.051319265385155854,-0.051319265385155854
266.034,0.04393493536279469,-0.04393493536279469
266.035,0.04134218209091389,-0.04134218209091389
266.036,0.044898626236220096,-0.044898626236220096
266.037,0.0546977428544807,-0.0546977428544807
266.03799999999995,0.06947931309282707,-0.06947931309282707
266.039,0.08682553285217343,-0.08682553285217343
266.04,0.1035852157142827,-0.1035852157142827
266.041,0.11643752876879632,-0.11643752876879632
266.042,0.12249925203007861,-0.12249925203007861
266.043,0.1198855825023718,-0.1198855825023718
266.044,0.10814348558088516,-0.10814348558088516
266.045,0.08848402028791713,-0.08848402028791713
266.046,0.06374996227333951,-0.06374996227333951
266.047,0.03807731054690233,-0.03807731054690233
266.048,0.01625296031635859,-0.01625296031635859
266.049,0.0028367004352412017,-0.0028367004352412017
266.04999999999995,0.0011916496827555356,-0.0011916496827555356
266.051,0.012629559401838408,-0.012629559401838408
266.052,0.03589811996399961,-0.03589811996399961
266.053,0.06719553862347372,-0.06719553862347372
266.054,0.10078996609213897,-0.10078996609213897
266.055,0.13016793253314363,-0.13016793253314363
266.056,0.14947753671813668,-0.14947753671813668
266.057,0.154918891414344,-0.154918891414344
266.058,0.14570938657703458,-0.14570938657703458
266.059,0.12433451015307273,-0.12433451015307273
266.06,0.09597286426336415,-0.09597286426336415
266.061,0.06721073672703959,-0.06721073672703959
266.06199999999995,0.04437090417418854,-0.04437090417418854
266.063,0.03190599379509251,-0.03190599379509251
266.064,0.03130440844132221,-0.03130440844132221
266.065,0.04082030568135964,-0.04082030568135964
266.066,0.056104632441983715,-0.056104632441983715
266.067,0.07155078748357724,-0.07155078748357724
266.068,0.0819569389434528,-0.0819569389434528
266.069,0.08401414931485396,-0.08401414931485396
266.07,0.07718589527935815,-0.07718589527935815
266.071,0.06373398180591938,-0.06373398180591938
266.072,0.04790933858767099,-0.04790933858767099
266.073,0.03458080767454197,-0.03458080767454197
266.074,0.02774051499890029,-0.02774051499890029
266.075,0.029349288084730363,-0.029349288084730363
266.076,0.03886394176240726,-0.03886394176240726
266.077,0.053561580041481816,-0.053561580041481816
266.078,0.06951933984862635,-0.06951933984862635
266.079,0.08290481896521329,-0.08290481896521329
266.08,0.0911473813557071,-0.0911473813557071
266.081,0.09361818003150912,-0.09361818003150912
266.082,0.09162412888177052,-0.09162412888177052
266.083,0.08775619200142692,-0.08775619200142692
266.084,0.08484559016485349,-0.08484559016485349
266.085,0.08490249962685548,-0.08490249962685548
266.086,0.08840284295111978,-0.08840284295111978
266.087,0.09415672560378896,-0.09415672560378896
266.088,0.09978506721975322,-0.09978506721975322
266.089,0.10262115350439405,-0.10262115350439405
266.09,0.10071240314012142,-0.10071240314012142
266.091,0.09357079375581501,-0.09357079375581501
266.092,0.08241424617852222,-0.08241424617852222
266.093,0.06982080397459245,-0.06982080397459245
266.094,0.05891943236576358,-0.05891943236576358
266.095,0.05239647061914232,-0.05239647061914232
266.096,0.05165368209940824,-0.05165368209940824
266.097,0.0563956890903069,-0.0563956890903069
266.098,0.06477410097294756,-0.06477410097294756
266.099,0.07402626839935134,-0.07402626839935134
266.1,0.08138339001847228,-0.08138339001847228
266.101,0.08493993021927815,-0.08493993021927815
266.102,0.08419936165505992,-0.08419936165505992
266.103,0.08012894505790735,-0.08012894505790735
266.104,0.07472586423082228,-0.07472586423082228
266.105,0.07025981782555835,-0.07025981782555835
266.106,0.06845885201531066,-0.06845885201531066
266.107,0.06991412944849928,-0.06991412944849928
266.108,0.0738961814834086,-0.0738961814834086
266.109,0.07863146314423208,-0.07863146314423208
266.11,0.08193400885100666,-0.08193400885100666
266.111,0.08197399119572557,-0.08197399119572557
266.112,0.07792812876047706,-0.07792812876047706
266.113,0.07030422891690313,-0.07030422891690313
266.114,0.06084358854975702,-0.06084358854975702
266.115,0.05204073045100366,-0.05204073045100366
266.116,0.046435134362984964,-0.046435134362984964
266.117,0.04588949203189685,-0.04588949203189685
266.118,0.051059651550212415,-0.051059651550212415
266.119,0.06119241451729596,-0.06119241451729596
266.12,0.0742862678569296,-0.0742862678569296
266.121,0.08755130998410698,-0.08755130998410698
266.122,0.09803685587243549,-0.09803685587243549
266.123,0.10327276261200413,-0.10327276261200413
266.124,0.10179055329003972,-0.10179055329003972
266.125,0.09343694914732303,-0.09343694914732303
266.126,0.07944474960345238,-0.07944474960345238
266.127,0.06226774909216637,-0.06226774909216637
266.128,0.04521138103581812,-0.04521138103581812
266.129,0.03190358126487158,-0.03190358126487158
266.13,0.025661502234473277,-0.025661502234473277
266.131,0.028828165148608975,-0.028828165148608975
266.132,0.042179618949275466,-0.042179618949275466
266.133,0.06452757240854279,-0.06452757240854279
266.134,0.0926470404399129,-0.0926470404399129
266.135,0.12162594289386974,-0.12162594289386974
266.136,0.14565649158752447,-0.14565649158752447
266.137,0.15917637080712932,-0.15917637080712932
266.138,0.15814889965849743,-0.15814889965849743
266.139,0.1411845584183512,-0.1411845584183512
266.14,0.11018897204980516,-0.11018897204980516
266.141,0.07029610289903954,-0.07029610289903954
266.142,0.02900437201919337,-0.02900437201919337
266.143,0.005357715594702217,0.005357715594702217
266.144,0.025508656403441465,0.025508656403441465
266.145,0.02697552359427413,0.02697552359427413
266.146,0.009270411608995444,0.009270411608995444
266.147,0.02386446340345527,-0.02386446340345527
266.148,0.0652561184127537,-0.0652561184127537
266.149,0.10597641700377514,-0.10597641700377514
266.15,0.13747719959382876,-0.13747719959382876
266.15099999999995,0.15362836050327877,-0.15362836050327877
266.152,0.15211773096048553,-0.15211773096048553
266.153,0.1348432204489941,-0.1348432204489941
266.154,0.1072084389985819,-0.1072084389985819
266.155,0.07654115002235318,-0.07654115002235318
266.156,0.05009744870547139,-0.05009744870547139
266.157,0.03322015607822759,-0.03322015607822759
266.158,0.028156182773452887,-0.028156182773452887
266.159,0.03382553995117432,-0.03382553995117432
266.16,0.04654132286002677,-0.04654132286002677
266.161,0.06139730842577118,-0.06139730842577118
266.162,0.07385525702021756,-0.07385525702021756
266.16299999999995,0.08103258879128428,-0.08103258879128428
266.164,0.08231791949814071,-0.08231791949814071
266.165,0.07918109939108486,-0.07918109939108486
266.166,0.07431464208955052,-0.07431464208955052
266.167,0.07045530082877116,-0.07045530082877116
266.168,0.06932005825637166,-0.06932005825637166
266.169,0.07102568348468463,-0.07102568348468463
266.17,0.07417216631680179,-0.07417216631680179
266.171,0.07652594835459647,-0.07652594835459647
266.172,0.0760246854488591,-0.0760246854488591
266.173,0.07171511715973888,-0.07171511715973888
266.174,0.06426618112701998,-0.06426618112701998
266.17499999999995,0.05585806500751744,-0.05585806500751744
266.176,0.04947707902706633,-0.04947707902706633
266.177,0.04786428464006598,-0.04786428464006598
266.178,0.05249518200059733,-0.05249518200059733
266.179,0.06296227807437027,-0.06296227807437027
266.18,0.07699348432619879,-0.07699348432619879
266.181,0.0911157200418361,-0.0911157200418361
266.182,0.10174380266125183,-0.10174380266125183
266.183,0.10632125976795792,-0.10632125976795792
266.184,0.10411744031468673,-0.10411744031468673
266.185,0.09640350798383523,-0.09640350798383523
266.186,0.08594797745606575,-0.08594797745606575
266.18699999999995,0.07601373508308318,-0.07601373508308318
266.188,0.06921695978825926,-0.06921695978825926
266.189,0.06665913990555927,-0.06665913990555927
266.19,0.06764618904717312,-0.06764618904717312
266.191,0.07009592333604664,-0.07009592333604664
266.192,0.07148153420518677,-0.07148153420518677
266.193,0.06995535717150025,-0.06995535717150025
266.194,0.06521968589782867,-0.06521968589782867
266.195,0.058791932795311586,-0.058791932795311586
266.196,0.05352635105806958,-0.05352635105806958
266.197,0.05253065393958534,-0.05253065393958534
266.198,0.057855040766680466,-0.057855040766680466
266.199,0.06944432054168015,-0.06944432054168015
266.2,0.08478317830889426,-0.08478317830889426
266.201,0.09944227029784858,-0.09944227029784858
266.202,0.10841916249615491,-0.10841916249615491
266.203,0.10786963237885627,-0.10786963237885627
266.204,0.09664837503838397,-0.09664837503838397
266.205,0.07709354824943881,-0.07709354824943881
266.206,0.05470367677154597,-0.05470367677154597
266.207,0.036706655472792615,-0.036706655472792615
266.208,0.02989696944447573,-0.02989696944447573
266.209,0.03839236373769095,-0.03839236373769095
266.21,0.06203650360812174,-0.06203650360812174
266.211,0.09601352599259927,-0.09601352599259927
266.212,0.13188479739754877,-0.13188479739754877
266.213,0.15981515996468754,-0.15981515996468754
266.214,0.1713661990141112,-0.1713661990141112
266.215,0.16202617408032038,-0.16202617408032038
266.216,0.13269391533611663,-0.13269391533611663
266.217,0.08963025499631916,-0.08963025499631916
266.218,0.04284800499522623,-0.04284800499522623
266.219,0.003388751347912722,-0.003388751347912722
266.22,0.019718724229397022,0.019718724229397022
266.221,0.021918968483419565,0.021918968483419565
266.222,0.0042826719617790054,0.0042826719617790054
266.223,0.026977212774370485,-0.026977212774370485
266.224,0.06245671554534549,-0.06245671554534549
266.225,0.0923675420939375,-0.0923675420939375
266.226,0.10933888266317682,-0.10933888266317682
266.227,0.11037578215807642,-0.11037578215807642
266.228,0.09741703998795803,-0.09741703998795803
266.229,0.07638388228123882,-0.07638388228123882
266.23,0.05508086098822351,-0.05508086098822351
266.231,0.04065319975791959,-0.04065319975791959
266.232,0.03741442956704222,-0.03741442956704222
266.233,0.04570608026616407,-0.04570608026616407
266.234,0.062093836604291575,-0.062093836604291575
266.235,0.08076328789695608,-0.08076328789695608
266.236,0.09559855098327097,-0.09559855098327097
266.237,0.10222991330970399,-0.10222991330970399
266.238,0.09938026036535896,-0.09938026036535896
266.239,0.08910169413159097,-0.08910169413159097
266.24,0.07587952449270663,-0.07587952449270663
266.241,0.06495865187168737,-0.06495865187168737
266.242,0.06049193514756135,-0.06049193514756135
266.243,0.06414449956982282,-0.06414449956982282
266.244,0.07460792440119668,-0.07460792440119668
266.245,0.0881518834812588,-0.0881518834812588
266.246,0.09998339110138021,-0.09998339110138021
266.247,0.10591761926220145,-0.10591761926220145
266.248,0.10377689939358559,-0.10377689939358559
266.249,0.0940500158913452,-0.0940500158913452
266.25,0.0796161331265548,-0.0796161331265548
266.251,0.06466803684422562,-0.06466803684422562
266.252,0.05324186508178452,-0.05324186508178452
266.253,0.04788228865922939,-0.04788228865922939
266.254,0.04890498864011661,-0.04890498864011661
266.255,0.05449080344736812,-0.05449080344736812
266.256,0.061542026360317026,-0.061542026360317026
266.257,0.06696001259506923,-0.06696001259506923
266.258,0.06885995668096401,-0.06885995668096401
266.259,0.06727208901565807,-0.06727208901565807
266.26,0.06407406884665034,-0.06407406884665034
266.261,0.0621851894573483,-0.0621851894573483
266.262,0.06432599355608914,-0.06432599355608914
266.263,0.07180920917539224,-0.07180920917539224
266.264,0.08382159452017202,-0.08382159452017202
266.265,0.09748345612053899,-0.09748345612053899
266.266,0.10869451659663909,-0.10869451659663909
266.267,0.11349005129181655,-0.11349005129181655
266.268,0.10944095207451932,-0.10944095207451932
266.269,0.09660375351366846,-0.09660375351366846
266.27,0.07767283903566335,-0.07767283903566335
266.271,0.057257249184842096,-0.057257249184842096
266.272,0.040505336222238064,-0.040505336222238064
266.273,0.031527464423719564,-0.031527464423719564
266.274,0.03214086134758831,-0.03214086134758831
266.275,0.04135525837201515,-0.04135525837201515
266.27599999999995,0.05576882561823948,-0.05576882561823948
266.277,0.07073648841995672,-0.07073648841995672
266.278,0.08191251941452415,-0.08191251941452415
266.279,0.08664551234999096,-0.08664551234999096
266.28,0.08475857879892823,-0.08475857879892823
266.281,0.0784615204223138,-0.0784615204223138
266.282,0.07144084904793624,-0.07144084904793624
266.283,0.06745490716100255,-0.06745490716100255
266.284,0.06892857178493794,-0.06892857178493794
266.285,0.07603833532154003,-0.07603833532154003
266.286,0.08660612357001807,-0.08660612357001807
266.287,0.09683909483653874,-0.09683909483653874
266.28799999999995,0.10265987215156114,-0.10265987215156114
266.289,0.10116765482382295,-0.10116765482382295
266.29,0.09172489767024539,-0.09172489767024539
266.291,0.07629161758826553,-0.07629161758826553
266.292,0.0588854883815777,-0.0588854883815777
266.293,0.04434267292952376,-0.04434267292952376
266.294,0.036790567696098786,-0.036790567696098786
266.295,0.03833951771788946,-0.03833951771788946
266.296,0.048424788072866654,-0.048424788072866654
266.297,0.06400996967944494,-0.06400996967944494
266.298,0.08057454060986835,-0.08057454060986835
266.299,0.09354970403105489,-0.09354970403105489
266.29999999999995,0.09972460897059743,-0.09972460897059743
266.301,0.09816555385009995,-0.09816555385009995
266.302,0.09036389489569496,-0.09036389489569496
266.303,0.07959270327146672,-0.07959270327146672
266.304,0.06971653068873995,-0.06971653068873995
266.305,0.06387355058387656,-0.06387355058387656
266.306,0.06347767313705821,-0.06347767313705821
266.307,0.06786394705451182,-0.06786394705451182
266.308,0.07466982084537244,-0.07466982084537244
266.309,0.080789193236385,-0.080789193236385
266.31,0.08354394557043443,-0.08354394557043443
266.311,0.08165345259356571,-0.08165345259356571
266.31199999999995,0.07566561402024408,-0.07566561402024408
266.313,0.06771125030206426,-0.06771125030206426
266.314,0.060686036038111846,-0.060686036038111846
266.315,0.05716529541580251,-0.05716529541580251
266.316,0.05844742659673863,-0.05844742659673863
266.317,0.06407139831597786,-0.06407139831597786
266.318,0.071981919193286,-0.071981919193286
266.319,0.07928377344296378,-0.07928377344296378
266.32,0.08331604175394014,-0.08331604175394014
266.321,0.08266102898043859,-0.08266102898043859
266.322,0.0777219162431032,-0.0777219162431032
266.323,0.07065077796637043,-0.07065077796637043
266.324,0.06463376284874955,-0.06463376284874955
266.325,0.06276555420433139,-0.06276555420433139
266.326,0.06689341204713506,-0.06689341204713506
266.327,0.07683122136810427,-0.07683122136810427
266.328,0.09022849879301764,-0.09022849879301764
266.329,0.10316633977307943,-0.10316633977307943
266.33,0.11131241293500016,-0.11131241293500016
266.331,0.11127959443730162,-0.11127959443730162
266.332,0.10175926801203172,-0.10175926801203172
266.333,0.08406453074412423,-0.08406453074412423
266.334,0.06189937075263119,-0.06189937075263119
266.335,0.04040880356305776,-0.04040880356305776
266.336,0.02478577429189721,-0.02478577429189721
266.337,0.01884438070932437,-0.01884438070932437
266.338,0.023975741792508387,-0.023975741792508387
266.339,0.038783577630589594,-0.038783577630589594
266.34,0.05949137885677269,-0.05949137885677269
266.341,0.08098707201727728,-0.08098707201727728
266.342,0.09819310478807342,-0.09819310478807342
266.343,0.10737076591967598,-0.10737076591967598
266.344,0.10700556775283832,-0.10700556775283832
266.345,0.09805759337636355,-0.09805759337636355
266.346,0.083550350916341,-0.083550350916341
266.347,0.06765510914414108,-0.06765510914414108
266.348,0.05455259178645133,-0.05455259178645133
266.349,0.04738963371171134,-0.04738963371171134
266.35,0.0475931873421076,-0.0475931873421076
266.351,0.05468271528314628,-0.05468271528314628
266.352,0.06657569214752035,-0.06657569214752035
266.353,0.08025316813191263,-0.08025316813191263
266.354,0.09257587364310926,-0.09257587364310926
266.355,0.10103003646759012,-0.10103003646759012
266.356,0.10422961411506948,-0.10422961411506948
266.357,0.10208645132388039,-0.10208645132388039
266.358,0.09565386857521552,-0.09565386857521552
266.359,0.0867268676878803,-0.0867268676878803
266.36,0.07732715810703339,-0.07732715810703339
266.361,0.06920884517007764,-0.06920884517007764
266.362,0.06349628505260285,-0.06349628505260285
266.363,0.060520803518088306,-0.060520803518088306
266.364,0.05987076117421064,-0.05987076117421064
266.365,0.060621076040508926,-0.060621076040508926
266.366,0.061671743410498525,-0.061671743410498525
266.367,0.062104911709771615,-0.062104911709771615
266.368,0.061469045551887036,-0.061469045551887036
266.369,0.05991694134300096,-0.05991694134300096
266.37,0.05815964618663361,-0.05815964618663361
266.371,0.05724499806036942,-0.05724499806036942
266.372,0.058217962341141405,-0.058217962341141405
266.373,0.06175769693059663,-0.06175769693059663
266.374,0.06790088645818704,-0.06790088645818704
266.375,0.0759442210772,-0.0759442210772
266.376,0.0845712729585052,-0.0845712729585052
266.377,0.09218122712942356,-0.09218122712942356
266.378,0.09732865958087789,-0.09732865958087789
266.379,0.0991380758725976,-0.0991380758725976
266.38,0.09755313980009284,-0.09755313980009284
266.381,0.09332526923938356,-0.09332526923938356
266.382,0.0877298112242888,-0.0877298112242888
266.383,0.08209506250442788,-0.08209506250442788
266.384,0.07730628383842586,-0.07730628383842586
266.385,0.07347278676284308,-0.07347278676284308
266.386,0.06990513189782888,-0.06990513189782888
266.387,0.06544814020925838,-0.06544814020925838
266.388,0.059083641821708555,-0.059083641821708555
266.389,0.050599640912965316,-0.050599640912965316
266.39,0.0410652530791662,-0.0410652530791662
266.391,0.03288255678361629,-0.03288255678361629
266.392,0.02930771169275581,-0.02930771169275581
266.393,0.03351221198742571,-0.03351221198742571
266.394,0.04743420690424305,-0.04743420690424305
266.395,0.07078561013602092,-0.07078561013602092
266.396,0.10058432562782205,-0.10058432562782205
266.397,0.13145729173660103,-0.13145729173660103
266.398,0.15673684612279182,-0.15673684612279182
266.399,0.1701151589455766,-0.1701151589455766
266.4,0.16741262604492257,-0.16741262604492257
266.40099999999995,0.14793100812915083,-0.14793100812915083
266.402,0.11494061916336007,-0.11494061916336007
266.403,0.0750814129402726,-0.0750814129402726
266.404,0.036777190342412114,-0.036777190342412114
266.405,0.008072987373904716,-0.008072987373904716
266.406,0.005493266445862899,0.005493266445862899
266.407,0.0023541292980429063,0.0023541292980429063
266.408,0.014741457759547827,-0.014741457759547827
266.409,0.039623845153751946,-0.039623845153751946
266.41,0.06458419795794101,-0.06458419795794101
266.411,0.08267510208504913,-0.08267510208504913
266.412,0.08972380044279105,-0.08972380044279105
266.41299999999995,0.0854337664747925,-0.0854337664747925
266.414,0.07323406986085212,-0.07323406986085212
266.415,0.05893450582414972,-0.05893450582414972
266.416,0.048630847997737425,-0.048630847997737425
266.417,0.046552534000550705,-0.046552534000550705
266.418,0.053570586573414514,-0.053570586573414514
266.419,0.06687372962533478,-0.06687372962533478
266.42,0.08093971163465341,-0.08093971163465341
266.421,0.08949869014528355,-0.08949869014528355
266.422,0.0878467056342922,-0.0878467056342922
266.423,0.074733004731115,-0.074733004731115
266.424,0.05316338523061581,-0.05316338523061581
266.42499999999995,0.02979896567778695,-0.02979896567778695
266.426,0.013079904810221588,-0.013079904810221588
266.427,0.010622403152428794,-0.010622403152428794
266.428,0.02668901866754758,-0.02668901866754758
266.429,0.06053382192095602,-0.06053382192095602
266.43,0.10617203010556964,-0.10617203010556964
266.431,0.15369642144925733,-0.15369642144925733
266.432,0.19179382869101946,-0.19179382869101946
266.433,0.21075072755326418,-0.21075072755326418
266.434,0.20508940702020118,-0.20508940702020118
266.435,0.17508790066104107,-0.17508790066104107
266.436,0.12676854571498797,-0.12676854571498797
266.43699999999995,0.07038527799989014,-0.07038527799989014
266.438,0.01786063335403565,-0.01786063335403565
266.439,0.0201048345602568,0.0201048345602568
266.44,0.0364782455134085,0.0364782455134085
266.441,0.02929562411800246,0.02929562411800246
266.442,0.0017472757506904468,0.0017472757506904468
266.443,0.03895028824676883,-0.03895028824676883
266.444,0.08348799955072572,-0.08348799955072572
266.445,0.12264008699924445,-0.12264008699924445
266.446,0.14913950751071203,-0.14913950751071203
266.447,0.15887548894335413,-0.15887548894335413
266.448,0.15127258560894385,-0.15127258560894385
266.449,0.12893502693298742,-0.12893502693298742
266.45,0.09678668799582169,-0.09678668799582169
266.451,0.06097940059885987,-0.06097940059885987
266.452,0.027796731022455057,-0.027796731022455057
266.453,0.0026923457788976535,-0.0026923457788976535
266.454,0.01047663941549759,0.01047663941549759
266.455,0.009995962618413623,0.009995962618413623
266.456,0.0034171143651408054,-0.0034171143651408054
266.457,0.026652070853213194,-0.026652070853213194
266.458,0.05464991656064844,-0.05464991656064844
266.459,0.0812883201249881,-0.0812883201249881
266.46,0.10063209248060634,-0.10063209248060634
266.461,0.10833086668014813,-0.10833086668014813
266.462,0.10282469291913865,-0.10282469291913865
266.463,0.08598165415796966,-0.08598165415796966
266.464,0.06288052918451625,-0.06288052918451625
266.465,0.0406635714577388,-0.0406635714577388
266.466,0.026667047089429685,-0.026667047089429685
266.467,0.026300485624333403,-0.026300485624333403
266.468,0.04129217164476673,-0.04129217164476673
266.469,0.06887927195670296,-0.06887927195670296
266.47,0.10228510403591695,-0.10228510403591695
266.471,0.1324510621669016,-0.1324510621669016
266.472,0.1505893696269901,-0.1505893696269901
266.473,0.150827915298967,-0.150827915298967
266.474,0.1321375579710634,-0.1321375579710634
266.475,0.09890809877665685,-0.09890809877665685
266.476,0.05992988300823543,-0.05992988300823543
266.477,0.02602663608918354,-0.02602663608918354
266.478,0.007015383647732243,-0.007015383647732243
266.479,0.008897377069617907,-0.008897377069617907
266.48,0.03212839989339955,-0.03212839989339955
266.481,0.07148880981266703,-0.07148880981266703
266.482,0.11757612931164352,-0.11757612931164352
266.483,0.15943800677520992,-0.15943800677520992
266.484,0.18751792324483063,-0.18751792324483063
266.485,0.19601473082653742,-0.19601473082653742
266.486,0.1839818782394672,-0.1839818782394672
266.487,0.1549334845042848,-0.1549334845042848
266.488,0.11522804189677849,-0.11522804189677849
266.489,0.07189101765910888,-0.07189101765910888
266.49,0.030680097092116165,-0.030680097092116165
266.491,0.004954796160137942,0.004954796160137942
266.492,0.03375029533726326,0.03375029533726326
266.493,0.0555553079619211,0.0555553079619211
266.494,0.0698962001439698,0.0698962001439698
266.495,0.0749209923878591,0.0749209923878591
266.496,0.06731076937188196,0.06731076937188196
266.497,0.04334707215503619,0.04334707215503619
266.498,0.000822552256796838,0.000822552256796838
266.499,0.058930558239535635,-0.058930558239535635
266.5,0.1297771553431677,-0.1297771553431677
266.501,0.20098731323801755,-0.20098731323801755
266.502,0.2591520044692115,-0.2591520044692115
266.503,0.29143272674009313,-0.29143272674009313
266.504,0.2892349564844068,-0.2892349564844068
266.505,0.25113369403982533,-0.25113369403982533
266.506,0.18400709660839687,-0.18400709660839687
266.507,0.10183446580478539,-0.10183446580478539
266.508,0.02233865297185933,-0.02233865297185933
266.509,0.03763480494195859,0.03763480494195859
266.51,0.06665172031796995,0.06665172031796995
266.511,0.06174986185543507,0.06174986185543507
266.512,0.029054579305797246,0.029054579305797246
266.513,0.01827700678718025,-0.01827700678718025
266.514,0.0641710947954729,-0.0641710947954729
266.515,0.09454168831401999,-0.09454168831401999
266.516,0.10145789141072359,-0.10145789141072359
266.517,0.08528209115064966,-0.08528209115064966
266.518,0.0541409775466869,-0.0541409775466869
266.519,0.020951817364313174,-0.020951817364313174
266.52,0.0009894989687107003,0.0009894989687107003
266.521,0.002402950125139025,0.002402950125139025
266.522,0.019021526864534177,-0.019021526864534177
266.523,0.05803304917894603,-0.05803304917894603
266.524,0.10371777619947276,-0.10371777619947276
266.525,0.14318766143006767,-0.14318766143006767
266.52599999999995,0.16578655078946603,-0.16578655078946603
266.527,0.16640314750372687,-0.16640314750372687
266.528,0.1468201620575894,-0.1468201620575894
266.529,0.11472194337973207,-0.11472194337973207
266.53,0.08078684395990132,-0.08078684395990132
266.531,0.054929035027424744,-0.054929035027424744
266.532,0.043012055846656905,-0.043012055846656905
266.533,0.04515213965536491,-0.04515213965536491
266.534,0.0561431137655779,-0.0561431137655779
266.535,0.06777724411846742,-0.06777724411846742
266.536,0.07217473847752276,-0.07217473847752276
266.537,0.06489819270553188,-0.06489819270553188
266.53799999999995,0.0467294446504144,-0.0467294446504144
266.539,0.023482558315305657,-0.023482558315305657
266.54,0.003937319686292184,-0.003937319686292184
266.541,0.0033510998874424214,0.0033510998874424214
266.542,0.006784413824519775,-0.006784413824519775
266.543,0.03411934766613034,-0.03411934766613034
266.544,0.0729070288255278,-0.0729070288255278
266.545,0.11366530738828262,-0.11366530738828262
266.546,0.14624609403764377,-0.14624609403764377
266.547,0.16310607985535752,-0.16310607985535752
266.548,0.16163745897630277,-0.16163745897630277
266.549,0.14476331254551789,-0.14476331254551789
266.54999999999995,0.11962682054006968,-0.11962682054006968
266.551,0.09488181614814872,-0.09488181614814872
266.552,0.07758202762211952,-0.07758202762211952
266.553,0.0707941723571277,-0.0707941723571277
266.554,0.07278269292527162,-0.07278269292527162
266.555,0.07803325527579719,-0.07803325527579719
266.556,0.0797082079026431,-0.0797082079026431
266.557,0.07260288216915223,-0.07260288216915223
266.558,0.05548576140317718,-0.05548576140317718
266.559,0.03192565103780298,-0.03192565103780298
266.56,0.009257108847304352,-0.009257108847304352
266.561,0.003984089519017964,0.003984089519017964
266.56199999999995,0.0012545239135064445,0.0012545239135064445
266.563,0.019327766223368403,-0.019327766223368403
266.564,0.05383454782913666,-0.05383454782913666
266.565,0.09337863488136466,-0.09337863488136466
266.566,0.1267485881063657,-0.1267485881063657
266.567,0.14397791602347443,-0.14397791602347443
266.568,0.13965368341817053,-0.13965368341817053
266.569,0.11483319021782401,-0.11483319021782401
266.57,0.07689219988822116,-0.07689219988822116
266.571,0.037319323177490316,-0.037319323177490316
266.572,0.008161858270097078,-0.008161858270097078
266.573,0.00171781041163932,0.00171781041163932
266.574,0.010646341557428718,-0.010646341557428718
266.575,0.04151791443769903,-0.04151791443769903
266.576,0.08179242844119161,-0.08179242844119161
266.577,0.11999780512082281,-0.11999780512082281
266.578,0.1459466542172123,-0.1459466542172123
266.579,0.15383456422810127,-0.15383456422810127
266.58,0.14379368697887474,-0.14379368697887474
266.581,0.12145143940795022,-0.12145143940795022
266.582,0.0957202869394288,-0.0957202869394288
266.583,0.07562488215642771,-0.07562488215642771
266.584,0.0672642195337505,-0.0672642195337505
266.585,0.07191915967513818,-0.07191915967513818
266.586,0.08589114911867446,-0.08589114911867446
266.587,0.10205109584522565,-0.10205109584522565
266.588,0.11250016754169323,-0.11250016754169323
266.589,0.11139163512954653,-0.11139163512954653
266.59,0.09694640441754454,-0.09694640441754454
266.591,0.07200751270556738,-0.07200751270556738
266.592,0.043001466688373235,-0.043001466688373235
266.593,0.017720530728111195,-0.017720530728111195
266.594,0.002722856920915784,-0.002722856920915784
266.595,0.0012430698103215176,-0.0012430698103215176
266.596,0.012294317399553445,-0.012294317399553445
266.597,0.031209610989364367,-0.031209610989364367
266.598,0.05137319940676999,-0.05137319940676999
266.599,0.06650401084346313,-0.06650401084346313
266.6,0.07269976730861649,-0.07269976730861649
266.601,0.06957236434182135,-0.06957236434182135
266.602,0.06014639951406209,-0.06014639951406209
266.603,0.04962528996422455,-0.04962528996422455
266.604,0.04350124892149876,-0.04350124892149876
266.605,0.045674233036305245,-0.045674233036305245
266.606,0.05719865251160583,-0.05719865251160583
266.607,0.07602670677402146,-0.07602670677402146
266.608,0.09776261752841764,-0.09776261752841764
266.609,0.11711033669399984,-0.11711033669399984
266.61,0.1294984825896176,-0.1294984825896176
266.611,0.13235588131283582,-0.13235588131283582
266.612,0.12567533875867865,-0.12567533875867865
266.613,0.11176955433686653,-0.11176955433686653
266.614,0.09439068659621663,-0.09439068659621663
266.615,0.07756325099607098,-0.07756325099607098
266.616,0.06451923209361976,-0.06451923209361976
266.617,0.057029668433611236,-0.057029668433611236
266.618,0.05525054908376181,-0.05525054908376181
266.619,0.058017165721706676,-0.058017165721706676
266.62,0.06339667814456951,-0.06339667814456951
266.621,0.06927789586361133,-0.06927789586361133
266.622,0.07383289781820246,-0.07383289781820246
266.623,0.07578641281456644,-0.07578641281456644
266.624,0.07452270173291065,-0.07452270173291065
266.625,0.07010467324990177,-0.07010467324990177
266.626,0.06326386219939295,-0.06326386219939295
266.627,0.05536279568723046,-0.05536279568723046
266.628,0.04827407369268322,-0.04827407369268322
266.629,0.044104037305468635,-0.044104037305468635
266.63,0.04473314332160361,-0.04473314332160361
266.631,0.05123778578738014,-0.05123778578738014
266.632,0.0633581022766283,-0.0633581022766283
266.633,0.07923044746746699,-0.07923044746746699
266.634,0.09557137669607352,-0.09557137669607352
266.635,0.10837505682596638,-0.10837505682596638
266.636,0.11400214507300066,-0.11400214507300066
266.637,0.11036149551602159,-0.11036149551602159
266.638,0.09779074102337271,-0.09779074102337271
266.639,0.07928006858240966,-0.07928006858240966
266.64,0.059861476412476744,-0.059861476412476744
266.641,0.04525552810421685,-0.04525552810421685
266.642,0.040139868213791674,-0.040139868213791674
266.643,0.04657818089236887,-0.04657818089236887
266.644,0.06315055540467274,-0.06315055540467274
266.645,0.08513847553927778,-0.08513847553927778
266.646,0.10578984137005032,-0.10578984137005032
266.647,0.11832630839044322,-0.11832630839044322
266.648,0.11808201498087834,-0.11808201498087834
266.649,0.10408111564804912,-0.10408111564804912
266.65,0.07951144433029422,-0.07951144433029422
266.65099999999995,0.05089364508436667,-0.05089364508436667
266.652,0.026170303470501977,-0.026170303470501977
266.653,0.012305030799588557,-0.012305030799588557
266.654,0.013159249733757594,-0.013159249733757594
266.655,0.02833757133613979,-0.02833757133613979
266.656,0.053380619881760794,-0.053380619881760794
266.657,0.08123875830159732,-0.08123875830159732
266.658,0.10453202648078264,-0.10453202648078264
266.659,0.11783849000058022,-0.11783849000058022
266.66,0.11924805223878443,-0.11924805223878443
266.661,0.11067600788088516,-0.11067600788088516
266.662,0.09686295749733609,-0.09686295749733609
266.66299999999995,0.08344548585932365,-0.08344548585932365
266.664,0.07480493305046887,-0.07480493305046887
266.665,0.07247511061036849,-0.07247511061036849
266.666,0.07468616512094384,-0.07468616512094384
266.667,0.07721087277764471,-0.07721087277764471
266.668,0.07520551934103004,-0.07520551934103004
266.669,0.06536833601018244,-0.06536833601018244
266.67,0.04760727423890165,-0.04760727423890165
266.671,0.025566158324360266,-0.025566158324360266
266.672,0.00575293006335531,-0.00575293006335531
266.673,0.004489961033163903,0.004489961033163903
266.674,0.0004913409141111824,-0.0004913409141111824
266.67499999999995,0.022511157082226507,-0.022511157082226507
266.676,0.05853439073275246,-0.05853439073275246
266.677,0.10120986284214373,-0.10120986284214373
266.678,0.14083472611480563,-0.14083472611480563
266.679,0.16815099568001757,-0.16815099568001757
266.68,0.17708325572762584,-0.17708325572762584
266.681,0.166531216560733,-0.166531216560733
266.682,0.14063277336398816,-0.14063277336398816
266.683,0.10741182556377682,-0.10741182556377682
266.684,0.07625262866470128,-0.07625262866470128
266.685,0.05502164701884471,-0.05502164701884471
266.686,0.04776256785823807,-0.04776256785823807
266.68699999999995,0.05368782565593333,-0.05368782565593333
266.688,0.06775207671027628,-0.06775207671027628
266.689,0.0825694209912553,-0.0825694209912553
266.69,0.09100315808342607,-0.09100315808342607
266.691,0.0885570851547558,-0.0885570851547558
266.692,0.07479187181651958,-0.07479187181651958
266.693,0.05333938163638907,-0.05333938163638907
266.694,0.03056756136121397,-0.03056756136121397
266.695,0.013393732934386393,-0.013393732934386393
266.696,0.007006424384139676,-0.007006424384139676
266.697,0.013253480930651707,-0.013253480930651707
266.698,0.030197782213550295,-0.030197782213550295
266.699,0.05292802616097414,-0.05292802616097414
266.7,0.0752873475949245,-0.0752873475949245
266.701,0.09189176722203607,-0.09189176722203607
266.702,0.09974688349813365,-0.09974688349813365
266.703,0.09894642522405572,-0.09894642522405572
266.704,0.09227926819812082,-0.09227926819812082
266.705,0.08395636427217967,-0.08395636427217967
266.706,0.07796066084354669,-0.07796066084354669
266.707,0.07662455762237352,-0.07662455762237352
266.708,0.07992420781482645,-0.07992420781482645
266.709,0.08569837081133702,-0.08569837081133702
266.71,0.09065815436770741,-0.09065815436770741
266.711,0.09177606371242286,-0.09177606371242286
266.712,0.08752413981262774,-0.08752413981262774
266.713,0.078507310344892,-0.078507310344892
266.714,0.0672745706246427,-0.0672745706246427
266.715,0.05739683037259158,-0.05739683037259158
266.716,0.052164235642647494,-0.052164235642647494
266.717,0.05338450436081754,-0.05338450436081754
266.718,0.060715675868017405,-0.060715675868017405
266.719,0.07176450431021164,-0.07176450431021164
266.72,0.08290256492687431,-0.08290256492687431
266.721,0.09049805192297067,-0.09049805192297067
266.722,0.09212214784065709,-0.09212214784065709
266.723,0.0873108461411638,-0.0873108461411638
266.724,0.077633410238785,-0.077633410238785
266.725,0.06607188579257017,-0.06607188579257017
266.726,0.05595920207189908,-0.05595920207189908
266.727,0.049869714302850365,-0.049869714302850365
266.728,0.04885603626546242,-0.04885603626546242
266.729,0.052284064150051934,-0.052284064150051934
266.73,0.058289510301300806,-0.058289510301300806
266.731,0.06464924006511397,-0.06464924006511397
266.732,0.06971307598849352,-0.06971307598849352
266.733,0.07302892052555876,-0.07302892052555876
266.734,0.07541878851802963,-0.07541878851802963
266.735,0.07847845546094312,-0.07847845546094312
266.736,0.08369934349243202,-0.08369934349243202
266.737,0.0915647839441559,-0.0915647839441559
266.738,0.1009967896860181,-0.1009967896860181
266.739,0.10941310740255283,-0.10941310740255283
266.74,0.11343685486935395,-0.11343685486935395
266.741,0.11005812013793148,-0.11005812013793148
266.742,0.09786427219197003,-0.09786427219197003
266.743,0.07789965558090028,-0.07789965558090028
266.744,0.05380968228950345,-0.05380968228950345
266.745,0.03114215259656461,-0.03114215259656461
266.746,0.015950867367306665,-0.015950867367306665
266.747,0.013084736297506283,-0.013084736297506283
266.748,0.02467072327218367,-0.02467072327218367
266.749,0.04926752055677319,-0.04926752055677319
266.75,0.08198473258272154,-0.08198473258272154
266.751,0.11558321826136797,-0.11558321826136797
266.752,0.14228054364054477,-0.14228054364054477
266.753,0.1557701119478403,-0.1557701119478403
266.754,0.15288932695188717,-0.15288932695188717
266.755,0.13446398960461403,-0.13446398960461403
266.756,0.105086387782931,-0.105086387782931
266.757,0.07188558765632913,-0.07188558765632913
266.758,0.042632299088750436,-0.042632299088750436
266.759,0.02370530332589449,-0.02370530332589449
266.76,0.0184795930497208,-0.0184795930497208
266.761,0.02657041050065878,-0.02657041050065878
266.762,0.04412054147900446,-0.04412054147900446
266.763,0.06502282999373099,-0.06502282999373099
266.764,0.08271084353521996,-0.08271084353521996
266.765,0.09200093865778602,-0.09200093865778602
266.766,0.0904690854703224,-0.0904690854703224
266.767,0.07899262091963088,-0.07899262091963088
266.768,0.06133562233852685,-0.06133562233852685
266.769,0.04293344615536432,-0.04293344615536432
266.77,0.02925683338862295,-0.02925683338862295
266.771,0.024244769243323416,-0.024244769243323416
266.772,0.029258547750415587,-0.029258547750415587
266.773,0.04284070661094708,-0.04284070661094708
266.774,0.06131388550868622,-0.06131388550868622
266.775,0.08000168040144029,-0.08000168040144029
266.77599999999995,0.09467245803249069,-0.09467245803249069
266.777,0.10275201253474198,-0.10275201253474198
266.778,0.10393745277410416,-0.10393745277410416
266.779,0.10004473686143034,-0.10004473686143034
266.78,0.09417234912535455,-0.09417234912535455
266.781,0.08948421243233085,-0.08948421243233085
266.782,0.08803523986006045,-0.08803523986006045
266.783,0.09004353246320462,-0.09004353246320462
266.784,0.09385937235306752,-0.09385937235306752
266.785,0.09664209638895327,-0.09664209638895327
266.786,0.09550999052531928,-0.09550999052531928
266.787,0.08875799155809327,-0.08875799155809327
266.78799999999995,0.07670267538711806,-0.07670267538711806
266.789,0.06182962776804757,-0.06182962776804757
266.79,0.04815029914368674,-0.04815029914368674
266.791,0.03994865215981913,-0.03994865215981913
266.792,0.04032031513410994,-0.04032031513410994
266.793,0.05000025205183434,-0.05000025205183434
266.794,0.0669017206951541,-0.0669017206951541
266.795,0.0865674224043459,-0.0865674224043459
266.796,0.10343272712105567,-0.10343272712105567
266.797,0.11252019227144361,-0.11252019227144361
266.798,0.11102106350730312,-0.11102106350730312
266.799,0.09923385481181857,-0.09923385481181857
266.79999999999995,0.08052494110386443,-0.08052494110386443
266.801,0.06029224603913541,-0.06029224603913541
266.802,0.044247603681559444,-0.044247603681559444
266.803,0.03657294029124836,-0.03657294029124836
266.804,0.03856492719654281,-0.03856492719654281
266.805,0.0482354897483569,-0.0482354897483569
266.806,0.06102458960771151,-0.06102458960771151
266.807,0.07140763687289509,-0.07140763687289509
266.808,0.07486839544318302,-0.07486839544318302
266.809,0.06956776839532608,-0.06956776839532608
266.81,0.05712283189274947,-0.05712283189274947
266.811,0.04219723371244499,-0.04219723371244499
266.81199999999995,0.031001829902398192,-0.031001829902398192
266.813,0.02918070410680862,-0.02918070410680862
266.814,0.03978346763866203,-0.03978346763866203
266.815,0.06201869545714134,-0.06201869545714134
266.816,0.09124109985743467,-0.09124109985743467
266.817,0.12022254061595905,-0.12022254061595905
266.818,0.14132660253934914,-0.14132660253934914
266.819,0.14889321409007872,-0.14889321409007872
266.82,0.14105209184686907,-0.14105209184686907
266.821,0.12035597638484574,-0.12035597638484574
266.822,0.09300377664633919,-0.09300377664633919
266.823,0.06688621656933913,-0.06688621656933913
266.824,0.04907878186603698,-0.04907878186603698
266.825,0.04359668287033591,-0.04359668287033591
266.826,0.0501485673590536,-0.0501485673590536
266.827,0.06430335880693305,-0.06430335880693305
266.828,0.07902324767845481,-0.07902324767845481
266.829,0.08706777355471362,-0.08706777355471362
266.83,0.08348726436803844,-0.08348726436803844
266.831,0.0673931023498956,-0.0673931023498956
266.832,0.04242667414201251,-0.04242667414201251
266.833,0.015769944659363877,-0.015769944659363877
266.834,0.003991030321726097,0.003991030321726097
266.835,0.009475887676191341,0.009475887676191341
266.836,0.0032213561041734007,-0.0032213561041734007
266.837,0.03329714700419917,-0.03329714700419917
266.838,0.07539090764420286,-0.07539090764420286
266.839,0.12104045650406359,-0.12104045650406359
266.84,0.16096075823993783,-0.16096075823993783
266.841,0.18744045853519842,-0.18744045853519842
266.842,0.19615758043203757,-0.19615758043203757
266.843,0.18694022488525408,-0.18694022488525408
266.844,0.16335420554887214,-0.16335420554887214
266.845,0.13136316791719949,-0.13136316791719949
266.846,0.09755951666274865,-0.09755951666274865
266.847,0.06753344685709717,-0.06753344685709717
266.848,0.044826960948279426,-0.044826960948279426
266.849,0.030669090365720075,-0.030669090365720075
266.85,0.02440636500378046,-0.02440636500378046
266.851,0.024329657544776673,-0.024329657544776673
266.852,0.02852171813996307,-0.02852171813996307
266.853,0.03542043533840977,-0.03542043533840977
266.854,0.04396716263452172,-0.04396716263452172
266.855,0.053408482912526534,-0.053408482912526534
266.856,0.06296209499084204,-0.06296209499084204
266.857,0.07159054662075204,-0.07159054662075204
266.858,0.07804546439416182,-0.07804546439416182
266.859,0.08119205109548988,-0.08119205109548988
266.86,0.08046935915570297,-0.08046935915570297
266.861,0.0762551756572144,-0.0762551756572144
266.862,0.06992450112005255,-0.06992450112005255
266.863,0.06351116762306386,-0.06351116762306386
266.864,0.059053716270775936,-0.059053716270775936
266.865,0.0578568469077686,-0.0578568469077686
266.866,0.059962639539518525,-0.059962639539518525
266.867,0.06406912232798012,-0.06406912232798012
266.868,0.06797335193644949,-0.06797335193644949
266.869,0.06941098092263853,-0.06941098092263853
266.87,0.06699454831918816,-0.06699454831918816
266.871,0.060888763795375556,-0.060888763795375556
266.872,0.05293499761331888,-0.05293499761331888
266.873,0.04612869390367447,-0.04612869390367447
266.874,0.043595298121841375,-0.043595298121841375
266.875,0.047412440589592264,-0.047412440589592264
266.876,0.05770918584892537,-0.05770918584892537
266.877,0.07239923359541067,-0.07239923359541067
266.878,0.08769362916177426,-0.08769362916177426
266.879,0.09926175377188462,-0.09926175377188462
266.88,0.10366642548412486,-0.10366642548412486
266.881,0.09958051487648956,-0.09958051487648956
266.882,0.08834672672679167,-0.08834672672679167
266.883,0.07365573225680133,-0.07365573225680133
266.884,0.06041889714366244,-0.06041889714366244
266.885,0.05319502789958119,-0.05319502789958119
266.886,0.054694378265186416,-0.054694378265186416
266.887,0.06486695811117493,-0.06486695811117493
266.888,0.08088876466447303,-0.08088876466447303
266.889,0.09805506252564078,-0.09805506252564078
266.89,0.11128069330074253,-0.11128069330074253
266.891,0.11670235881717006,-0.11670235881717006
266.892,0.11284892484569697,-0.11284892484569697
266.893,0.10100233417034554,-0.10100233417034554
266.894,0.08465688040365638,-0.08465688040365638
266.895,0.06829600371097344,-0.06829600371097344
266.896,0.05593258595756789,-0.05593258595756789
266.897,0.04992175071299776,-0.04992175071299776
266.898,0.05043535125374088,-0.05043535125374088
266.899,0.055732169417901045,-0.055732169417901045
266.9,0.06306348423009156,-0.06306348423009156
266.90099999999995,0.06982913343444486,-0.06982913343444486
266.902,0.07452608957717166,-0.07452608957717166
266.903,0.07713405358799408,-0.07713405358799408
266.904,0.07881869547543774,-0.07881869547543774
266.905,0.08111090966090317,-0.08111090966090317
266.906,0.0849323737696498,-0.0849323737696498
266.907,0.08990152435451293,-0.08990152435451293
266.908,0.09424393196250735,-0.09424393196250735
266.909,0.09538779067524339,-0.09538779067524339
266.91,0.09104157027719428,-0.09104157027719428
266.911,0.08033696870254214,-0.08033696870254214
266.912,0.06456217720380864,-0.06456217720380864
266.91299999999995,0.04713688300642083,-0.04713688300642083
266.914,0.032750613997348244,-0.032750613997348244
266.915,0.02590324068686467,-0.02590324068686467
266.916,0.02933273840875028,-0.02933273840875028
266.917,0.0428949271666218,-0.0428949271666218
266.918,0.0633354844907783,-0.0633354844907783
266.919,0.08510256085323598,-0.08510256085323598
266.92,0.10198785782564268,-0.10198785782564268
266.921,0.10908222285205238,-0.10908222285205238
266.922,0.104398592889268,-0.104398592889268
266.923,0.08960315121883444,-0.08960315121883444
266.924,0.06958018567006519,-0.06958018567006519
266.92499999999995,0.05094272054719595,-0.05094272054719595
266.926,0.039957408120554705,-0.039957408120554705
266.927,0.04055496620094301,-0.04055496620094301
266.928,0.053075384358786004,-0.053075384358786004
266.929,0.07415643010885653,-0.07415643010885653
266.93,0.09779643398793514,-0.09779643398793514
266.931,0.11723666666795363,-0.11723666666795363
266.932,0.12704559197867504,-0.12704559197867504
266.933,0.12473420837018923,-0.12473420837018923
266.934,0.11140265403501826,-0.11140265403501826
266.935,0.09125027451867151,-0.09125027451867151
266.936,0.07015767383693572,-0.07015767383693572
266.93699999999995,0.053841069573659306,-0.053841069573659306
266.938,0.04619080487533933,-0.04619080487533933
266.939,0.04830694753635001,-0.04830694753635001
266.94,0.0584794328964654,-0.0584794328964654
266.941,0.07302825212451114,-0.07302825212451114
266.942,0.08763960899847445,-0.08763960899847445
266.943,0.09870146313962391,-0.09870146313962391
266.944,0.10419405203148902,-0.10419405203148902
266.945,0.1038970900046925,-0.1038970900046925
266.946,0.09895020468259597,-0.09895020468259597
266.947,0.09104057458969383,-0.09104057458969383
266.948,0.08160453024503711,-0.08160453024503711
266.949,0.07138188330805051,-0.07138188330805051
266.95,0.060479737830668734,-0.060479737830668734
266.951,0.04886435470340711,-0.04886435470340711
266.952,0.03700320300998694,-0.03700320300998694
266.953,0.026304514256855982,-0.026304514256855982
266.954,0.019079473055436225,-0.019079473055436225
266.955,0.01795286354265946,-0.01795286354265946
266.956,0.024892378970338025,-0.024892378970338025
266.957,0.04021667283809982,-0.04021667283809982
266.958,0.06199815422471633,-0.06199815422471633
266.959,0.08616893447469165,-0.08616893447469165
266.96,0.10740001971222468,-0.10740001971222468
266.961,0.12053908975240812,-0.12053908975240812
266.962,0.12216627762196886,-0.12216627762196886
266.963,0.11174762444177355,-0.11174762444177355
266.964,0.0919688177990825,-0.0919688177990825
266.965,0.06808828214483631,-0.06808828214483631
266.966,0.04647299291382978,-0.04647299291382978
266.967,0.032760180229562286,-0.032760180229562286
266.968,0.030224309169585406,-0.030224309169585406
266.969,0.03887121182871256,-0.03887121182871256
266.97,0.05554712365978565,-0.05554712365978565
266.971,0.07501849697944396,-0.07501849697944396
266.972,0.09166188467758096,-0.09166188467758096
266.973,0.10120951237539921,-0.10120951237539921
266.974,0.10198994425873043,-0.10198994425873043
266.975,0.09528383312782296,-0.09528383312782296
266.976,0.08471725181342282,-0.08471725181342282
266.977,0.07493402106731262,-0.07493402106731262
266.978,0.0700151315421057,-0.0700151315421057
266.979,0.07217392206283901,-0.07217392206283901
266.98,0.08113586341801238,-0.08113586341801238
266.981,0.09436022575473568,-0.09436022575473568
266.982,0.10797005260067416,-0.10797005260067416
266.983,0.11802905671608621,-0.11802905671608621
266.984,0.12171501986262823,-0.12171501986262823
266.985,0.11801232537229489,-0.11801232537229489
266.986,0.10774604469015325,-0.10774604469015325
266.987,0.09302761392614634,-0.09302761392614634
266.988,0.0763853184785156,-0.0763853184785156
266.989,0.05994000856111781,-0.05994000856111781
266.99,0.04493219689507233,-0.04493219689507233
266.991,0.03173911550450892,-0.03173911550450892
266.992,0.020308903071842743,-0.020308903071842743
266.993,0.010767345169595655,-0.010767345169595655
266.994,0.0038862622092342702,-0.0038862622092342702
266.995,0.0011654360539649078,-0.0011654360539649078
266.996,0.0044454450215623,-0.0044454450215623
266.997,0.015171209060156898,-0.015171209060156898
266.998,0.03358581713322317,-0.03358581713322317
266.999,0.058188075213564616,-0.058188075213564616
267.0,0.08571209451253703,-0.08571209451253703
267.001,0.11170878086818525,-0.11170878086818525
267.002,0.13159201325470604,-0.13159201325470604
267.003,0.14183634205294715,-0.14183634205294715
267.004,0.14094347368934623,-0.14094347368934623
267.005,0.1298585290958496,-0.1298585290958496
267.006,0.11169288082039752,-0.11169288082039752
267.007,0.09083693248728408,-0.09083693248728408
267.008,0.07174437713110393,-0.07174437713110393
267.009,0.05777087369739453,-0.05777087369739453
267.01,0.05042127335871871,-0.05042127335871871
267.011,0.049213232672099316,-0.049213232672099316
267.012,0.05215462775273194,-0.05215462775273194
267.013,0.05663173794575638,-0.05663173794575638
267.014,0.060382828331775995,-0.060382828331775995
267.015,0.06222591659235677,-0.06222591659235677
267.016,0.06231643557594846,-0.06231643557594846
267.017,0.06188742070071207,-0.06188742070071207
267.018,0.06260675532408722,-0.06260675532408722
267.019,0.0658096540312455,-0.0658096540312455
267.02,0.07189069567080641,-0.07189069567080641
267.021,0.08006559591605766,-0.08006559591605766
267.022,0.08857110563604897,-0.08857110563604897
267.023,0.09521602088577175,-0.09521602088577175
267.024,0.09808219813469243,-0.09808219813469243
267.025,0.09613776951253661,-0.09613776951253661
267.02599999999995,0.08957125301801838,-0.08957125301801838
267.027,0.07976090091076937,-0.07976090091076937
267.028,0.06891587294618451,-0.06891587294618451
267.029,0.059520882063857306,-0.059520882063857306
267.03,0.05375508060002965,-0.05375508060002965
267.031,0.053034472927469434,-0.053034472927469434
267.032,0.057763417572758935,-0.057763417572758935
267.033,0.06730617162215224,-0.06730617162215224
267.034,0.08013397383963694,-0.08013397383963694
267.035,0.09408317990783033,-0.09408317990783033
267.036,0.10667261959797403,-0.10667261959797403
267.037,0.11545515384133764,-0.11545515384133764
267.03799999999995,0.11839575163867344,-0.11839575163867344
267.039,0.11426017669551458,-0.11426017669551458
267.04,0.1029649378863241,-0.1029649378863241
267.041,0.08579840656528892,-0.08579840656528892
267.042,0.06540268421460904,-0.06540268421460904
267.043,0.04543017140600092,-0.04543017140600092
267.044,0.029865305534760855,-0.029865305534760855
267.045,0.022114095503439013,-0.022114095503439013
267.046,0.024074238601638043,-0.024074238601638043
267.047,0.03546066902962064,-0.03546066902962064
267.048,0.05363908338923573,-0.05363908338923573
267.049,0.07410362179360475,-0.07410362179360475
267.04999999999995,0.09154954291742645,-0.09154954291742645
267.051,0.10129266673361292,-0.10129266673361292
267.052,0.10064300249148783,-0.10064300249148783
267.053,0.08980797724968015,-0.08980797724968015
267.054,0.07200544442471168,-0.07200544442471168
267.055,0.05268705197177681,-0.05268705197177681
267.056,0.03804517124163098,-0.03804517124163098
267.057,0.03321455831853437,-0.03321455831853437
267.058,0.040701549568483264,-0.040701549568483264
267.059,0.0595311194954512,-0.0595311194954512
267.06,0.08540027673030604,-0.08540027673030604
267.061,0.11182348009543619,-0.11182348009543619
267.06199999999995,0.13194678585749808,-0.13194678585749808
267.063,0.14049269265634,-0.14049269265634
267.064,0.13524940439248923,-0.13524940439248923
267.065,0.11765543350703,-0.11765543350703
267.066,0.09231112127656416,-0.09231112127656416
267.067,0.06558282295037199,-0.06558282295037199
267.068,0.04374488002571353,-0.04374488002571353
267.069,0.031238574596303414,-0.031238574596303414
267.07,0.029573772782873098,-0.029573772782873098
267.071,0.03717807351343194,-0.03717807351343194
267.072,0.05018550896392382,-0.05018550896392382
267.073,0.06385719958429015,-0.06385719958429015
267.074,0.07413855035974048,-0.07413855035974048
267.075,0.07884065349379066,-0.07884065349379066
267.076,0.07808757772022179,-0.07808757772022179
267.077,0.07393830667190715,-0.07393830667190715
267.078,0.06937747416990303,-0.06937747416990303
267.079,0.0670744586015497,-0.0670744586015497
267.08,0.0683680421698748,-0.0683680421698748
267.081,0.07282913826663573,-0.07282913826663573
267.082,0.07852945319912552,-0.07852945319912552
267.083,0.08288256364981395,-0.08288256364981395
267.084,0.08371956797543822,-0.08371956797543822
267.085,0.08018538540415232,-0.08018538540415232
267.086,0.0731178732921759,-0.0731178732921759
267.087,0.06476946370118897,-0.06476946370118897
267.088,0.0579765700450845,-0.0579765700450845
267.089,0.055086369553608794,-0.055086369553608794
