Czas,AbsSum,Sum
222.044,0.013472931016690249,-0.013472931016690249
222.04500000000002,0.0107436404632398,-0.0107436404632398
222.04600000000002,0.0065600758250860735,-0.0065600758250860735
222.047,0.002138026956024746,-0.002138026956024746
222.048,0.0013974572217652392,0.0013974572217652392
222.049,0.0033599558098441743,0.0033599558098441743
222.05,0.0036905458973685956,0.0036905458973685956
222.05100000000002,0.002930523272691449,0.002930523272691449
222.05200000000002,0.0019936308461517894,0.0019936308461517894
222.053,0.00181950864473986,0.00181950864473986
222.054,0.0030273614080940092,0.0030273614080940092
222.055,0.005685447026938734,0.005685447026938734
222.056,0.009270069142786035,0.009270069142786035
222.05700000000002,0.012822506193284467,0.012822506193284467
222.05800000000002,0.01524647548621729,0.01524647548621729
222.059,0.015644606039598028,0.015644606039598028
222.06,0.0135841307858971,0.0135841307858971
222.061,0.00921095319856777,0.00921095319856777
222.062,0.0031858597421909,0.0031858597421909
222.06300000000002,0.0035230330935523287,-0.0035230330935523287
222.06400000000002,0.009912604248838663,-0.009912604248838663
222.065,0.0151881186008593,-0.0151881186008593
222.066,0.01890288825291108,-0.01890288825291108
222.067,0.020963255177416894,-0.020963255177416894
222.068,0.021519477656572035,-0.021519477656572035
222.06900000000002,0.020803086524636357,-0.020803086524636357
222.07000000000002,0.018985563710852728,-0.018985563710852728
222.071,0.016117731670921516,-0.016117731670921516
222.072,0.012171232965609251,-0.012171232965609251
222.073,0.007158371663820249,-0.007158371663820249
222.074,0.0012720831168760998,-0.0012720831168760998
222.07500000000002,0.005022835317391287,0.005022835317391287
222.07600000000002,0.010998919973489797,0.010998919973489797
222.077,0.01578906120815761,0.01578906120815761
222.078,0.018592024574939775,0.018592024574939775
222.079,0.01889503065819216,0.01889503065819216
222.08,0.016637422408784824,0.016637422408784824
222.08100000000002,0.012256632773979054,0.012256632773979054
222.08200000000002,0.006596377407664709,0.006596377407664709
222.083,0.0007031513054681821,0.0007031513054681821
222.084,0.004425975928327765,-0.004425975928327765
222.085,0.008066680392095071,-0.008066680392095071
222.086,0.009896706228360246,-0.009896706228360246
222.08700000000002,0.01000042490368637,-0.01000042490368637
222.08800000000002,0.00876110697567637,-0.00876110697567637
222.089,0.0066897061544707,-0.0066897061544707
222.09,0.004255636421769744,-0.004255636421769744
222.091,0.0017770310336299962,-0.0017770310336299962
222.092,0.0006003985503487469,0.0006003985503487469
222.09300000000002,0.002843824576629425,0.002843824576629425
222.09400000000002,0.004932229239447242,0.004932229239447242
222.095,0.006766654575753208,0.006766654575753208
222.096,0.008136308579002082,0.008136308579002082
222.097,0.008758836825953673,0.008758836825953673
222.098,0.008379946076202446,0.008379946076202446
222.09900000000002,0.006890970575108934,0.006890970575108934
222.10000000000002,0.004413492211950075,0.004413492211950075
222.101,0.001311440191367928,0.001311440191367928
222.102,0.0018813579335910182,-0.0018813579335910182
222.103,0.004597339484187649,-0.004597339484187649
222.104,0.0063890088551260245,-0.0063890088551260245
222.10500000000002,0.007046578757778709,-0.007046578757778709
222.10600000000002,0.006638463587755095,-0.006638463587755095
222.107,0.005462015682278268,-0.005462015682278268
222.108,0.00392486574017998,-0.00392486574017998
222.109,0.002402129222536478,-0.002402129222536478
222.11,0.0011221427708177063,-0.0011221427708177063
222.11100000000002,0.00012072698042114069,-0.00012072698042114069
222.11200000000002,0.0007235589963311825,0.0007235589963311825
222.113,0.0015922284091905074,0.0015922284091905074
222.114,0.002610077726791076,0.002610077726791076
222.115,0.003757340535931012,0.003757340535931012
222.116,0.004846454406166437,0.004846454406166437
222.11700000000002,0.005572631630075183,0.005572631630075183
222.11800000000002,0.0056180381957645995,0.0056180381957645995
222.119,0.004768709488130177,0.004768709488130177
222.12,0.002999290880814476,0.002999290880814476
222.121,0.0004944269572934119,0.0004944269572934119
222.122,0.0023988552039697787,-0.0023988552039697787
222.12300000000002,0.005266712723789657,-0.005266712723789657
222.124,0.00773388949251053,-0.00773388949251053
222.125,0.009540085615865081,-0.009540085615865081
222.126,0.010563733893417374,-0.010563733893417374
222.127,0.0107940135351118,-0.0107940135351118
222.12800000000001,0.010274626900789676,-0.010274626900789676
222.12900000000002,0.009053864765923486,-0.009053864765923486
222.13,0.007169866530681359,-0.007169866530681359
222.131,0.004680134726789086,-0.004680134726789086
222.132,0.0017191631693738271,-0.0017191631693738271
222.133,0.0014508015592984264,0.0014508015592984264
222.13400000000001,0.004433804494614898,0.004433804494614898
222.13500000000002,0.00676107075979905,0.00676107075979905
222.136,0.008011365104105545,0.008011365104105545
222.137,0.007952526177187495,0.007952526177187495
222.138,0.00664742930853221,0.00664742930853221
222.139,0.004471739515467065,0.004471739515467065
222.14000000000001,0.002018925101203451,0.002018925101203451
222.14100000000002,8.861599243365479e-05,-8.861599243365479e-05
222.142,0.0014211302844829596,-0.0014211302844829596
222.143,0.0019112516915963881,-0.0019112516915963881
222.144,0.0018953699303812608,-0.0018953699303812608
222.145,0.001990484635979271,-0.001990484635979271
222.14600000000002,0.002831352874228061,-0.002831352874228061
222.14700000000002,0.00475270385732998,-0.00475270385732998
222.148,0.007536534384140589,-0.007536534384140589
222.149,0.010338070299405554,-0.010338070299405554
222.15,0.011853000714216579,-0.011853000714216579
222.151,0.010706790326166685,-0.010706790326166685
222.15200000000002,0.005961072012878709,-0.005961072012878709
222.15300000000002,0.002426515115679608,0.002426515115679608
222.154,0.013359746158189753,0.013359746158189753
222.155,0.024696591349838554,0.024696591349838554
222.156,0.03369570683663713,0.03369570683663713
222.157,0.03771840170186036,0.03771840170186036
222.15800000000002,0.03499313557196593,0.03499313557196593
222.15900000000002,0.025210810443234886,0.025210810443234886
222.16,0.009753459030046705,0.009753459030046705
222.161,0.008540206514459258,-0.008540206514459258
222.162,0.0260309833407693,-0.0260309833407693
222.163,0.03918402770666444,-0.03918402770666444
222.16400000000002,0.045466994564976236,-0.045466994564976236
222.16500000000002,0.04398149592732662,-0.04398149592732662
222.166,0.03564452939473309,-0.03564452939473309
222.167,0.02287129045883822,-0.02287129045883822
222.168,0.008861169404871671,-0.008861169404871671
222.169,0.003293309607200195,0.003293309607200195
222.17000000000002,0.011406967935962988,0.011406967935962988
222.17100000000002,0.014681084031188991,0.014681084031188991
222.172,0.013738748925603745,0.013738748925603745
222.173,0.010237523478256327,0.010237523478256327
222.174,0.006211550327938251,0.006211550327938251
222.175,0.003371718319492635,0.003371718319492635
222.17600000000002,0.002591167750782276,0.002591167750782276
222.17700000000002,0.0037278240915781624,0.0037278240915781624
222.178,0.005813978940274745,0.005813978940274745
222.179,0.007517953501578162,0.007517953501578162
222.18,0.007696886834850765,0.007696886834850765
222.181,0.005840091280838006,0.005840091280838006
222.18200000000002,0.002252787217329282,0.002252787217329282
222.18300000000002,0.002070297689164357,-0.002070297689164357
222.184,0.005819886652671349,-0.005819886652671349
222.185,0.007849244029116558,-0.007849244029116558
222.186,0.007577844210074417,-0.007577844210074417
222.187,0.005180365422976135,-0.005180365422976135
222.18800000000002,0.0015025087577418919,-0.0015025087577418919
222.18900000000002,0.0022551240059652707,0.0022551240059652707
222.19,0.004963303089163235,0.004963303089163235
222.191,0.005945201293814982,0.005945201293814982
222.192,0.005179971776545455,0.005179971776545455
222.193,0.0032657354510333037,0.0032657354510333037
222.19400000000002,0.0011669818135007736,0.0011669818135007736
222.19500000000002,0.00015380873342797332,-0.00015380873342797332
222.196,8.508890343734949e-05,-8.508890343734949e-05
222.197,0.0014250105232283335,0.0014250105232283335
222.198,0.0038644307866448403,0.0038644307866448403
222.199,0.0063461876695983955,0.0063461876695983955
222.20000000000002,0.007913062302891554,0.007913062302891554
222.20100000000002,0.007846601978466185,0.007846601978466185
222.202,0.005877572322396317,0.005877572322396317
222.203,0.0022393525355238774,0.0022393525355238774
222.204,0.0024334647534941765,-0.0024334647534941765
222.205,0.0073059719620523714,-0.0073059719620523714
222.20600000000002,0.0115620558977457,-0.0115620558977457
222.20700000000002,0.014568714276954215,-0.014568714276954215
222.208,0.015948133533896285,-0.015948133533896285
222.209,0.015565307406622701,-0.015565307406622701
222.21,0.013473435073139332,-0.013473435073139332
222.211,0.009868469368575687,-0.009868469368575687
222.21200000000002,0.005085359895887614,-0.005085359895887614
222.21300000000002,0.0003679917187247896,0.0003679917187247896
222.214,0.005778673204044955,0.005778673204044955
222.215,0.010254158021286982,0.010254158021286982
222.216,0.012846490125320216,0.012846490125320216
222.217,0.012775148883122159,0.012775148883122159
222.21800000000002,0.009695863533397873,0.009695863533397873
222.21900000000002,0.00392194151060481,0.00392194151060481
222.22,0.0035033798262063477,-0.0035033798262063477
222.221,0.01095121057771242,-0.01095121057771242
222.222,0.016567139863555923,-0.016567139863555923
222.223,0.01876594434364759,-0.01876594434364759
222.22400000000002,0.01671713748444609,-0.01671713748444609
222.22500000000002,0.010659663086859858,-0.010659663086859858
222.226,0.0019226505681093472,-0.0019226505681093472
222.227,0.007383905183199178,0.007383905183199178
222.228,0.014936508346673741,0.014936508346673741
222.229,0.01885937117464461,0.01885937117464461
222.23000000000002,0.018273274302487316,0.018273274302487316
222.23100000000002,0.013552350487879962,0.013552350487879962
222.232,0.006198683446430691,0.006198683446430691
222.233,0.0016309007039740921,-0.0016309007039740921
222.234,0.007794301695595683,-0.007794301695595683
222.235,0.010809929905081577,-0.010809929905081577
222.23600000000002,0.010264969339601136,-0.010264969339601136
222.23700000000002,0.006852961885482717,-0.006852961885482717
222.238,0.0020362489051616297,-0.0020362489051616297
222.239,0.0025390656597873394,0.0025390656597873394
222.24,0.0056595353112932015,0.0056595353112932015
222.241,0.006964130450976049,0.006964130450976049
222.24200000000002,0.0070100039882679864,0.0070100039882679864
222.24300000000002,0.006956824681162224,0.006956824681162224
222.244,0.007985759707850024,0.007985759707850024
222.245,0.010674441627650837,0.010674441627650837
222.246,0.01457651935399638,0.01457651935399638
222.247,0.01819078347731834,0.01819078347731834
222.24800000000002,0.019369796397664212,0.019369796397664212
222.249,0.016057243679742636,0.016057243679742636
222.25,0.007113512560521032,0.007113512560521032
222.251,0.007061985988438207,-0.007061985988438207
222.252,0.024353887619141774,-0.024353887619141774
222.25300000000001,0.04130465876702813,-0.04130465876702813
222.25400000000002,0.0539639556145969,-0.0539639556145969
222.255,0.05897463719048793,-0.05897463719048793
222.256,0.054565742222891525,-0.054565742222891525
222.257,0.04113783906285281,-0.04113783906285281
222.258,0.021244824632072383,-0.021244824632072383
222.25900000000001,0.0010387253517285977,0.0010387253517285977
222.26000000000002,0.021184065735232536,0.021184065735232536
222.261,0.035392664311645436,0.035392664311645436
222.262,0.04154734823840139,0.04154734823840139
222.263,0.03965528467284273,0.03965528467284273
222.264,0.03166968031433873,0.03166968031433873
222.26500000000001,0.020771046412350926,0.020771046412350926
222.26600000000002,0.01035182728029518,0.01035182728029518
222.267,0.003028459035792681,0.003028459035792681
222.268,2.0746964930798795e-05,-2.0746964930798795e-05
222.269,0.0007870707127497884,0.0007870707127497884
222.27,0.0037951481462116738,0.0037951481462116738
222.27100000000002,0.0068204641045215685,0.0068204641045215685
222.27200000000002,0.007964979753804776,0.007964979753804776
222.273,0.006251973282271041,0.006251973282271041
222.274,0.0018919190840238332,0.0018919190840238332
222.275,0.003880808945267436,-0.003880808945267436
222.276,0.009311784443936572,-0.009311784443936572
222.27700000000002,0.012774407508519828,-0.012774407508519828
222.27800000000002,0.013330718505312715,-0.013330718505312715
222.279,0.011019858628341721,-0.011019858628341721
222.28,0.006794402520250342,-0.006794402520250342
222.281,0.002150199430892179,-0.002150199430892179
222.282,0.0014034822729235292,0.0014034822729235292
222.28300000000002,0.00284281565007029,0.00284281565007029
222.28400000000002,0.0019310692168864746,0.0019310692168864746
222.285,0.0007635800954686625,-0.0007635800954686625
222.286,0.004117526195018249,-0.004117526195018249
222.287,0.006862655889566454,-0.006862655889566454
222.288,0.008007357869478884,-0.008007357869478884
222.28900000000002,0.007126846988449065,-0.007126846988449065
222.29000000000002,0.004440271144818901,-0.004440271144818901
222.291,0.0006733008317684172,-0.0006733008317684172
222.292,0.003221708865564012,0.003221708865564012
222.293,0.006375753856108379,0.006375753856108379
222.294,0.00823543736627463,0.00823543736627463
222.29500000000002,0.008652014771561257,0.008652014771561257
222.29600000000002,0.007822895939989334,0.007822895939989334
222.297,0.006136026519715882,0.006136026519715882
222.298,0.003995742167383212,0.003995742167383212
222.299,0.001702143708604493,0.001702143708604493
222.3,0.0005789779219714646,-0.0005789779219714646
222.30100000000002,0.0027649486030205477,-0.0027649486030205477
222.30200000000002,0.004770080778854629,-0.004770080778854629
222.303,0.006443335713528292,-0.006443335713528292
222.304,0.007572121581874636,-0.007572121581874636
222.305,0.007957829680363645,-0.007957829680363645
222.306,0.0075287479506029025,-0.0075287479506029025
222.30700000000002,0.006431273045999342,-0.006431273045999342
222.30800000000002,0.005042826890764876,-0.005042826890764876
222.309,0.0038798791797364715,-0.0038798791797364715
222.31,0.0034202851073921953,-0.0034202851073921953
222.311,0.003901654481980428,-0.003901654481980428
222.312,0.005177880984768215,-0.005177880984768215
222.31300000000002,0.006703615952036189,-0.006703615952036189
222.31400000000002,0.007673593894216541,-0.007673593894216541
222.315,0.0072851537258998,-0.0072851537258998
222.316,0.0050402096863212216,-0.0050402096863212216
222.317,0.0009783749424766425,-0.0009783749424766425
222.318,0.00425240766447102,0.00425240766447102
222.31900000000002,0.009530245072776432,0.009530245072776432
222.32000000000002,0.013570358221945323,0.013570358221945323
222.321,0.015319033226731133,0.015319033226731133
222.322,0.014300908009477066,0.014300908009477066
222.323,0.010798534953133734,0.010798534953133734
222.324,0.005794890157179182,0.005794890157179182
222.32500000000002,0.0006877838992624059,0.0006877838992624059
222.32600000000002,0.0031367947388904836,-0.0031367947388904836
222.327,0.00473493456077958,-0.00473493456077958
222.328,0.0038967134811314,-0.0038967134811314
222.329,0.0012017633030341672,-0.0012017633030341672
222.33,0.0021815840966423737,0.0021815840966423737
222.33100000000002,0.0048881730106249,0.0048881730106249
222.33200000000002,0.005809746097012742,0.005809746097012742
222.333,0.00446103355536935,0.00446103355536935
222.334,0.0011386696750102549,0.0011386696750102549
222.335,0.0031769551132290615,-0.0031769551132290615
222.336,0.0071414623011867,-0.0071414623011867
222.33700000000002,0.009480425402635585,-0.009480425402635585
222.33800000000002,0.009395280980414738,-0.009395280980414738
222.339,0.006812184736506724,-0.006812184736506724
222.34,0.002399981346561263,-0.002399981346561263
222.341,0.002639310827612447,0.002639310827612447
222.342,0.006931542154169985,0.006931542154169985
222.34300000000002,0.009323160676236958,0.009323160676236958
222.34400000000002,0.009183700573251274,0.009183700573251274
222.345,0.006534014125980219,0.006534014125980219
222.346,0.001978770162520699,0.001978770162520699
222.347,0.003513976933538917,-0.003513976933538917
222.348,0.008899308931975177,-0.008899308931975177
222.34900000000002,0.013310846665345736,-0.013310846665345736
222.35000000000002,0.016211739947237982,-0.016211739947237982
222.351,0.017414560700941346,-0.017414560700941346
222.352,0.016993865038864676,-0.016993865038864676
222.353,0.015150668040138933,-0.015150668040138933
222.354,0.012096708936894171,-0.012096708936894171
222.35500000000002,0.008007209844905645,-0.008007209844905645
222.35600000000002,0.0030535141559533832,-0.0030535141559533832
222.357,0.002512398473867375,0.002512398473867375
222.358,0.008274938474587075,0.008274938474587075
222.359,0.013628445667541822,0.013628445667541822
222.36,0.01783973564837061,0.01783973564837061
222.36100000000002,0.02019492803805909,0.02019492803805909
222.36200000000002,0.020188782391315403,0.020188782391315403
222.363,0.017692575718604,0.017692575718604
222.364,0.013038088511841949,0.013038088511841949
222.365,0.006980325739596748,0.006980325739596748
222.366,0.0005411660018474776,0.0005411660018474776
222.36700000000002,0.005224100957457511,-0.005224100957457511
222.36800000000002,0.009469615275213334,-0.009469615275213334
222.369,0.011740541601847568,-0.011740541601847568
222.37,0.01204329127798316,-0.01204329127798316
222.371,0.010790379528606231,-0.010790379528606231
222.372,0.008644796175278004,-0.008644796175278004
222.37300000000002,0.006317192560298993,-0.006317192560298993
222.374,0.004378405906061974,-0.004378405906061974
222.375,0.0031383613946793995,-0.0031383613946793995
222.376,0.002616001985606997,-0.002616001985606997
222.377,0.002594026672227303,-0.002594026672227303
222.37800000000001,0.002727784456790016,-0.002727784456790016
222.37900000000002,0.002667064309460805,-0.002667064309460805
222.38,0.0021542501534007738,-0.0021542501534007738
222.381,0.00107808080259164,-0.00107808080259164
222.382,0.0005187239011054917,0.0005187239011054917
222.383,0.002465262522261434,0.002465262522261434
222.38400000000001,0.00450379354247518,0.00450379354247518
222.38500000000002,0.006332806264770222,0.006332806264770222
222.386,0.007647105210714395,0.007647105210714395
222.387,0.008178211738055859,0.008178211738055859
222.388,0.0077403655636461765,0.0077403655636461765
222.389,0.0062819173853622505,0.0062819173853622505
222.39000000000001,0.003931766759969306,0.003931766759969306
222.39100000000002,0.0010215277252647573,0.0010215277252647573
222.392,0.0019376216401449423,-0.0019376216401449423
222.393,0.004335572835194343,-0.004335572835194343
222.394,0.005595403651377568,-0.005595403651377568
222.395,0.005329495385532437,-0.005329495385532437
222.39600000000002,0.0034759326034481093,-0.0034759326034481093
222.39700000000002,0.0003682411275948935,-0.0003682411275948935
222.398,0.0032950973301500287,0.0032950973301500287
222.399,0.006587424338354446,0.006587424338354446
222.4,0.008569683844164455,0.008569683844164455
222.401,0.008529969753048176,0.008529969753048176
222.40200000000002,0.006179412420068689,0.006179412420068689
222.40300000000002,0.0017459143851034284,0.0017459143851034284
222.404,0.004064472789737416,-0.004064472789737416
222.405,0.010229800779543339,-0.010229800779543339
222.406,0.015652483399283074,-0.015652483399283074
222.407,0.01940937230958328,-0.01940937230958328
222.40800000000002,0.02094269040636092,-0.02094269040636092
222.40900000000002,0.020143857369195217,-0.020143857369195217
222.41,0.017317462379403233,-0.017317462379403233
222.411,0.013049784710364786,-0.013049784710364786
222.412,0.008032724852501517,-0.008032724852501517
222.413,0.0029013993950903496,-0.0029013993950903496
222.41400000000002,0.0018692788189815927,0.0018692788189815927
222.41500000000002,0.005990851975477118,0.005990851975477118
222.416,0.009322591147738417,0.009322591147738417
222.417,0.011802041824225016,0.011802041824225016
222.418,0.013385085383153418,0.013385085383153418
222.419,0.014024582910404846,0.014024582910404846
222.42000000000002,0.013694047862941598,0.013694047862941598
222.42100000000002,0.012438839834493922,0.012438839834493922
222.422,0.010422421631982573,0.010422421631982573
222.423,0.007935658826950414,0.007935658826950414
222.424,0.005352817717052645,0.005352817717052645
222.425,0.003042216358170406,0.003042216358170406
222.42600000000002,0.0012619947495532441,0.0012619947495532441
222.42700000000002,8.224261290467026e-05,8.224261290467026e-05
222.428,0.0006316029869097804,-0.0006316029869097804
222.429,0.0011610109228049554,-0.0011610109228049554
222.43,0.0018183789084952903,-0.0018183789084952903
222.431,0.0028138846400801196,-0.0028138846400801196
222.43200000000002,0.0041563839230347325,-0.0041563839230347325
222.43300000000002,0.005629847583976338,-0.005629847583976338
222.434,0.006859838843667969,-0.006859838843667969
222.435,0.0074499652905066025,-0.0074499652905066025
222.436,0.0071393410591536555,-0.0071393410591536555
222.437,0.0059206102922412475,-0.0059206102922412475
222.43800000000002,0.004069558164393896,-0.004069558164393896
222.43900000000002,0.002068633945820972,-0.002068633945820972
222.44,0.00044680021908328143,-0.00044680021908328143
222.441,0.00040803655277570257,0.00040803655277570257
222.442,0.00039360334551207264,0.00039360334551207264
222.443,0.00026345037542848987,-0.00026345037542848987
222.44400000000002,0.001088592762439794,-0.001088592762439794
222.44500000000002,0.001541552890694692,-0.001541552890694692
222.446,0.0012360271308283276,-0.0012360271308283276
222.447,0.00011466918696141791,-0.00011466918696141791
222.448,0.0014917429484757672,0.0014917429484757672
222.449,0.002953404541742934,0.002953404541742934
222.45000000000002,0.003557913702861226,0.003557913702861226
222.45100000000002,0.002783914340425677,0.002783914340425677
222.452,0.0005351623650729999,0.0005351623650729999
222.453,0.0027549091813252055,-0.0027549091813252055
222.454,0.00619825333973116,-0.00619825333973116
222.455,0.008696792888207858,-0.008696792888207858
222.45600000000002,0.009286099496774213,-0.009286099496774213
222.45700000000002,0.007468587620106651,-0.007468587620106651
222.458,0.0034232765133777204,-0.0034232765133777204
222.459,0.0019857461656592234,0.0019857461656592234
222.46,0.007417081286026978,0.007417081286026978
222.461,0.011420574952790698,0.011420574952790698
222.46200000000002,0.012856999270384157,0.012856999270384157
222.46300000000002,0.011239507337707302,0.011239507337707302
222.464,0.006889540427380124,0.006889540427380124
222.465,0.0008568269331689302,0.0008568269331689302
222.466,0.005373422582217747,-0.005373422582217747
222.467,0.010296947305452114,-0.010296947305452114
222.46800000000002,0.012803974335279928,-0.012803974335279928
222.46900000000002,0.01246641917101963,-0.01246641917101963
222.47,0.009617105981039362,-0.009617105981039362
222.471,0.005205626269492579,-0.005205626269492579
222.472,0.00048435082536056276,-0.00048435082536056276
222.473,0.003372345315024323,0.003372345315024323
222.47400000000002,0.005597322971254153,0.005597322971254153
222.47500000000002,0.006012351006764573,0.006012351006764573
222.476,0.005017077293278452,0.005017077293278452
222.477,0.003402049702507696,0.003402049702507696
222.478,0.002055308875462584,0.002055308875462584
222.479,0.0016598296948115113,0.0016598296948115113
222.48000000000002,0.00247498661512754,0.00247498661512754
222.48100000000002,0.004263014294228235,0.004263014294228235
222.482,0.006373411251179833,0.006373411251179833
222.483,0.00795049716918394,0.00795049716918394
222.484,0.008196285823151149,0.008196285823151149
222.485,0.00661075900068516,0.00661075900068516
222.48600000000002,0.0031447742796809766,0.0031447742796809766
222.48700000000002,0.0017696010779752877,-0.0017696010779752877
222.488,0.007311267846904962,-0.007311267846904962
222.489,0.012454331770779878,-0.012454331770779878
222.49,0.016195609326188073,-0.016195609326188073
222.491,0.017772537341056823,-0.017772537341056823
222.49200000000002,0.01682654990540925,-0.01682654990540925
222.49300000000002,0.013482154410100495,-0.013482154410100495
222.494,0.008329466819591635,-0.008329466819591635
222.495,0.002314578049400267,-0.002314578049400267
222.496,0.0034434360341020847,0.0034434360341020847
222.497,0.007877848971156825,0.007877848971156825
222.49800000000002,0.01020130691137486,0.01020130691137486
222.499,0.010088443338237905,0.010088443338237905
222.5,0.007769719477380709,0.007769719477380709
222.501,0.004004048316498749,0.004004048316498749
222.502,7.910512437388372e-05,-7.910512437388372e-05
222.50300000000001,0.0032459071235462216,-0.0032459071235462216
222.50400000000002,0.004477561081414887,-0.004477561081414887
222.505,0.0032638710163240487,-0.0032638710163240487
222.506,0.00021338497154233337,0.00021338497154233337
222.507,0.005072361942798335,0.005072361942798335
222.508,0.009921055219674109,0.009921055219674109
222.50900000000001,0.01321209721972892,0.01321209721972892
222.51000000000002,0.013675976649765685,0.013675976649765685
222.511,0.01071291518722392,0.01071291518722392
222.512,0.004623733230458414,0.004623733230458414
222.513,0.0034025767524537695,-0.0034025767524537695
222.514,0.011560188994538744,-0.011560188994538744
222.51500000000001,0.017894881233920197,-0.017894881233920197
222.51600000000002,0.020843330874372467,-0.020843330874372467
222.517,0.01968717441488672,-0.01968717441488672
222.518,0.014782412788237415,-0.014782412788237415
222.519,0.007485672491886763,-0.007485672491886763
222.52,0.0002127155914430765,0.0002127155914430765
222.52100000000002,0.0062493938064007645,0.0062493938064007645
222.52200000000002,0.009080648576792721,0.009080648576792721
222.523,0.008130768763890486,0.008130768763890486
222.524,0.003959222120098273,0.003959222120098273
222.525,0.0019076093257708602,-0.0019076093257708602
222.526,0.0074334170346195255,-0.0074334170346195255
222.52700000000002,0.010682782844056944,-0.010682782844056944
222.52800000000002,0.010403206659616608,-0.010403206659616608
222.529,0.0064036871950760394,-0.0064036871950760394
222.53,0.0003833291622017114,0.0003833291622017114
222.531,0.008173814583900913,0.008173814583900913
222.532,0.014854277431488242,0.014854277431488242
222.53300000000002,0.018596186654619356,0.018596186654619356
222.53400000000002,0.018379336193531534,0.018379336193531534
222.535,0.014271366828457192,0.014271366828457192
222.536,0.007386784927381085,0.007386784927381085
222.537,0.00045386847674309694,-0.00045386847674309694
222.538,0.007255798357700306,-0.007255798357700306
222.53900000000002,0.011411154157715006,-0.011411154157715006
222.54000000000002,0.012125773714113542,-0.012125773714113542
222.541,0.009594230326400922,-0.009594230326400922
222.542,0.0048852889340784906,-0.0048852889340784906
222.543,0.00041352915317146275,0.00041352915317146275
222.544,0.0046761033691852145,0.0046761033691852145
222.54500000000002,0.0066971694402533045,0.0066971694402533045
222.54600000000002,0.006000991091248824,0.006000991091248824
222.547,0.002921614144683476,0.002921614144683476
222.548,0.001551504090563827,-0.001551504090563827
222.549,0.00610077724568132,-0.00610077724568132
222.55,0.009474247047771008,-0.009474247047771008
222.55100000000002,0.010829030402517573,-0.010829030402517573
222.55200000000002,0.009931755997992096,-0.009931755997992096
222.553,0.007171748343906289,-0.007171748343906289
222.554,0.003399351823117852,-0.003399351823117852
222.555,0.0003503316610914248,0.0003503316610914248
222.556,0.0031615281259649588,0.0031615281259649588
222.55700000000002,0.0044830250214877845,0.0044830250214877845
222.55800000000002,0.00425170491438749,0.00425170491438749
222.559,0.0028700597243009546,0.0028700597243009546
222.56,0.0010546939915237724,0.0010546939915237724
222.561,0.0003941851167593439,-0.0003941851167593439
222.562,0.0008351958069002074,-0.0008351958069002074
222.56300000000002,2.5580766282342222e-05,2.5580766282342222e-05
222.56400000000002,0.0020478032988951182,0.0020478032988951182
222.565,0.004691754093395879,0.004691754093395879
222.566,0.007163385247906111,0.007163385247906111
222.567,0.008630798531456646,0.008630798531456646
222.568,0.008456186702118125,0.008456186702118125
222.56900000000002,0.006383456366631839,0.006383456366631839
222.57000000000002,0.0026320794904564353,0.0026320794904564353
222.571,0.0021299580798419893,-0.0021299580798419893
222.572,0.006931640377608436,-0.006931640377608436
222.573,0.010730093067003794,-0.010730093067003794
222.574,0.012671094862557722,-0.012671094862557722
222.57500000000002,0.012312109147230084,-0.012312109147230084
222.57600000000002,0.009747486414713645,-0.009747486414713645
222.577,0.005598600083540255,-0.005598600083540255
222.578,0.0008664711609731677,-0.0008664711609731677
222.579,0.0033179411117433334,0.0033179411117433334
222.58,0.00598076147019932,0.00598076147019932
222.58100000000002,0.006551757647577998,0.006551757647577998
222.58200000000002,0.005001938723076917,0.005001938723076917
222.583,0.0018335472979924324,0.0018335472979924324
222.584,0.0020737878682264895,-0.0020737878682264895
222.585,0.005714535461703715,-0.005714535461703715
222.586,0.008231021514957654,-0.008231021514957654
222.58700000000002,0.009127956800385745,-0.009127956800385745
222.58800000000002,0.008365756569576924,-0.008365756569576924
222.589,0.006310199266843048,-0.006310199266843048
222.59,0.0035628916188730673,-0.0035628916188730673
222.591,0.0007357912823939514,-0.0007357912823939514
222.592,0.0017496018962731511,0.0017496018962731511
222.59300000000002,0.003768188710143093,0.003768188710143093
222.59400000000002,0.005467256328113478,0.005467256328113478
222.595,0.007125404510609863,0.007125404510609863
222.596,0.008951455721222646,0.008951455721222646
222.597,0.010904772386826979,0.010904772386826979
222.598,0.012613574024599828,0.012613574024599828
222.59900000000002,0.013434449631610222,0.013434449631610222
222.60000000000002,0.012645193894588038,0.012645193894588038
222.601,0.009712030404765638,0.009712030404765638
222.602,0.004539635290554758,0.004539635290554758
222.603,0.002389231275714737,-0.002389231275714737
222.604,0.010046116548660427,-0.010046116548660427
222.60500000000002,0.017067732496829854,-0.017067732496829854
222.60600000000002,0.02209117836202501,-0.02209117836202501
222.607,0.024114401711056038,-0.024114401711056038
222.608,0.02276948539562489,-0.02276948539562489
222.609,0.018420535634024536,-0.018420535634024536
222.61,0.012052525864866675,-0.012052525864866675
222.61100000000002,0.004984633534423702,-0.004984633534423702
222.61200000000002,0.0015011882464875904,0.0015011882464875904
222.613,0.006498076119133439,0.006498076119133439
222.614,0.009672089113459107,0.009672089113459107
222.615,0.011261261944621737,0.011261261944621737
222.616,0.011884752362226603,0.011884752362226603
222.61700000000002,0.012235460430920195,0.012235460430920195
222.61800000000002,0.012768705964158166,0.012768705964158166
222.619,0.013499804318590972,0.013499804318590972
222.62,0.013984366188113695,0.013984366188113695
222.621,0.013490132705816626,0.013490132705816626
222.622,0.01130052180960258,0.01130052180960258
222.62300000000002,0.007041623460291226,0.007041623460291226
222.624,0.0009131699037088918,0.0009131699037088918
222.625,0.006265667457978345,-0.006265667457978345
222.626,0.013222920405570405,-0.013222920405570405
222.627,0.018567646218213902,-0.018567646218213902
222.62800000000001,0.02118722185589478,-0.02118722185589478
222.62900000000002,0.020580097458022414,-0.020580097458022414
222.63,0.017014387883671326,-0.017014387883671326
222.631,0.011457879494370726,-0.011457879494370726
222.632,0.005298716563750975,-0.005298716563750975
222.633,5.631053241249182e-05,5.631053241249182e-05
222.63400000000001,0.0035797466804208256,0.0035797466804208256
222.63500000000002,0.00489364543162836,0.00489364543162836
222.636,0.004330159370952667,0.004330159370952667
222.637,0.0027690099696057275,0.0027690099696057275
222.638,0.0013098072100027065,0.0013098072100027065
222.639,0.0008886201866541265,0.0008886201866541265
222.64000000000001,0.001963263445860288,0.001963263445860288
222.64100000000002,0.004366437609385245,0.004366437609385245
222.642,0.007369396659863725,0.007369396659863725
222.643,0.009930311055330486,0.009930311055330486
222.644,0.011043347339699893,0.011043347339699893
222.645,0.01007495356080288,0.01007495356080288
222.64600000000002,0.006981280147007384,0.006981280147007384
222.64700000000002,0.002341231769399438,0.002341231769399438
222.648,0.0028009137977042953,-0.0028009137977042953
222.649,0.007230627395229968,-0.007230627395229968
222.65,0.009903540884775883,-0.009903540884775883
222.651,0.010229236749868005,-0.010229236749868005
222.65200000000002,0.008218449605905544,-0.008218449605905544
222.65300000000002,0.004458338939178751,-0.004458338939178751
222.654,6.73374900024559e-05,6.73374900024559e-05
222.655,0.004252895233241579,0.004252895233241579
222.656,0.0071575808718405695,0.0071575808718405695
222.657,0.008225384566792053,0.008225384566792053
222.65800000000002,0.0073844149068250115,0.0073844149068250115
222.65900000000002,0.005010931677530921,0.005010931677530921
222.66,0.0017818295037863305,0.0017818295037863305
222.661,0.0015327858779738595,-0.0015327858779738595
222.662,0.004274843241571929,-0.004274843241571929
222.663,0.00604698881651434,-0.00604698881651434
222.66400000000002,0.006771727288781332,-0.006771727288781332
222.66500000000002,0.006655609199121534,-0.006655609199121534
222.666,0.006078757365163558,-0.006078757365163558
222.667,0.005447602112580346,-0.005447602112580346
222.668,0.005054911430972547,-0.005054911430972547
222.669,0.004986004845770646,-0.004986004845770646
222.67000000000002,0.005095864164996968,-0.005095864164996968
222.67100000000002,0.005062571667959483,-0.005062571667959483
222.672,0.00450245485190309,-0.00450245485190309
222.673,0.0031156329364792493,-0.0031156329364792493
222.674,0.0008208646946068155,-0.0008208646946068155
222.675,0.0021617683454744434,0.0021617683454744434
222.67600000000002,0.005311669465742635,0.005311669465742635
222.67700000000002,0.007903692412925064,0.007903692412925064
222.678,0.009185246786434348,0.009185246786434348
222.679,0.008594706154506684,0.008594706154506684
222.68,0.00596265048981129,0.00596265048981129
222.681,0.0016329094987441038,0.0016329094987441038
222.68200000000002,0.0035460394348365556,-0.0035460394348365556
222.68300000000002,0.008377795039981362,-0.008377795039981362
222.684,0.011599504377295657,-0.011599504377295657
222.685,0.012223264335662605,-0.012223264335662605
222.686,0.009844797145003593,-0.009844797145003593
222.687,0.004823537658916131,-0.004823537658916131
222.68800000000002,0.001735573434379154,0.001735573434379154
222.68900000000002,0.00821693162584605,0.00821693162584605
222.69,0.0129004929864843,0.0129004929864843
222.691,0.014436995015522274,0.014436995015522274
222.692,0.012258029114363437,0.012258029114363437
222.693,0.006793318204083609,0.006793318204083609
222.69400000000002,0.0005857814173632175,-0.0005857814173632175
222.69500000000002,0.007901549130116649,-0.007901549130116649
222.696,0.01310492228042122,-0.01310492228042122
222.697,0.014664941168194414,-0.014664941168194414
222.698,0.01204082758768273,-0.01204082758768273
222.699,0.0058894163735449595,-0.0058894163735449595
222.70000000000002,0.0020681782485962243,0.0020681782485962243
222.70100000000002,0.00949832519971032,0.00949832519971032
222.702,0.014106072203939246,0.014106072203939246
222.703,0.014301932900644392,0.014301932900644392
222.704,0.009688792803294016,0.009688792803294016
222.705,0.001220633172431822,0.001220633172431822
222.70600000000002,0.009021860995452357,-0.009021860995452357
222.70700000000002,0.018381583126722462,-0.018381583126722462
222.708,0.0243469346166135,-0.0243469346166135
222.709,0.025239173505980338,-0.025239173505980338
222.71,0.020668335584213823,-0.020668335584213823
222.711,0.01162908373900227,-0.01162908373900227
222.71200000000002,0.00021408276050040418,-0.00021408276050040418
222.71300000000002,0.010965762496923253,0.010965762496923253
222.714,0.019481668759030447,0.019481668759030447
222.715,0.023705559809911316,0.023705559809911316
222.716,0.023175895548320172,0.023175895548320172
222.717,0.01862109874328701,0.01862109874328701
222.71800000000002,0.01165567894526997,0.01165567894526997
222.71900000000002,0.004259304752179707,0.004259304752179707
222.72,0.0017941989570690866,-0.0017941989570690866
222.721,0.0053882755558276995,-0.0053882755558276995
222.722,0.006275100495543222,-0.006275100495543222
222.723,0.005009469858233644,-0.005009469858233644
222.72400000000002,0.0026556106038550607,-0.0026556106038550607
222.72500000000002,0.00038257269048856533,-0.00038257269048856533
222.726,0.0009131297818484729,0.0009131297818484729
222.727,0.0008424059147587725,0.0008424059147587725
222.728,0.000440555320816416,-0.000440555320816416
222.729,0.0023862974679583417,-0.0023862974679583417
222.73000000000002,0.004307072935163276,-0.004307072935163276
222.73100000000002,0.005639385350944183,-0.005639385350944183
222.732,0.006118723363767305,-0.006118723363767305
222.733,0.005815094904052016,-0.005815094904052016
222.734,0.005034594505378404,-0.005034594505378404
222.735,0.00414208193674191,-0.00414208193674191
222.73600000000002,0.0033854022836346366,-0.0033854022836346366
222.73700000000002,0.002794570369360815,-0.002794570369360815
222.738,0.0021943476396018053,-0.0021943476396018053
222.739,0.001320176386018918,-0.001320176386018918
222.74,1.550080036420929e-05,1.550080036420929e-05
222.741,0.001780561390281119,0.001780561390281119
222.74200000000002,0.003669593321728141,0.003669593321728141
222.74300000000002,0.00517005790764245,0.00517005790764245
222.744,0.005731376720462191,0.005731376720462191
222.745,0.004977792028258571,0.004977792028258571
222.746,0.00288493197892111,0.00288493197892111
222.747,0.0001512487642913896,-0.0001512487642913896
222.74800000000002,0.0033886875258065346,-0.0033886875258065346
222.749,0.005941813899600235,-0.005941813899600235
222.75,0.007050876776347879,-0.007050876776347879
222.751,0.0063298169919767,-0.0063298169919767
222.752,0.003908159907578337,-0.003908159907578337
222.75300000000001,0.000415475461025336,-0.000415475461025336
222.75400000000002,0.0031916506741626947,0.0031916506741626947
222.755,0.005907995061553072,0.005907995061553072
222.756,0.0069761065900527984,0.0069761065900527984
222.757,0.006107205923273543,0.006107205923273543
222.758,0.0035577346650011413,0.0035577346650011413
222.75900000000001,3.980133338595496e-05,3.980133338595496e-05
222.76000000000002,0.0035027516370085224,-0.0035027516370085224
222.761,0.006178926515609922,-0.006178926515609922
222.762,0.007405135879270311,-0.007405135879270311
222.763,0.007052117204675886,-0.007052117204675886
222.764,0.00544423364677085,-0.00544423364677085
222.76500000000001,0.003220190409825201,-0.003220190409825201
222.76600000000002,0.0011079048506928283,-0.0011079048506928283
222.767,0.0003094435125716401,0.0003094435125716401
222.768,0.0007612966671500235,0.0007612966671500235
222.769,0.0003430511166367919,0.0003430511166367919
222.77,0.0005531389413392004,-0.0005531389413392004
222.77100000000002,0.001397757543572188,-0.001397757543572188
222.77200000000002,0.0017144358531014663,-0.0017144358531014663
222.773,0.0012372211455028306,-0.0012372211455028306
222.774,1.3383934583807153e-05,1.3383934583807153e-05
222.775,0.0017527993776657884,0.0017527993776657884
222.776,0.0035366574189918732,0.0035366574189918732
222.77700000000002,0.004905520838585469,0.004905520838585469
222.77800000000002,0.005519919191096771,0.005519919191096771
222.779,0.005244621106650392,0.005244621106650392
222.78,0.004162786256430859,0.004162786256430859
222.781,0.002526128309901538,0.002526128309901538
222.782,0.0006671142081801364,0.0006671142081801364
222.78300000000002,0.0010928203379359435,-0.0010928203379359435
222.78400000000002,0.002510323304880789,-0.002510323304880789
222.785,0.0034484206389211237,-0.0034484206389211237
222.786,0.0038691898118316304,-0.0038691898118316304
222.787,0.0038064614188824527,-0.0038064614188824527
222.788,0.0033375962862031918,-0.0033375962862031918
222.78900000000002,0.0025674714390240194,-0.0025674714390240194
222.79000000000002,0.0016264205240070573,-0.0016264205240070573
222.791,0.0006730212321038812,-0.0006730212321038812
222.792,0.00011222255397113323,0.00011222255397113323
222.793,0.0005525624082760914,0.0005525624082760914
222.794,0.0005196109596417086,0.0005196109596417086
222.79500000000002,1.6299878609625898e-05,-1.6299878609625898e-05
222.79600000000002,0.0009516582755670304,-0.0009516582755670304
222.797,0.002052241979198956,-0.002052241979198956
222.798,0.0030026859738836857,-0.0030026859738836857
222.799,0.0034955408688540236,-0.0034955408688540236
222.8,0.003334291536252536,-0.003334291536252536
222.80100000000002,0.0025143618497768627,-0.0025143618497768627
222.80200000000002,0.0012485542606366423,-0.0012485542606366423
222.803,8.060827886761726e-05,8.060827886761726e-05
222.804,0.0010342064676451311,0.0010342064676451311
222.805,0.001263239105729479,0.001263239105729479
222.806,0.0006393607464280971,0.0006393607464280971
222.80700000000002,0.0006781089337858376,-0.0006781089337858376
222.80800000000002,0.002268934834558039,-0.002268934834558039
222.809,0.0035717971417874245,-0.0035717971417874245
222.81,0.004063422710667939,-0.004063422710667939
222.811,0.0034395811112818337,-0.0034395811112818337
222.812,0.001735528396700064,-0.001735528396700064
222.81300000000002,0.0006597544490840743,0.0006597544490840743
222.81400000000002,0.0031072494182600922,0.0031072494182600922
222.815,0.004911140839190382,0.004911140839190382
222.816,0.0055407888916226685,0.0055407888916226685
222.817,0.004807654019906473,0.004807654019906473
222.818,0.00293541157608728,0.00293541157608728
222.81900000000002,0.000495459258503021,0.000495459258503021
222.82000000000002,0.0017749754138986617,-0.0017749754138986617
222.821,0.003214096697893387,-0.003214096697893387
222.822,0.0034558490113782443,-0.0034558490113782443
222.823,0.0025535963676984507,-0.0025535963676984507
222.824,0.0009623887401567233,-0.0009623887401567233
222.82500000000002,0.0006176802238743984,0.0006176802238743984
222.82600000000002,0.0014866852618891596,0.0014866852618891596
222.827,0.0011964408624433275,0.0011964408624433275
222.828,0.0002782427174735222,-0.0002782427174735222
222.829,0.002510076095396608,-0.002510076095396608
222.83,0.004746052184496826,-0.004746052184496826
222.83100000000002,0.006151777406737987,-0.006151777406737987
222.83200000000002,0.0060934719967321,-0.0060934719967321
222.833,0.004362817279891993,-0.004362817279891993
222.834,0.0012668750612462652,-0.0012668750612462652
222.835,0.002450838016616198,0.002450838016616198
222.836,0.005835769637794336,0.005835769637794336
222.83700000000002,0.008022080518914036,0.008022080518914036
222.83800000000002,0.008508170904153437,0.008508170904153437
222.839,0.00731574658523092,0.00731574658523092
222.84,0.004977552199543901,0.004977552199543901
222.841,0.002355194135338819,0.002355194135338819
222.842,0.0003451013294640261,0.0003451013294640261
222.84300000000002,0.00043123187378105713,-0.00043123187378105713
222.84400000000002,0.0001501798571570886,0.0001501798571570886
222.845,0.00165627068019552,0.00165627068019552
222.846,0.0032240977637456552,0.0032240977637456552
222.847,0.0038380836206911,0.0038380836206911
222.848,0.0026717487297453625,0.0026717487297453625
222.84900000000002,0.0006134247368969851,-0.0006134247368969851
222.85000000000002,0.00570716656522701,-0.00570716656522701
222.851,0.011680811378166931,-0.011680811378166931
222.852,0.017203914737136096,-0.017203914737136096
222.853,0.02088614911892652,-0.02088614911892652
222.854,0.021647015216206898,-0.021647015216206898
222.85500000000002,0.019009342802355625,-0.019009342802355625
222.85600000000002,0.013236763962411078,-0.013236763962411078
222.857,0.005281621708397067,-0.005281621708397067
222.858,0.003436811562884373,0.003436811562884373
222.859,0.011359494134328178,0.011359494134328178
222.86,0.01713253911576134,0.01713253911576134
222.86100000000002,0.019884876308339353,0.019884876308339353
222.86200000000002,0.019378671334594085,0.019378671334594085
222.863,0.016010332145879456,0.016010332145879456
222.864,0.010678312761825919,0.010678312761825919
222.865,0.004562317638076456,0.004562317638076456
222.866,0.001128922983902497,-0.001128922983902497
222.86700000000002,0.0053874551941444125,-0.0053874551941444125
222.86800000000002,0.0075741842808808146,-0.0075741842808808146
222.869,0.007504919920936962,-0.007504919920936962
222.87,0.00545136449578172,-0.00545136449578172
222.871,0.002066299438777268,-0.002066299438777268
222.872,0.001750605409184641,0.001750605409184641
222.87300000000002,0.005025718434033963,0.005025718434033963
222.874,0.0068987689802422186,0.0068987689802422186
222.875,0.006796165853439438,0.006796165853439438
222.876,0.0045590022858105275,0.0045590022858105275
222.877,0.0004959750729688455,0.0004959750729688455
222.87800000000001,0.004659305840783704,-0.004659305840783704
222.87900000000002,0.009889130953791408,-0.009889130953791408
222.88,0.014109036876856983,-0.014109036876856983
222.881,0.01641625320689207,-0.01641625320689207
222.882,0.016308513557533606,-0.016308513557533606
222.883,0.01381287890840983,-0.01381287890840983
222.88400000000001,0.009483210713021559,-0.009483210713021559
222.88500000000002,0.004259247472487244,-0.004259247472487244
222.886,0.000779377707035301,0.000779377707035301
222.887,0.004697074472493691,0.004697074472493691
222.888,0.00694185418512323,0.00694185418512323
222.889,0.007468246942556771,0.007468246942556771
222.89000000000001,0.006705331618932819,0.006705331618932819
222.89100000000002,0.005379869469842374,0.005379869469842374
222.892,0.004251621373502643,0.004251621373502643
222.893,0.003847879864410987,0.003847879864410987
222.894,0.004286033164270658,0.004286033164270658
222.895,0.005244732677132899,0.005244732677132899
222.89600000000002,0.006094434368832681,0.006094434368832681
222.89700000000002,0.006143111447670168,0.006143111447670168
222.898,0.004911697513054933,0.004911697513054933
222.899,0.002341192991871417,0.002341192991871417
222.9,0.0011452295961801309,-0.0011452295961801309
222.901,0.004752706863859042,-0.004752706863859042
222.90200000000002,0.00756492759386423,-0.00756492759386423
222.90300000000002,0.008850508095073838,-0.008850508095073838
222.904,0.00831895187391238,-0.00831895187391238
222.905,0.0062336659800659635,-0.0062336659800659635
222.906,0.0033367578600370733,-0.0033367578600370733
222.907,0.0006052291831535547,-0.0006052291831535547
222.90800000000002,0.0010816280047980253,0.0010816280047980253
222.90900000000002,0.0012497499275818445,0.0012497499275818445
222.91,3.7528006127142046e-06,3.7528006127142046e-06
222.911,0.001999266491894016,-0.001999266491894016
222.912,0.003773327689005311,-0.003773327689005311
222.913,0.00435309531762408,-0.00435309531762408
222.91400000000002,0.003151474748126136,-0.003151474748126136
222.91500000000002,0.00020068553287880004,-0.00020068553287880004
222.916,0.003811430209494694,0.003811430209494694
222.917,0.007730225620392461,0.007730225620392461
222.918,0.010291922426039473,0.010291922426039473
222.919,0.010534773539727477,0.010534773539727477
222.92000000000002,0.008127478203695157,0.008127478203695157
222.92100000000002,0.0035037601446412953,0.0035037601446412953
222.922,0.0022448132301031835,-0.0022448132301031835
222.923,0.007685704067355987,-0.007685704067355987
222.924,0.01147026489149425,-0.01147026489149425
222.925,0.012729353479866956,-0.012729353479866956
222.92600000000002,0.011313136343019208,-0.011313136343019208
222.92700000000002,0.007801568274696483,-0.007801568274696483
222.928,0.0032890788693543315,-0.0032890788693543315
222.929,0.0009785242225632017,0.0009785242225632017
222.93,0.0039904475337675695,0.0039904475337675695
222.931,0.005253083061770099,0.005253083061770099
222.93200000000002,0.004880997975354497,0.004880997975354497
222.93300000000002,0.0034788445747831968,0.0034788445747831968
222.934,0.0018690499822619834,0.0018690499822619834
222.935,0.0007709482402063728,0.0007709482402063728
222.936,0.0005485048658938691,0.0005485048658938691
222.937,0.0011129736483350243,0.0011129736483350243
222.93800000000002,0.0020059963592462967,0.0020059963592462967
222.93900000000002,0.002620719863094161,0.002620719863094161
222.94,0.002468561057055082,0.002468561057055082
222.941,0.001385394714976185,0.001385394714976185
222.942,0.0004023212103692497,-0.0004023212103692497
222.943,0.0023742981584931023,-0.0023742981584931023
222.94400000000002,0.003934083960553884,-0.003934083960553884
222.94500000000002,0.004657627423460744,-0.004657627423460744
222.946,0.004469946345170825,-0.004469946345170825
222.947,0.003674853203149569,-0.003674853203149569
222.948,0.002820794624891484,-0.002820794624891484
222.949,0.002452340471345941,-0.002452340471345941
222.95000000000002,0.002846030011738085,-0.002846030011738085
222.95100000000002,0.0038413834654149673,-0.0038413834654149673
222.952,0.004846701729778318,-0.004846701729778318
222.953,0.005034881518289602,-0.005034881518289602
222.954,0.003669972479277848,-0.003669972479277848
222.955,0.0004485241294227012,-0.0004485241294227012
222.95600000000002,0.004276585739868126,0.004276585739868126
222.95700000000002,0.009489679274441916,0.009489679274441916
222.958,0.01375089726968784,0.01375089726968784
222.959,0.015620129082458243,0.015620129082458243
222.96,0.014134569987030058,0.014134569987030058
222.961,0.009178751966644017,0.009178751966644017
222.96200000000002,0.0016116551606319128,0.0016116551606319128
222.96300000000002,0.006909843180003471,-0.006909843180003471
222.964,0.014372296765029536,-0.014372296765029536
222.965,0.018981905156770493,-0.018981905156770493
222.966,0.019695113240361398,-0.019695113240361398
222.967,0.016531626905911364,-0.016531626905911364
222.96800000000002,0.010564414261633992,-0.010564414261633992
222.96900000000002,0.003584695289471932,-0.003584695289471932
222.97,0.0024539348442638616,0.0024539348442638616
222.971,0.006034971967350977,0.006034971967350977
222.972,0.006529666412268261,0.006529666412268261
222.973,0.004354992219756035,0.004354992219756035
222.97400000000002,0.0007912529138739291,0.0007912529138739291
222.97500000000002,0.00247649637322131,-0.00247649637322131
222.976,0.00393897308766306,-0.00393897308766306
222.977,0.0027726458216173313,-0.0027726458216173313
222.978,0.0008873583128942889,0.0008873583128942889
222.979,0.0059970696735330955,0.0059970696735330955
222.98000000000002,0.010953815470927561,0.010953815470927561
222.98100000000002,0.014125602427094886,0.014125602427094886
222.982,0.014382208204264309,0.014382208204264309
222.983,0.011454265146975512,0.011454265146975512
222.984,0.006008058683095392,0.006008058683095392
222.985,0.0005792386056890127,-0.0005792386056890127
222.98600000000002,0.0066601691100787175,-0.0066601691100787175
222.98700000000002,0.010822020392041084,-0.010822020392041084
222.988,0.012290260812127803,-0.012290260812127803
222.989,0.011105823369592607,-0.011105823369592607
222.99,0.008033022523873718,-0.008033022523873718
222.991,0.0042468449537136225,-0.0042468449537136225
222.99200000000002,0.0009191143924766862,-0.0009191143924766862
222.99300000000002,0.0011506783281384817,0.0011506783281384817
222.994,0.0017392181472993542,0.0017392181472993542
222.995,0.0011825667178130856,0.0011825667178130856
222.996,0.00016420044206199032,0.00016420044206199032
222.997,0.0005995260859814768,-0.0005995260859814768
222.99800000000002,0.0006535273004175198,-0.0006535273004175198
222.999,2.9835109173582438e-05,2.9835109173582438e-05
223.0,0.0010666649601545652,0.0010666649601545652
223.001,0.0018431606099919098,0.0018431606099919098
223.002,0.0017853938668871746,0.0017853938668871746
223.00300000000001,0.0006097492689699177,0.0006097492689699177
223.00400000000002,0.001542343851808917,-0.001542343851808917
223.005,0.004135153387373666,-0.004135153387373666
223.006,0.006420945216451434,-0.006420945216451434
223.007,0.0077032749500396975,-0.0077032749500396975
223.008,0.007581892800490706,-0.007581892800490706
223.00900000000001,0.006088859664552081,-0.006088859664552081
223.01000000000002,0.0036679196754725953,-0.0036679196754725953
223.011,0.0010084608593584935,-0.0010084608593584935
223.012,0.0012009826138063885,0.0012009826138063885
223.013,0.002506667654131711,0.002506667654131711
223.014,0.002825421022137618,0.002825421022137618
223.01500000000001,0.002436021202848418,0.002436021202848418
223.01600000000002,0.00183577666309628,0.00183577666309628
223.017,0.0015227947961844823,0.0015227947961844823
223.018,0.0017911862387538287,0.0017911862387538287
223.019,0.002619219267930278,0.002619219267930278
223.02,0.003692403756607466,0.003692403756607466
223.02100000000002,0.004549524909114015,0.004549524909114015
223.02200000000002,0.004790656891882363,0.004790656891882363
223.023,0.004261132971333389,0.004261132971333389
223.024,0.003134171528965196,0.003134171528965196
223.025,0.0018542989073057617,0.0018542989073057617
223.026,0.0009589946185650576,0.0009589946185650576
223.02700000000002,0.0008459543672409221,0.0008459543672409221
223.02800000000002,0.0015785262132643957,0.0015785262132643957
223.029,0.002811790998220914,0.002811790998220914
223.03,0.0038791475991109335,0.0038791475991109335
223.031,0.0040192252430694825,0.0040192252430694825
223.032,0.0026675622573998324,0.0026675622573998324
223.03300000000002,0.00029224457749818663,-0.00029224457749818663
223.03400000000002,0.004415209051774713,-0.004415209051774713
223.035,0.008772449209175998,-0.008772449209175998
223.036,0.012206751058237689,-0.012206751058237689
223.037,0.013689239642338119,-0.013689239642338119
223.038,0.012660633806065993,-0.012660633806065993
223.03900000000002,0.009240487387601647,-0.009240487387601647
223.04000000000002,0.004228357112299635,-0.004228357112299635
223.041,0.0011112242039902256,0.0011112242039902256
223.042,0.0054158083621163,0.0054158083621163
223.043,0.007628219770314944,0.007628219770314944
223.044,0.0073067372429972,0.0073067372429972
223.04500000000002,0.004743187748915728,0.004743187748915728
223.04600000000002,0.0008530471408275635,0.0008530471408275635
223.047,0.003123581168941588,-0.003123581168941588
223.048,0.006010255692070651,-0.006010255692070651
223.049,0.007045152722940237,-0.007045152722940237
223.05,0.006084046355876935,-0.006084046355876935
223.05100000000002,0.0035970635863426426,-0.0035970635863426426
223.05200000000002,0.00047116618551528284,-0.00047116618551528284
223.053,0.0023059975524184076,0.0023059975524184076
223.054,0.003969521804969946,0.003969521804969946
223.055,0.004200134892011374,0.004200134892011374
223.056,0.0031788717920396654,0.0031788717920396654
223.05700000000002,0.0014673437505594894,0.0014673437505594894
223.05800000000002,0.00023190705779696112,-0.00023190705779696112
223.059,0.0013417983166867996,-0.0013417983166867996
223.06,0.0016067092094240022,-0.0016067092094240022
223.061,0.0011517486203272333,-0.0011517486203272333
223.062,0.000392190268497957,-0.000392190268497957
223.06300000000002,0.00016424915285589867,0.00016424915285589867
223.06400000000002,0.00014153778520847643,0.00014153778520847643
223.065,0.0005419719526388935,-0.0005419719526388935
223.066,0.0016344494907641637,-0.0016344494907641637
223.067,0.002649038120163741,-0.002649038120163741
223.068,0.0030611343189531925,-0.0030611343189531925
223.06900000000002,0.0025281425070841634,-0.0025281425070841634
223.07000000000002,0.0010464341715934807,-0.0010464341715934807
223.071,0.0010168953065884836,0.0010168953065884836
223.072,0.003033749418216301,0.003033749418216301
223.073,0.004330016751757472,0.004330016751757472
223.074,0.004429861545149236,0.004429861545149236
223.07500000000002,0.0032408102253236536,0.0032408102253236536
223.07600000000002,0.0011104071282202496,0.0011104071282202496
223.077,0.0012704280048414969,-0.0012704280048414969
223.078,0.003088432627449241,-0.003088432627449241
223.079,0.003680286010631574,-0.003680286010631574
223.08,0.002763874917044056,-0.002763874917044056
223.08100000000002,0.0005489438372972134,-0.0005489438372972134
223.08200000000002,0.0023123789897545543,0.0023123789897545543
223.083,0.004921040699632233,0.004921040699632233
223.084,0.00640956076308059,0.00640956076308059
223.085,0.006213187775275359,0.006213187775275359
223.086,0.0042463103053488474,0.0042463103053488474
223.08700000000002,0.0009286511194883176,0.0009286511194883176
223.08800000000002,0.0029445313603156742,-0.0029445313603156742
223.089,0.0064434967579737375,-0.0064434967579737375
223.09,0.008777057352065501,-0.008777057352065501
223.091,0.009510742798360776,-0.009510742798360776
223.092,0.008664270577775272,-0.008664270577775272
223.09300000000002,0.006664179338061191,-0.006664179338061191
223.09400000000002,0.004175280824393322,-0.004175280824393322
223.095,0.00187248848817236,-0.00187248848817236
223.096,0.00023051554355121696,-0.00023051554355121696
223.097,0.0006013556935404336,0.0006013556935404336
223.098,0.0008041084164885971,0.0008041084164885971
223.09900000000002,0.0007799803123790853,0.0007799803123790853
223.10000000000002,0.0009736810038409585,0.0009736810038409585
223.101,0.0016888833207937763,0.0016888833207937763
223.102,0.002963349783547604,0.002963349783547604
223.103,0.004543424164841284,0.004543424164841284
223.104,0.0059635789243714585,0.0059635789243714585
223.10500000000002,0.006701439866440195,0.006701439866440195
223.10600000000002,0.006354803750873956,0.006354803750873956
223.107,0.004781852767131269,0.004781852767131269
223.108,0.002159803321900617,0.002159803321900617
223.109,0.0010549741729951234,-0.0010549741729951234
223.11,0.004250461854303012,-0.004250461854303012
223.11100000000002,0.00682570137452578,-0.00682570137452578
223.11200000000002,0.008348810821122045,-0.008348810821122045
223.113,0.008659750353751732,-0.008659750353751732
223.114,0.007890640058415421,-0.007890640058415421
223.115,0.0064028704075478095,-0.0064028704075478095
223.116,0.004665110871097742,-0.004665110871097742
223.11700000000002,0.0031121356533590407,-0.0031121356533590407
223.11800000000002,0.0020270589068309055,-0.0020270589068309055
223.119,0.001479370329391211,-0.001479370329391211
223.12,0.0013322211014273448,-0.0013322211014273448
223.121,0.001311105537319653,-0.001311105537319653
223.122,0.001108885945429717,-0.001108885945429717
223.12300000000002,0.0004936394819676559,-0.0004936394819676559
223.124,0.0006123267457448995,0.0006123267457448995
223.125,0.0021032838548532768,0.0021032838548532768
223.126,0.0037161269781788167,0.0037161269781788167
223.127,0.00510141124886197,0.00510141124886197
223.12800000000001,0.005917686533872802,0.005917686533872802
223.12900000000002,0.005922858211368885,0.005922858211368885
223.13,0.00503906048142256,0.00503906048142256
223.131,0.0033760957323100836,0.0033760957323100836
223.132,0.0012100018167907627,0.0012100018167907627
223.133,0.0010755105125320778,-0.0010755105125320778
223.13400000000001,0.0030689266068330444,-0.0030689266068330444
223.13500000000002,0.004412927609662027,-0.004412927609662027
223.136,0.004870944352460792,-0.004870944352460792
223.137,0.004366180161225343,-0.004366180161225343
223.138,0.002988490277237129,-0.002988490277237129
223.139,0.0009718008128174499,-0.0009718008128174499
223.14000000000001,0.0013499341850913373,0.0013499341850913373
223.14100000000002,0.003597886108638483,0.003597886108638483
223.142,0.00540483942596204,0.00540483942596204
223.143,0.006465802206704919,0.006465802206704919
223.144,0.006578636015275877,0.006578636015275877
223.145,0.005672861067729838,0.005672861067729838
223.14600000000002,0.003825415880441223,0.003825415880441223
223.14700000000002,0.00126129142656037,0.00126129142656037
223.148,0.001664310103033681,-0.001664310103033681
223.149,0.004505751260348858,-0.004505751260348858
223.15,0.006789710293044079,-0.006789710293044079
223.151,0.008096576290352332,-0.008096576290352332
223.15200000000002,0.008148830042191522,-0.008148830042191522
223.15300000000002,0.006887836053493414,-0.006887836053493414
223.154,0.004517051898187358,-0.004517051898187358
223.155,0.0014924193282067938,-0.0014924193282067938
223.156,0.0015493109163211428,0.0015493109163211428
223.157,0.003917779599834334,0.003917779599834334
223.15800000000002,0.005027578918522048,0.005027578918522048
223.15900000000002,0.004550131387892298,0.004550131387892298
223.16,0.002516202454200301,0.002516202454200301
223.161,0.0006657053492509156,-0.0006657053492509156
223.162,0.004289710490640273,-0.004289710490640273
223.163,0.007518643873530518,-0.007518643873530518
223.16400000000002,0.009595634192149746,-0.009595634192149746
223.16500000000002,0.010043156864101968,-0.010043156864101968
223.166,0.008790192923890904,-0.008790192923890904
223.167,0.006185655615761927,-0.006185655615761927
223.168,0.0028888658035584863,-0.0028888658035584863
223.169,0.00033367118334090036,0.00033367118334090036
223.17000000000002,0.0028438609908249934,0.0028438609908249934
223.17100000000002,0.004324318922819312,0.004324318922819312
223.172,0.004861510546855794,0.004861510546855794
223.173,0.00488663166117825,0.00488663166117825
223.174,0.004987690019206884,0.004987690019206884
223.175,0.005651933492225027,0.005651933492225027
223.17600000000002,0.007026882666018043,0.007026882666018043
223.17700000000002,0.008789387053314382,0.008789387053314382
223.178,0.010182529146517159,0.010182529146517159
223.179,0.010227305591629439,0.010227305591629439
223.18,0.008055829507961933,0.008055829507961933
223.181,0.003265114926317136,0.003265114926317136
223.18200000000002,0.003827525601325521,-0.003827525601325521
223.18300000000002,0.012126301768061298,-0.012126301768061298
223.184,0.019940121769758512,-0.019940121769758512
223.185,0.025377371580726695,-0.025377371580726695
223.186,0.02685222393122629,-0.02685222393122629
223.187,0.02355872521397538,-0.02355872521397538
223.18800000000002,0.0157676565776612,-0.0157676565776612
223.18900000000002,0.00484525341144498,-0.00484525341144498
223.19,0.007029257967918594,0.007029257967918594
223.191,0.017381603647517542,0.017381603647517542
223.192,0.024057885562489945,0.024057885562489945
223.193,0.025766686349284477,0.025766686349284477
223.19400000000002,0.022394989988805264,0.022394989988805264
223.19500000000002,0.015009217634026031,0.015009217634026031
223.196,0.005543949487423175,0.005543949487423175
223.197,0.00372859011195183,-0.00372859011195183
223.198,0.010793277328593889,-0.010793277328593889
223.199,0.01438156916784617,-0.01438156916784617
223.20000000000002,0.014223057835488783,-0.014223057835488783
223.20100000000002,0.011002274900217308,-0.011002274900217308
223.202,0.0060543165145433295,-0.0060543165145433295
223.203,0.0009092185397288918,-0.0009092185397288918
223.204,0.0031661441321841847,0.0031661441321841847
223.205,0.005489387412624057,0.005489387412624057
223.20600000000002,0.006060826462954317,0.006060826462954317
223.20700000000002,0.005429622810389393,0.005429622810389393
223.208,0.004394694142263688,0.004394694142263688
223.209,0.003656675632197324,0.003656675632197324
223.21,0.0035453464895185455,0.0035453464895185455
223.211,0.003912979275119546,0.003912979275119546
223.21200000000002,0.004221362928959042,0.004221362928959042
223.21300000000002,0.0037812417839179656,0.0037812417839179656
223.214,0.0020512829106140253,0.0020512829106140253
223.215,0.0011137161505534634,-0.0011137161505534634
223.216,0.00535430262235394,-0.00535430262235394
223.217,0.009875204962665645,-0.009875204962665645
223.21800000000002,0.013666855941617522,-0.013666855941617522
223.21900000000002,0.01580331381672261,-0.01580331381672261
223.22,0.015716696495472426,-0.015716696495472426
223.221,0.013359578266248905,-0.013359578266248905
223.222,0.009207624995170131,-0.009207624995170131
223.223,0.0041096579140616814,-0.0041096579140616814
223.22400000000002,0.0009582408787682128,0.0009582408787682128
223.22500000000002,0.0051507527028512865,0.0051507527028512865
223.226,0.007942735245576324,0.007942735245576324
223.227,0.009199670222983824,0.009199670222983824
223.228,0.009123956717699382,0.009123956717699382
223.229,0.008114697799697744,0.008114697799697744
223.23000000000002,0.006603849424091892,0.006603849424091892
223.23100000000002,0.004931242088065246,0.004931242088065246
223.232,0.0032970278295321805,0.0032970278295321805
223.233,0.0017933339193045227,0.0017933339193045227
223.234,0.0004825261506115817,0.0004825261506115817
223.235,0.0005288048543701056,-0.0005288048543701056
223.23600000000002,0.0010662669256447893,-0.0010662669256447893
223.23700000000002,0.0009352042211962317,-0.0009352042211962317
223.238,2.4639140014504377e-05,-2.4639140014504377e-05
223.239,0.0015776878520381602,0.0015776878520381602
223.24,0.0035171154079180183,0.0035171154079180183
223.241,0.005196993252517241,0.005196993252517241
223.24200000000002,0.005910314797202475,0.005910314797202475
223.24300000000002,0.005049475450310214,0.005049475450310214
223.244,0.002330011556155441,0.002330011556155441
223.245,0.002050500818941586,-0.002050500818941586
223.246,0.00738380731801031,-0.00738380731801031
223.247,0.012579470270971707,-0.012579470270971707
223.24800000000002,0.016426027473933822,-0.016426027473933822
223.249,0.017913798638733484,-0.017913798638733484
223.25,0.01652321025953583,-0.01652321025953583
223.251,0.012388503351166839,-0.012388503351166839
223.252,0.006282862947170255,-0.006282862947170255
223.25300000000001,0.000574081953164557,0.000574081953164557
223.25400000000002,0.006829937534257334,0.006829937534257334
223.255,0.011340457290282374,0.011340457290282374
223.256,0.013436835027250538,0.013436835027250538
223.257,0.013044376694786065,0.013044376694786065
223.258,0.010627136424667174,0.010627136424667174
223.25900000000001,0.006989373094836318,0.006989373094836318
223.26000000000002,0.003008509618838371,0.003008509618838371
223.261,0.0006088784477352653,-0.0006088784477352653
223.262,0.003471579794003066,-0.003471579794003066
223.263,0.005512976882536641,-0.005512976882536641
223.264,0.006880322991281497,-0.006880322991281497
223.26500000000001,0.007762438231064764,-0.007762438231064764
223.26600000000002,0.008233831227579534,-0.008233831227579534
223.267,0.008182841415641968,-0.008182841415641968
223.268,0.007355264986885799,-0.007355264986885799
223.269,0.005496754766749408,-0.005496754766749408
223.27,0.0025351442273586363,-0.0025351442273586363
223.27100000000002,0.0012763187245459664,0.0012763187245459664
223.27200000000002,0.00532398895426104,0.00532398895426104
223.273,0.008739202794648064,0.008739202794648064
223.274,0.010624671525664145,0.010624671525664145
223.275,0.01033499037995338,0.01033499037995338
223.276,0.007718111318804851,0.007718111318804851
223.27700000000002,0.003229982307188905,0.003229982307188905
223.27800000000002,0.0021290087353858927,-0.0021290087353858927
223.279,0.007050993189682976,-0.007050993189682976
223.28,0.010268769480151638,-0.010268769480151638
223.281,0.010913554837205356,-0.010913554837205356
223.282,0.008773080789993665,-0.008773080789993665
223.28300000000002,0.004368097094941181,-0.004368097094941181
223.28400000000002,0.00118053566703085,0.00118053566703085
223.285,0.0064581362729410905,0.0064581362729410905
223.286,0.010146571462653119,0.010146571462653119
223.287,0.011383612216988689,0.011383612216988689
223.288,0.009985957035212843,0.009985957035212843
223.28900000000002,0.006472637967929325,0.006472637967929325
223.29000000000002,0.0018863923915124862,0.0018863923915124862
223.291,0.0025288458198539617,-0.0025288458198539617
223.292,0.005694556540156758,-0.005694556540156758
223.293,0.006998204442652478,-0.006998204442652478
223.294,0.006440853891428908,-0.006440853891428908
223.29500000000002,0.0045936448940607265,-0.0045936448940607265
223.29600000000002,0.0023835897137730253,-0.0023835897137730253
223.297,0.0007796573251248567,-0.0007796573251248567
223.298,0.0004776122739143497,-0.0004776122739143497
223.299,0.001679226396899737,-0.001679226396899737
223.3,0.004030325179424665,-0.004030325179424665
223.30100000000002,0.006732994542619462,-0.006732994542619462
223.30200000000002,0.008795278164777893,-0.008795278164777893
223.303,0.00934205521389232,-0.00934205521389232
223.304,0.007894406245037304,-0.007894406245037304
223.305,0.00453538882943298,-0.00453538882943298
223.306,8.627588563163176e-05,8.627588563163176e-05
223.30700000000002,0.004916739997177997,0.004916739997177997
223.30800000000002,0.008777928877620576,0.008777928877620576
223.309,0.010691734220988227,0.010691734220988227
223.31,0.01015847207485727,0.01015847207485727
223.311,0.007312470133690456,0.007312470133690456
223.312,0.0029098186395883512,0.0029098186395883512
223.31300000000002,0.0018527625290458859,-0.0018527625290458859
223.31400000000002,0.005644527885142559,-0.005644527885142559
223.315,0.007355514096384563,-0.007355514096384563
223.316,0.006407546545866546,-0.006407546545866546
223.317,0.002937779860758886,-0.002937779860758886
223.318,0.002198983378054916,0.002198983378054916
223.31900000000002,0.00761821437002413,0.00761821437002413
223.32000000000002,0.011743874966857906,0.011743874966857906
223.321,0.013215955788569102,0.013215955788569102
223.322,0.011264161383835649,0.011264161383835649
223.323,0.005948031530804778,0.005948031530804778
223.324,0.0018063835986032743,-0.0018063835986032743
223.32500000000002,0.010393150340811688,-0.010393150340811688
223.32600000000002,0.017898049888162383,-0.017898049888162383
223.327,0.022565660657788422,-0.022565660657788422
223.328,0.023242739875017945,-0.023242739875017945
223.329,0.019680015757446576,-0.019680015757446576
223.33,0.012608270586321513,-0.012608270586321513
223.33100000000002,0.003563151244080379,-0.003563151244080379
223.33200000000002,0.0054988436054987915,0.0054988436054987915
223.333,0.012692294475955618,0.012692294475955618
223.334,0.01667017774270602,0.01667017774270602
223.335,0.016939452754706888,0.016939452754706888
223.336,0.01393990216751306,0.01393990216751306
223.33700000000002,0.008868580518717703,0.008868580518717703
223.33800000000002,0.0033053895971320016,0.0033053895971320016
223.339,0.0012476228462158748,-0.0012476228462158748
223.34,0.0037771875000973585,-0.0037771875000973585
223.341,0.004001596805758085,-0.004001596805758085
223.342,0.002380631963334451,-0.002380631963334451
223.34300000000002,9.90793489171569e-05,9.90793489171569e-05
223.34400000000002,0.0022856159377816526,0.0022856159377816526
223.345,0.0032489024360250946,0.0032489024360250946
223.346,0.0025681124573103016,0.0025681124573103016
223.347,0.0004308039966035907,0.0004308039966035907
223.348,0.002479468714246,-0.002479468714246
223.34900000000002,0.0052584129893998655,-0.0052584129893998655
223.35000000000002,0.007116151340291038,-0.007116151340291038
223.351,0.007651027560610197,-0.007651027560610197
223.352,0.006964935342243104,-0.006964935342243104
223.353,0.005581367076012439,-0.005581367076012439
223.354,0.004199785457205276,-0.004199785457205276
223.35500000000002,0.0033810074829750555,-0.0033810074829750555
223.35600000000002,0.0032860957162409747,-0.0032860957162409747
223.357,0.003574976233429778,-0.003574976233429778
223.358,0.0035150905900838514,-0.0035150905900838514
223.359,0.0022734358990598664,-0.0022734358990598664
223.36,0.0007059393069241318,0.0007059393069241318
223.36100000000002,0.005376763093092853,0.005376763093092853
223.36200000000002,0.010948066952581726,0.010948066952581726
223.363,0.01600015874488686,0.01600015874488686
223.364,0.01884942479706007,0.01884942479706007
223.365,0.01806415543649106,0.01806415543649106
223.366,0.012972783544075163,0.012972783544075163
223.36700000000002,0.003994779589439283,0.003994779589439283
223.36800000000002,0.0073305771737616834,-0.0073305771737616834
223.369,0.01865335558657428,-0.01865335558657428
223.37,0.027390185572283864,-0.027390185572283864
223.371,0.03141114816030736,-0.03141114816030736
223.372,0.029636022643521488,-0.029636022643521488
223.37300000000002,0.02235929090185003,-0.02235929090185003
223.374,0.01120016046077654,-0.01120016046077654
223.375,0.0013152003204638053,0.0013152003204638053
223.376,0.01242145722309378,0.01242145722309378
223.377,0.01983876915908224,0.01983876915908224
223.37800000000001,0.022344779450557337,0.022344779450557337
223.37900000000002,0.02003228790151407,0.02003228790151407
223.38,0.01418786421773334,0.01418786421773334
223.381,0.00684188275164319,0.00684188275164319
223.382,0.00013769231362702915,0.00013769231362702915
223.383,0.0042832683692307924,-0.0042832683692307924
223.38400000000001,0.005697013193010204,-0.005697013193010204
223.38500000000002,0.0043999168349672935,-0.0043999168349672935
223.386,0.001488672992892435,-0.001488672992892435
223.387,0.0015909508124260674,0.0015909508124260674
223.388,0.0035662838825505,0.0035662838825505
223.389,0.0037564551888982153,0.0037564551888982153
223.39000000000001,0.0022561776996140315,0.0022561776996140315
223.39100000000002,0.00016284000549645052,-0.00016284000549645052
223.392,0.0023841823738793705,-0.0023841823738793705
223.393,0.0033877939883144195,-0.0033877939883144195
223.394,0.0026430122808599023,-0.0026430122808599023
223.395,0.0003183168485169451,-0.0003183168485169451
223.39600000000002,0.0027612916383912265,0.0027612916383912265
223.39700000000002,0.005390979076050078,0.005390979076050078
223.398,0.006399632731315452,0.006399632731315452
223.399,0.005058720961716799,0.005058720961716799
223.4,0.001348878310382133,0.001348878310382133
223.401,0.004003680309130495,-0.004003680309130495
223.40200000000002,0.009731171647149399,-0.009731171647149399
223.40300000000002,0.01439983797047617,-0.01439983797047617
223.404,0.016833909896205507,-0.016833909896205507
223.405,0.016452283176640308,-0.016452283176640308
223.406,0.013414515660543809,-0.013414515660543809
223.407,0.00853762176857474,-0.00853762176857474
223.40800000000002,0.0030201673192857214,-0.0030201673192857214
223.40900000000002,0.0019296653561026392,0.0019296653561026392
223.41,0.005439247054021927,0.005439247054021927
223.411,0.007182232136360957,0.007182232136360957
223.412,0.007396825394595083,0.007396825394595083
223.413,0.006719864063578543,0.006719864063578543
223.41400000000002,0.005905291146832635,0.005905291146832635
223.41500000000002,0.005530165417605706,0.005530165417605706
223.416,0.005789847780031155,0.005789847780031155
223.417,0.006448511456211214,0.006448511456211214
223.418,0.006954960686822561,0.006954960686822561
223.419,0.0066765552126872175,0.0066765552126872175
223.42000000000002,0.005164999834592079,0.005164999834592079
223.42100000000002,0.0023592142598131745,0.0023592142598131745
223.422,0.0013458514326545783,-0.0013458514326545783
223.423,0.005188802175775632,-0.005188802175775632
223.424,0.008260555414197209,-0.008260555414197209
223.425,0.009780604003206527,-0.009780604003206527
223.42600000000002,0.00934133683819176,-0.00934133683819176
223.42700000000002,0.007042720408979918,-0.007042720408979918
223.428,0.0034759693860061977,-0.0034759693860061977
223.429,0.0004369561801659528,0.0004369561801659528
223.43,0.003696994793132282,0.003696994793132282
223.431,0.0054973440495030374,0.0054973440495030374
223.43200000000002,0.00542987108898425,0.00542987108898425
223.43300000000002,0.0035727467397137945,0.0035727467397137945
223.434,0.00044179465708349104,0.00044179465708349104
223.435,0.003171045446461537,-0.003171045446461537
223.436,0.006417999176095631,-0.006417999176095631
223.437,0.008608344012455946,-0.008608344012455946
223.43800000000002,0.009356518932459024,-0.009356518932459024
223.43900000000002,0.008632948666317367,-0.008632948666317367
223.44,0.006716838960137709,-0.006716838960137709
223.441,0.00407840168515579,-0.00407840168515579
223.442,0.0012343711875439946,-0.0012343711875439946
223.443,0.0013783480047541293,0.0013783480047541293
223.44400000000002,0.0034788508825580795,0.0034788508825580795
223.44500000000002,0.004956902299548063,0.004956902299548063
223.446,0.005835833496004073,0.005835833496004073
223.447,0.006207971173217161,0.006207971173217161
223.448,0.0061712213029380255,0.0061712213029380255
223.449,0.005789523878845022,0.005789523878845022
223.45000000000002,0.005087166612277037,0.005087166612277037
223.45100000000002,0.004072610281775579,0.004072610281775579
223.452,0.0027766130711998982,0.0027766130711998982
223.453,0.0012853199356027303,0.0012853199356027303
223.454,0.0002477782575546526,-0.0002477782575546526
223.455,0.0016184180011439052,-0.0016184180011439052
223.45600000000002,0.0026133981321441856,-0.0026133981321441856
223.45700000000002,0.003065456716180325,-0.003065456716180325
223.458,0.0029044515832806796,-0.0029044515832806796
223.459,0.0021890071712467344,-0.0021890071712467344
223.46,0.0011083241817541742,-0.0011083241817541742
223.461,4.802958505775619e-05,4.802958505775619e-05
223.46200000000002,0.0009463035303323757,0.0009463035303323757
223.46300000000002,0.0012784794973698676,0.0012784794973698676
223.464,0.0008307512816959829,0.0008307512816959829
223.465,0.0004640019240539179,-0.0004640019240539179
223.466,0.0025007848462926838,-0.0025007848462926838
223.467,0.005009708317075046,-0.005009708317075046
223.46800000000002,0.007595310095253778,-0.007595310095253778
223.46900000000002,0.00980155791924326,-0.00980155791924326
223.47,0.011191405626405502,-0.011191405626405502
223.471,0.011426875362034482,-0.011426875362034482
223.472,0.010335046966779853,-0.010335046966779853
223.473,0.007947304319378455,-0.007947304319378455
223.47400000000002,0.004503608681438808,-0.004503608681438808
223.47500000000002,0.0004198447235495021,-0.0004198447235495021
223.476,0.00377668660560837,0.00377668660560837
223.477,0.007532223397303918,0.007532223397303918
223.478,0.010356372362681025,0.010356372362681025
223.479,0.011900288745780056,0.011900288745780056
223.48000000000002,0.012009243946161591,0.012009243946161591
223.48100000000002,0.010741072470838877,0.010741072470838877
223.482,0.008348954733882573,0.008348954733882573
223.483,0.0052337321751973614,0.0052337321751973614
223.484,0.001875914647256515,0.001875914647256515
223.485,0.0012401720362567304,-0.0012401720362567304
223.48600000000002,0.0036980621380216733,-0.0036980621380216733
223.48700000000002,0.005206980629815882,-0.005206980629815882
223.488,0.00563935825336311,-0.00563935825336311
223.489,0.0050445904173389055,-0.0050445904173389055
223.49,0.0036379839226482065,-0.0036379839226482065
223.491,0.0017657474583297305,-0.0017657474583297305
223.49200000000002,0.00015107307708683322,0.00015107307708683322
223.49300000000002,0.0016880564059564877,0.0016880564059564877
223.494,0.002495081186580216,0.002495081186580216
223.495,0.0023674843886868275,0.0023674843886868275
223.496,0.001295852081511618,0.001295852081511618
223.497,0.000519462888853454,-0.000519462888853454
223.49800000000002,0.0026979107032818928,-0.0026979107032818928
223.499,0.004752149752398752,-0.004752149752398752
223.5,0.006193734627778534,-0.006193734627778534
223.501,0.006649048671393801,-0.006649048671393801
223.502,0.005957283843740296,-0.005957283843740296
223.50300000000001,0.004223224050663411,-0.004223224050663411
223.50400000000002,0.0018065842990670257,-0.0018065842990670257
223.505,0.0007548607454065922,0.0007548607454065922
223.506,0.0028730413377099366,0.0028730413377099366
223.507,0.00405745281653295,0.00405745281653295
223.508,0.004044394651923687,0.004044394651923687
223.50900000000001,0.0028715697886540184,0.0028715697886540184
223.51000000000002,0.0008753336225238877,0.0008753336225238877
223.511,0.001391506642130187,-0.001391506642130187
223.512,0.003301292816806948,-0.003301292816806948
223.513,0.004315310531568645,-0.004315310531568645
223.514,0.004125667329959381,-0.004125667329959381
223.51500000000001,0.0027367779825574604,-0.0027367779825574604
223.51600000000002,0.00046466782314174133,-0.00046466782314174133
223.517,0.0021448211085491825,0.0021448211085491825
223.518,0.004455532181959012,0.004455532181959012
223.519,0.005899624641177849,0.005899624641177849
223.52,0.006112966084042204,0.006112966084042204
223.52100000000002,0.005013274309660727,0.005013274309660727
223.52200000000002,0.002804522510645632,0.002804522510645632
223.523,8.780579004682889e-05,-8.780579004682889e-05
223.524,0.0031278273937605885,-0.0031278273937605885
223.525,0.005793783914739475,-0.005793783914739475
223.526,0.007683226769472509,-0.007683226769472509
223.52700000000002,0.008575620013592428,-0.008575620013592428
223.52800000000002,0.00844407607489326,-0.00844407607489326
223.529,0.007423135503909283,-0.007423135503909283
223.53,0.005750202419823316,-0.005750202419823316
223.531,0.003701721220429603,-0.003701721220429603
223.532,0.0015414278245355097,-0.0015414278245355097
223.53300000000002,0.000510511699375533,0.000510511699375533
223.53400000000002,0.002288150938686244,0.002288150938686244
223.535,0.003677697039884467,0.003677697039884467
223.536,0.0046122248739361126,0.0046122248739361126
223.537,0.005069853854878159,0.005069853854878159
223.538,0.005076407333241033,0.005076407333241033
223.53900000000002,0.004708052276798784,0.004708052276798784
223.54000000000002,0.004086763205243147,0.004086763205243147
223.541,0.003363015746193503,0.003363015746193503
223.542,0.0026853291678173843,0.0026853291678173843
223.543,0.0021629262172888583,0.0021629262172888583
223.544,0.0018329089741623752,0.0018329089741623752
223.54500000000002,0.0016444845686047274,0.0016444845686047274
223.54600000000002,0.0014689435857910365,0.0014689435857910365
223.547,0.0011362756911196135,0.0011362756911196135
223.548,0.0004901181456298817,0.0004901181456298817
223.549,0.0005545210964711656,-0.0005545210964711656
223.55,0.001968874060087431,-0.001968874060087431
223.55100000000002,0.0035981184037180394,-0.0035981184037180394
223.55200000000002,0.005185543466501924,-0.005185543466501924
223.553,0.006428711923616074,-0.006428711923616074
223.554,0.007053359125253952,-0.007053359125253952
223.555,0.006885144195030663,-0.006885144195030663
223.556,0.005899635385334337,-0.005899635385334337
223.55700000000002,0.004236876570612905,-0.004236876570612905
223.55800000000002,0.0021765617241442025,-0.0021765617241442025
223.559,8.022869305274869e-05,-8.022869305274869e-05
223.56,0.0016850244711966874,0.0016850244711966874
223.561,0.002823031308139951,0.002823031308139951
223.562,0.003168089831228156,0.003168089831228156
223.56300000000002,0.0027154307023308575,0.0027154307023308575
223.56400000000002,0.0016176972350229822,0.0016176972350229822
223.565,0.00014979979577046433,0.00014979979577046433
223.566,0.0013496434972914016,-0.0013496434972914016
223.567,0.002548396906937463,-0.002548396906937463
223.568,0.0031888785783760515,-0.0031888785783760515
223.56900000000002,0.0031416798153810384,-0.0031416798153810384
223.57000000000002,0.0024334350971627504,-0.0024334350971627504
223.571,0.0012418030557821889,-0.0012418030557821889
223.572,0.00014427365636970462,0.00014427365636970462
223.573,0.0013938485738964512,0.0013938485738964512
223.574,0.0022198587492833653,0.0022198587492833653
223.57500000000002,0.002461974749997694,0.002461974749997694
223.57600000000002,0.00214350489210947,0.00214350489210947
223.577,0.001481885288150313,0.001481885288150313
223.578,0.0008414950461039042,0.0008414950461039042
223.579,0.0006324941062610654,0.0006324941062610654
223.58,0.0011767041361558763,0.0011767041361558763
223.58100000000002,0.0025760862156838497,0.0025760862156838497
223.58200000000002,0.0046256447525691476,0.0046256447525691476
223.583,0.0068067440456016275,0.0068067440456016275
223.584,0.008378341178063034,0.008378341178063034
223.585,0.008556185547631608,0.008556185547631608
223.586,0.006740962478965807,0.006740962478965807
223.58700000000002,0.002734795368905906,0.002734795368905906
223.58800000000002,0.003120451559479666,-0.003120451559479666
223.589,0.009935852364088558,-0.009935852364088558
223.59,0.016420024504066783,-0.016420024504066783
223.591,0.021154407193993655,-0.021154407193993655
223.592,0.022937303270454214,-0.022937303270454214
223.59300000000002,0.02110833337319401,-0.02110833337319401
223.59400000000002,0.015762166493412458,-0.015762166493412458
223.595,0.007784157117960394,-0.007784157117960394
223.596,0.0013142694428817595,0.0013142694428817595
223.597,0.009728061582609741,0.009728061582609741
223.598,0.01577814626680143,0.01577814626680143
223.59900000000002,0.018310228235189508,0.018310228235189508
223.60000000000002,0.01696739200154333,0.01696739200154333
223.601,0.012263765526126586,0.012263765526126586
223.602,0.005440348705814874,0.005440348705814874
223.603,0.001856329060524161,-0.001856329060524161
223.604,0.007984207389550383,-0.007984207389550383
223.60500000000002,0.011693713432683096,-0.011693713432683096
223.60600000000002,0.012393018028013637,-0.012393018028013637
223.607,0.010228097314662732,-0.010228097314662732
223.608,0.005969929173112656,-0.005969929173112656
223.609,0.0007554803231911393,-0.0007554803231911393
223.61,0.004233238142983298,0.004233238142983298
223.61100000000002,0.008057442991485425,0.008057442991485425
223.61200000000002,0.01020124812890136,0.01020124812890136
223.613,0.010606996645817922,0.010606996645817922
223.614,0.009578275231028228,0.009578275231028228
223.615,0.0076022283225231435,0.0076022283225231435
223.616,0.005161965741717096,0.005161965741717096
223.61700000000002,0.0026037128307150226,0.0026037128307150226
223.61800000000002,9.570716358611098e-05,9.570716358611098e-05
223.619,0.002322368941066415,-0.002322368941066415
223.62,0.004635350430693834,-0.004635350430693834
223.621,0.0067488430175779365,-0.0067488430175779365
223.622,0.008437633702733812,-0.008437633702733812
223.62300000000002,0.009374898838021542,-0.009374898838021542
223.624,0.009236486577271993,-0.009236486577271993
223.625,0.007842033078548317,-0.007842033078548317
223.626,0.005276254106709888,-0.005276254106709888
223.627,0.0019365901003162034,-0.0019365901003162034
223.62800000000001,0.0015230270686479317,0.0015230270686479317
223.62900000000002,0.004346189136743175,0.004346189136743175
223.63,0.00588339713920462,0.00588339713920462
223.631,0.005791143468887436,0.005791143468887436
223.632,0.004153551973780596,0.004153551973780596
223.633,0.0014811123998122893,0.0014811123998122893
223.63400000000001,0.0014207871068383387,-0.0014207871068383387
223.63500000000002,0.003678627393336659,-0.003678627393336659
223.636,0.004605790308041604,-0.004605790308041604
223.637,0.003907711045498498,-0.003907711045498498
223.638,0.0017730067064377995,-0.0017730067064377995
223.639,0.001178676953503907,0.001178676953503907
223.64000000000001,0.00407676128275788,0.00407676128275788
223.64100000000002,0.006052561321205905,0.006052561321205905
223.642,0.006487400164993828,0.006487400164993828
223.643,0.005181103703233248,0.005181103703233248
223.644,0.002392272304912145,0.002392272304912145
223.645,0.0012569565848871635,-0.0012569565848871635
223.64600000000002,0.004976188973016272,-0.004976188973016272
223.64700000000002,0.00803634266209882,-0.00803634266209882
223.648,0.009959563650737085,-0.009959563650737085
223.649,0.010611729252156648,-0.010611729252156648
223.65,0.010174526209775199,-0.010174526209775199
223.651,0.009015564869700139,-0.009015564869700139
223.65200000000002,0.007509250835881408,-0.007509250835881408
223.65300000000002,0.005876779751669348,-0.005876779751669348
223.654,0.0041055242450150214,-0.0041055242450150214
223.655,0.001979054776412571,-0.001979054776412571
223.656,0.0007911345416785177,0.0007911345416785177
223.657,0.004378909466232391,0.004378909466232391
223.65800000000002,0.00867107616907243,0.00867107616907243
223.65900000000002,0.013177984721261119,0.013177984721261119
223.66,0.017071770305686195,0.017071770305686195
223.661,0.019356463135417952,0.019356463135417952
223.662,0.01913022451010021,0.01913022451010021
223.663,0.015866483037202003,0.015866483037202003
223.66400000000002,0.009628773785799382,0.009628773785799382
223.66500000000002,0.0011480927269863956,0.0011480927269863956
223.666,0.008271963812627306,-0.008271963812627306
223.667,0.017008599383702833,-0.017008599383702833
223.668,0.02347201365710265,-0.02347201365710265
223.669,0.026466659465801578,-0.026466659465801578
223.67000000000002,0.0254669554859772,-0.0254669554859772
223.67100000000002,0.020734742374976342,-0.020734742374976342
223.672,0.013248198253424123,-0.013248198253424123
223.673,0.004462685115399035,-0.004462685115399035
223.674,0.004031457955810668,0.004031457955810668
223.675,0.01086340255334566,0.01086340255334566
223.67600000000002,0.015157818501710163,0.015157818501710163
223.67700000000002,0.016666717362049742,0.016666717362049742
223.678,0.01573394363679544,0.01573394363679544
223.679,0.013116181847014893,0.013116181847014893
223.68,0.009722403354716814,0.009722403354716814
223.681,0.006352071801884619,0.006352071801884619
223.68200000000002,0.003506596678967863,0.003506596678967863
223.68300000000002,0.0013211821357919035,0.0013211821357919035
223.684,0.0003756312532558967,-0.0003756312532558967
223.685,0.0019073226272850476,-0.0019073226272850476
223.686,0.003560048696702748,-0.003560048696702748
223.687,0.005426627559723605,-0.005426627559723605
223.68800000000002,0.007337566750762535,-0.007337566750762535
223.68900000000002,0.008901692247133521,-0.008901692247133521
223.69,0.009641140622301697,-0.009641140622301697
223.691,0.009173209965963812,-0.009173209965963812
223.692,0.0073751362708080375,-0.0073751362708080375
223.693,0.004472522402187079,-0.004472522402187079
223.69400000000002,0.0010164509578337476,-0.0010164509578337476
223.69500000000002,0.002249444372441942,0.002249444372441942
223.696,0.0045940639493955325,0.0045940639493955325
223.697,0.005513041706629053,0.005513041706629053
223.698,0.004883648462677574,0.004883648462677574
223.699,0.0030085738829578206,0.0030085738829578206
223.70000000000002,0.0005305124026410518,0.0005305124026410518
223.70100000000002,0.0017599579197039997,-0.0017599579197039997
223.702,0.003166085937254118,-0.003166085937254118
223.703,0.0033016008443890466,-0.0033016008443890466
223.704,0.0022132565473341284,-0.0022132565473341284
223.705,0.0003678033428570062,-0.0003678033428570062
223.70600000000002,0.0014965805277055851,0.0014965805277055851
223.70700000000002,0.0026116172628361982,0.0026116172628361982
223.708,0.0024395979240253835,0.0024395979240253835
223.709,0.0008713372728523961,0.0008713372728523961
223.71,0.0017039904585413586,-0.0017039904585413586
223.711,0.004485108050567353,-0.004485108050567353
223.71200000000002,0.006481762209529808,-0.006481762209529808
223.71300000000002,0.0068127906091788515,-0.0068127906091788515
223.714,0.004992112326514206,-0.004992112326514206
223.715,0.0011161333339371805,-0.0011161333339371805
223.716,0.004107525720681446,0.004107525720681446
223.717,0.009505260466419826,0.009505260466419826
223.71800000000002,0.013721847952533372,0.013721847952533372
223.71900000000002,0.015568473035863338,0.015568473035863338
223.72,0.014339712015269469,0.014339712015269469
223.721,0.010012552533669429,0.010012552533669429
223.722,0.0032729389973050597,0.0032729389973050597
223.723,0.0046371952617954085,-0.0046371952617954085
223.72400000000002,0.012210709105682347,-0.012210709105682347
223.72500000000002,0.01802600920543016,-0.01802600920543016
223.726,0.02106626166709093,-0.02106626166709093
223.727,0.02092740327135601,-0.02092740327135601
223.728,0.017868343207407055,-0.017868343207407055
223.729,0.012700752853883491,-0.012700752853883491
223.73000000000002,0.006557955405653074,-0.006557955405653074
223.73100000000002,0.0006110399969696604,-0.0006110399969696604
223.732,0.004191626713485802,0.004191626713485802
223.733,0.007298576535076279,0.007298576535076279
223.734,0.008609371188173702,0.008609371188173702
223.735,0.008410552451383549,0.008410552451383549
223.73600000000002,0.007226712495217208,0.007226712495217208
223.73700000000002,0.0056387989228537825,0.0056387989228537825
223.738,0.004123883224194198,0.004123883224194198
223.739,0.0029571645221523227,0.0029571645221523227
223.74,0.0021934826852808317,0.0021934826852808317
223.741,0.0017199779880641992,0.0017199779880641992
223.74200000000002,0.0013514862908997416,0.0013514862908997416
223.74300000000002,0.0009310980455337002,0.0009310980455337002
223.744,0.000401586239496116,0.000401586239496116
223.745,0.0001731612047238944,-0.0001731612047238944
223.746,0.0006390515979262882,-0.0006390515979262882
223.747,0.0008198709534091048,-0.0008198709534091048
223.74800000000002,0.0005960848634000654,-0.0005960848634000654
223.749,3.423092338195934e-05,3.423092338195934e-05
223.75,0.0009339118040692051,0.0009339118040692051
223.751,0.0018528140638166405,0.0018528140638166405
223.752,0.002494158410481561,0.002494158410481561
223.75300000000001,0.002600933813677735,0.002600933813677735
223.75400000000002,0.002035746378555535,0.002035746378555535
223.755,0.0008291618427651177,0.0008291618427651177
223.756,0.0008192610477394238,-0.0008192610477394238
223.757,0.002589126223598927,-0.002589126223598927
223.758,0.004123744434715334,-0.004123744434715334
223.75900000000001,0.005127056604462754,-0.005127056604462754
223.76000000000002,0.005444500954072583,-0.005444500954072583
223.761,0.0051032310769826405,-0.0051032310769826405
223.762,0.004298406291467299,-0.004298406291467299
223.763,0.0033280959943738832,-0.0033280959943738832
223.764,0.0024952325152928223,-0.0024952325152928223
223.76500000000001,0.0020062625997240204,-0.0020062625997240204
223.76600000000002,0.0018989653099120425,-0.0018989653099120425
223.767,0.0020248160956623552,-0.0020248160956623552
223.768,0.002095651943645626,-0.002095651943645626
223.769,0.0017843534295867377,-0.0017843534295867377
223.77,0.0008507037111217909,-0.0008507037111217909
223.77100000000002,0.0007474629617826314,0.0007474629617826314
223.77200000000002,0.002796983720802278,0.002796983720802278
223.773,0.004851665231016931,0.004851665231016931
223.774,0.006336705748285507,0.006336705748285507
223.775,0.006711400402510729,0.006711400402510729
223.776,0.005644847479745734,0.005644847479745734
223.77700000000002,0.003150287581280022,0.003150287581280022
223.77800000000002,0.00036888387816211147,-0.00036888387816211147
223.779,0.004185297530384724,-0.004185297530384724
223.78,0.007417044174824063,-0.007417044174824063
223.781,0.009258553031653316,-0.009258553031653316
223.782,0.009208669964936826,-0.009208669964936826
223.78300000000002,0.007227663152782941,-0.007227663152782941
223.78400000000002,0.003771897395491156,-0.003771897395491156
223.785,0.00031099403816629655,0.00031099403816629655
223.786,0.0040021903959048125,0.0040021903959048125
223.787,0.006386721840694395,0.006386721840694395
223.788,0.006904196506086685,0.006904196506086685
223.78900000000002,0.005500844709612081,0.005500844709612081
223.79000000000002,0.002636689545130892,0.002636689545130892
223.791,0.0008550189580197472,-0.0008550189580197472
223.792,0.004013838454647538,-0.004013838454647538
223.793,0.006028807076939429,-0.006028807076939429
223.794,0.006461622342245303,-0.006461622342245303
223.79500000000002,0.00534951882402564,-0.00534951882402564
223.79600000000002,0.0031596973704529218,-0.0031596973704529218
223.797,0.0006147465721748038,-0.0006147465721748038
223.798,0.0015505312651176275,0.0015505312651176275
223.799,0.0028196566093825178,0.0028196566093825178
223.8,0.0030374022995276204,0.0030374022995276204
223.80100000000002,0.00242137805780546,0.00242137805780546
223.80200000000002,0.0014441495793957294,0.0014441495793957294
223.803,0.0006322275163897108,0.0006322275163897108
223.804,0.00035630399430176585,0.00035630399430176585
223.805,0.0006890440464722713,0.0006890440464722713
223.806,0.0013818303264968522,0.0013818303264968522
223.80700000000002,0.001968721557893012,0.001968721557893012
223.80800000000002,0.001959584130464765,0.001959584130464765
223.809,0.0010512346480212112,0.0010512346480212112
223.81,0.0007225999919240545,-0.0007225999919240545
223.811,0.0029614076278314566,-0.0029614076278314566
223.812,0.005005108965920543,-0.005005108965920543
223.81300000000002,0.006146340867819992,-0.006146340867819992
223.81400000000002,0.005876840995063669,-0.005876840995063669
223.815,0.004082128913728437,-0.004082128913728437
223.816,0.0011136988704576899,-0.0011136988704576899
223.817,0.0022918070286234754,0.0022918070286234754
223.818,0.0052250547006953765,0.0052250547006953765
223.81900000000002,0.006881003126834572,0.006881003126834572
223.82000000000002,0.006809813331455198,0.006809813331455198
223.821,0.005058252998112873,0.005058252998112873
223.822,0.0021539360740246384,0.0021539360740246384
223.823,0.0010629478163127577,-0.0010629478163127577
223.824,0.003704775688546215,-0.003704775688546215
223.82500000000002,0.005110734871887201,-0.005110734871887201
223.82600000000002,0.005040163491506436,-0.005040163491506436
223.827,0.003723341295956313,-0.003723341295956313
223.828,0.0017571168910811986,-0.0017571168910811986
223.829,0.00011459966135271545,0.00011459966135271545
223.83,0.001257423111194855,0.001257423111194855
223.83100000000002,0.0013516865193873373,0.0013516865193873373
223.83200000000002,0.000478186692807339,0.000478186692807339
223.833,0.0009399558490384942,-0.0009399558490384942
223.834,0.002312654010650207,-0.002312654010650207
223.835,0.0031083341008913056,-0.0031083341008913056
223.836,0.0030468411988650566,-0.0030468411988650566
223.83700000000002,0.0021913976614016365,-0.0021913976614016365
223.83800000000002,0.0009098129676558516,-0.0009098129676558516
223.839,0.0002763806112797292,0.0002763806112797292
223.84,0.0008955618704069182,0.0008955618704069182
223.841,0.0007050426116008244,0.0007050426116008244
223.842,0.00022109690338585354,-0.00022109690338585354
223.84300000000002,0.0015265604422630818,-0.0015265604422630818
223.84400000000002,0.0027143834083313946,-0.0027143834083313946
223.845,0.00333971261932197,-0.00333971261932197
223.846,0.0031790124888017002,-0.0031790124888017002
223.847,0.0023103352600896783,-0.0023103352600896783
223.848,0.0010737392359764166,-0.0010737392359764166
223.84900000000002,7.251677343775276e-05,7.251677343775276e-05
223.85000000000002,0.0007433327776380123,0.0007433327776380123
223.851,0.0007892422886633561,0.0007892422886633561
223.852,0.0003630732983307902,0.0003630732983307902
223.853,0.0001402541022400069,-0.0001402541022400069
223.854,0.0002525592542638323,-0.0002525592542638323
223.85500000000002,0.0003526484785633567,0.0003526484785633567
223.85600000000002,0.0016837586473096844,0.0016837586473096844
223.857,0.003368469880568812,0.003368469880568812
223.858,0.004741467230114573,0.004741467230114573
223.859,0.005063667281941829,0.005063667281941829
223.86,0.003802639137819936,0.003802639137819936
223.86100000000002,0.0008749177963528184,0.0008749177963528184
223.86200000000002,0.003243322669263005,-0.003243322669263005
223.863,0.007590622214951627,-0.007590622214951627
223.864,0.010971140981677318,-0.010971140981677318
223.865,0.012311070958351171,-0.012311070958351171
223.866,0.011008306657848708,-0.011008306657848708
223.86700000000002,0.007158673680272839,-0.007158673680272839
223.86800000000002,0.0015773180389492326,-0.0015773180389492326
223.869,0.004401821751013133,0.004401821751013133
223.87,0.009293295068095663,0.009293295068095663
223.871,0.011883170944988081,0.011883170944988081
223.872,0.011576588661316596,0.011576588661316596
223.87300000000002,0.008561322927907494,0.008561322927907494
223.874,0.00373737464281761,0.00373737464281761
223.875,0.0015624740453755379,-0.0015624740453755379
223.876,0.00596986931467836,-0.00596986931467836
223.877,0.008468942881993775,-0.008468942881993775
223.87800000000001,0.008654947371974642,-0.008654947371974642
223.87900000000002,0.006789316344159839,-0.006789316344159839
223.88,0.003646369109762198,-0.003646369109762198
223.881,0.0002155879891408004,-0.0002155879891408004
223.882,0.0026318859718531397,0.0026318859718531397
223.883,0.004397837666030238,0.004397837666030238
223.88400000000001,0.005051598001759484,0.005051598001759484
223.88500000000002,0.004944258705969964,0.004944258705969964
223.886,0.0045876584938232805,0.0045876584938232805
223.887,0.004390645695395807,0.004390645695395807
223.888,0.00445770134579099,0.00445770134579099
223.889,0.004528940499305926,0.004528940499305926
223.89000000000001,0.004085711190873938,0.004085711190873938
223.89100000000002,0.0025825600435376694,0.0025825600435376694
223.892,0.0002827301575152032,-0.0002827301575152032
223.893,0.004366210893679599,-0.004366210893679599
223.894,0.009025588399364449,-0.009025588399364449
223.895,0.013249957009254201,-0.013249957009254201
223.89600000000002,0.01593771040129238,-0.01593771040129238
223.89700000000002,0.016234567413000958,-0.016234567413000958
223.898,0.013819218377893303,-0.013819218377893303
223.899,0.009038431257459264,-0.009038431257459264
223.9,0.0028418656258065444,-0.0028418656258065444
223.901,0.0034672379524304563,0.0034672379524304563
223.90200000000002,0.00858850845243846,0.00858850845243846
223.90300000000002,0.0115760955754171,0.0115760955754171
223.904,0.01207620851472456,0.01207620851472456
223.905,0.010380141881305316,0.010380141881305316
223.906,0.007283881761316082,0.007283881761316082
223.907,0.0038082482334492306,0.0038082482334492306
223.90800000000002,0.0008764899977908092,0.0008764899977908092
223.90900000000002,0.0009446917288532692,-0.0009446917288532692
223.91,0.0015615785158532422,-0.0015615785158532422
223.911,0.0013006395837058852,-0.0013006395837058852
223.912,0.0007189116567089922,-0.0007189116567089922
223.913,0.0003551017119820493,-0.0003551017119820493
223.91400000000002,0.0005150072316550471,-0.0005150072316550471
223.91500000000002,0.0011672790520396415,-0.0011672790520396415
223.916,0.001981765293280264,-0.001981765293280264
223.917,0.0024890712296075186,-0.0024890712296075186
223.918,0.0022959361948176656,-0.0022959361948176656
223.919,0.0012720161735749254,-0.0012720161735749254
223.92000000000002,0.0003641822045624784,0.0003641822045624784
223.92100000000002,0.00209425094324303,0.00209425094324303
223.922,0.003267749066940638,0.003267749066940638
223.923,0.003329422683849928,0.003329422683849928
223.924,0.002024519741787086,0.002024519741787086
223.925,0.00049143353270905,-0.00049143353270905
223.92600000000002,0.0036782690081389015,-0.0036782690081389015
223.92700000000002,0.006764614648681665,-0.006764614648681665
223.928,0.008977345477644684,-0.008977345477644684
223.929,0.009769906349079255,-0.009769906349079255
223.93,0.008974361135950583,-0.008974361135950583
223.931,0.0068300260949586645,-0.0068300260949586645
223.93200000000002,0.0038850500818645326,-0.0038850500818645326
223.93300000000002,0.0008105846145429928,-0.0008105846145429928
223.934,0.001804990029535885,0.001804990029535885
223.935,0.0036112786619025223,0.0036112786619025223
223.936,0.004552009274914133,0.004552009274914133
223.937,0.004811881283481167,0.004811881283481167
223.93800000000002,0.004684192457724398,0.004684192457724398
223.93900000000002,0.004416902634782567,0.004416902634782567
223.94,0.004099966600294773,0.004099966600294773
223.941,0.003638170916851001,0.003638170916851001
223.942,0.002818692439339658,0.002818692439339658
223.943,0.0014444241007878326,0.0014444241007878326
223.94400000000002,0.0005229234572360932,-0.0005229234572360932
223.94500000000002,0.0028717146942875836,-0.0028717146942875836
223.946,0.005145249617230574,-0.005145249617230574
223.947,0.0067514821397165956,-0.0067514821397165956
223.948,0.007146731063105803,-0.007146731063105803
223.949,0.006032501556955417,-0.006032501556955417
223.95000000000002,0.0034953302372304393,-0.0034953302372304393
223.95100000000002,3.498253539281967e-05,-3.498253539281967e-05
223.952,0.0035384393606910443,0.0035384393606910443
223.953,0.006314627413425916,0.006314627413425916
223.954,0.0075398591027772775,0.0075398591027772775
223.955,0.006842187107338066,0.006842187107338066
223.95600000000002,0.004354226664357617,0.004354226664357617
223.95700000000002,0.0006930683146498045,0.0006930683146498045
223.958,0.0031997551941076795,-0.0031997551941076795
223.959,0.006312787423653729,-0.006312787423653729
223.96,0.007839953465761168,-0.007839953465761168
223.961,0.007397556123278251,-0.007397556123278251
223.96200000000002,0.005122378965442269,-0.005122378965442269
223.96300000000002,0.0016262643316282172,-0.0016262643316282172
223.964,0.002175678838017062,0.002175678838017062
223.965,0.005311267856620652,0.005311267856620652
223.966,0.007001940694921964,0.007001940694921964
223.967,0.00685112592448079,0.00685112592448079
223.96800000000002,0.004925021465233539,0.004925021465233539
223.96900000000002,0.0017127504458836322,0.0017127504458836322
223.97,0.002014428751461212,-0.002014428751461212
223.971,0.005401219111891735,-0.005401219111891735
223.972,0.007710379254513206,-0.007710379254513206
223.973,0.008480797100888435,-0.008480797100888435
223.97400000000002,0.007610076738394685,-0.007610076738394685
223.97500000000002,0.005351748681198524,-0.005351748681198524
223.976,0.0022373896025899963,-0.0022373896025899963
223.977,0.0010519138850256188,0.0010519138850256188
223.978,0.003834041091354034,0.003834041091354034
223.979,0.005564358208126267,0.005564358208126267
223.98000000000002,0.0059400145333379575,0.0059400145333379575
223.98100000000002,0.004953683817288773,0.004953683817288773
223.982,0.002889008965667279,0.002889008965667279
223.983,0.00025867732590089955,0.00025867732590089955
223.984,0.002305132362222817,-0.002305132362222817
223.985,0.0041893938124111935,-0.0041893938124111935
223.98600000000002,0.004941759149269806,-0.004941759149269806
223.98700000000002,0.00438438251405572,-0.00438438251405572
223.988,0.0026709501866474077,-0.0026709501866474077
223.989,0.0002669461107095987,-0.0002669461107095987
223.99,0.0021503854844025444,0.0021503854844025444
223.991,0.003855226380661273,0.003855226380661273
223.99200000000002,0.004262839182190334,0.004262839182190334
223.99300000000002,0.0030969884778262995,0.0030969884778262995
223.994,0.00048701613527244315,0.00048701613527244315
223.995,0.00303854771567256,-0.00303854771567256
223.996,0.00666827696519494,-0.00666827696519494
223.997,0.009509072590471884,-0.009509072590471884
223.99800000000002,0.010820558393445073,-0.010820558393445073
223.99900000000002,0.010217593098655357,-0.010217593098655357
224.0,0.007781360335682603,-0.007781360335682603
224.001,0.00404351951892343,-0.00404351951892343
224.002,0.00015588630523571528,0.00015588630523571528
224.00300000000001,0.0038983259335302624,0.0038983259335302624
224.00400000000002,0.006438543744895914,0.006438543744895914
224.005,0.0074041029605293966,0.0074041029605293966
224.006,0.006883102771640853,0.006883102771640853
224.007,0.005373747491213027,0.005373747491213027
224.008,0.003611539199861029,0.003611539199861029
224.00900000000001,0.0023276700417952855,0.0023276700417952855
224.01000000000002,0.002013672989986055,0.002013672989986055
224.011,0.0027655178499945646,0.0027655178499945646
224.012,0.004255463429506565,0.004255463429506565
224.013,0.005839834912595432,0.005839834912595432
224.014,0.006768190694554387,0.006768190694554387
224.01500000000001,0.006427664083728558,0.006427664083728558
224.01600000000002,0.004545680353980862,0.004545680353980862
224.017,0.0012880277182625846,0.0012880277182625846
224.018,0.00277718686293558,-0.00277718686293558
224.019,0.006836768776315756,-0.006836768776315756
224.02,0.010060359245473136,-0.010060359245473136
224.02100000000002,0.011827766341822896,-0.011827766341822896
224.02200000000002,0.011886739598729752,-0.011886739598729752
224.023,0.010396384869458555,-0.010396384869458555
224.024,0.007849067057881541,-0.007849067057881541
224.025,0.004902221225308451,-0.004902221225308451
224.026,0.002178412129248016,-0.002178412129248016
224.02700000000002,9.881741913002597e-05,-9.881741913002597e-05
224.02800000000002,0.0011995184685377343,0.0011995184685377343
224.029,0.0018431490379430466,0.0018431490379430466
224.03,0.0021148918239444455,0.0021148918239444455
224.031,0.002305023174422436,0.002305023174422436
224.032,0.0025784298860442364,0.0025784298860442364
224.03300000000002,0.0029068050824593095,0.0029068050824593095
224.03400000000002,0.003089542558864454,0.003089542558864454
224.035,0.002853609365563776,0.002853609365563776
224.036,0.001993123774155184,0.001993123774155184
224.037,0.0004939736339339134,0.0004939736339339134
224.038,0.0014070209497590617,-0.0014070209497590617
224.03900000000002,0.0032565172701626336,-0.0032565172701626336
224.04000000000002,0.004507778747687023,-0.004507778747687023
224.041,0.004695403283444088,-0.004695403283444088
224.042,0.0036041158439996915,-0.0036041158439996915
224.043,0.0013727620310725996,-0.0013727620310725996
224.044,0.0015067161761993773,0.0015067161761993773
224.04500000000002,0.004302717424182545,0.004302717424182545
224.04600000000002,0.0062407992933684745,0.0062407992933684745
224.047,0.0067267085444877904,0.0067267085444877904
224.048,0.005527913538041627,0.005527913538041627
224.049,0.0028566719998841896,0.0028566719998841896
224.05,0.0006734454605185438,-0.0006734454605185438
224.05100000000002,0.00420757527176914,-0.00420757527176914
224.05200000000002,0.006880735666077072,-0.006880735666077072
224.053,0.008053098591581022,-0.008053098591581022
224.054,0.0074810344175650365,-0.0074810344175650365
224.055,0.005375019238924958,-0.005375019238924958
224.056,0.0023294523224958517,-0.0023294523224958517
224.05700000000002,0.0008526115640945091,0.0008526115640945091
224.05800000000002,0.003386451476154656,0.003386451476154656
224.059,0.00471730661726928,0.00471730661726928
224.06,0.004656218626594945,0.004656218626594945
224.061,0.003404151280972512,0.003404151280972512
224.062,0.0014628322321487,0.0014628322321487
224.06300000000002,0.0005356401533083923,-0.0005356401533083923
224.06400000000002,0.0020256648098248096,-0.0020256648098248096
224.065,0.002671331124403047,-0.002671331124403047
224.066,0.002448686002044682,-0.002448686002044682
224.067,0.0016263992621700525,-0.0016263992621700525
224.068,0.0006558398014136303,-0.0006558398014136303
224.06900000000002,8.614210783545961e-06,-8.614210783545961e-06
224.07000000000002,1.4056971003004824e-05,-1.4056971003004824e-05
224.071,0.0007471759277333927,-0.0007471759277333927
224.072,0.002000426962008479,-0.002000426962008479
224.073,0.0033461781538538815,-0.0033461781538538815
224.074,0.004269132147331867,-0.004269132147331867
224.07500000000002,0.004327553763789675,-0.004327553763789675
224.07600000000002,0.0032946372855610032,-0.0032946372855610032
224.077,0.0012384027908910874,-0.0012384027908910874
224.078,0.00148256207029142,0.00148256207029142
224.079,0.004305420365607951,0.004305420365607951
224.08,0.006606141918673204,0.006606141918673204
224.08100000000002,0.007858851138364646,0.007858851138364646
224.08200000000002,0.007767870635378246,0.007767870635378246
224.083,0.006337936883146541,0.006337936883146541
224.084,0.003866157689916307,0.003866157689916307
224.085,0.0008608890125716383,0.0008608890125716383
224.086,0.002088272661117006,-0.002088272661117006
224.08700000000002,0.004453717076166199,-0.004453717076166199
224.08800000000002,0.005889227098071627,-0.005889227098071627
224.089,0.0062968891728911154,-0.0062968891728911154
224.09,0.005828018468463189,-0.005828018468463189
224.091,0.004822170842398508,-0.004822170842398508
224.092,0.003703575693800199,-0.003703575693800199
224.09300000000002,0.00286362827128756,-0.00286362827128756
224.09400000000002,0.0025596115963309055,-0.0025596115963309055
224.095,0.0028538589786641596,-0.0028538589786641596
224.096,0.0036061912355287735,-0.0036061912355287735
224.097,0.004518823599414028,-0.004518823599414028
224.098,0.00522040244144692,-0.00522040244144692
224.09900000000002,0.0053671839089222155,-0.0053671839089222155
224.10000000000002,0.0047362589676450025,-0.0047362589676450025
224.101,0.0032884687455495263,-0.0032884687455495263
224.102,0.001186292092394892,-0.001186292092394892
224.103,0.0012373585054706571,0.0012373585054706571
224.104,0.0035521979584780265,0.0035521979584780265
224.10500000000002,0.005328698547310284,0.005328698547310284
224.10600000000002,0.006238671351984635,0.006238671351984635
224.107,0.006134802837370483,0.006134802837370483
224.108,0.005089975127219657,0.005089975127219657
224.109,0.003385930443215166,0.003385930443215166
224.11,0.0014522303395158231,0.0014522303395158231
224.11100000000002,0.00023190813400487595,-0.00023190813400487595
224.11200000000002,0.0012510734523001655,-0.0012510734523001655
224.113,0.001356012601332971,-0.001356012601332971
224.114,0.0005299176865335285,-0.0005299176865335285
224.115,0.000998810740572834,0.000998810740572834
224.116,0.002802668943489872,0.002802668943489872
224.11700000000002,0.004351341847839696,0.004351341847839696
224.11800000000002,0.005136924106755916,0.005136924106755916
224.119,0.004798913162331217,0.004798913162331217
224.12,0.0032188155625129528,0.0032188155625129528
224.121,0.0005606686828675384,0.0005606686828675384
224.122,0.002753645211158319,-0.002753645211158319
224.12300000000002,0.0061297319288649375,-0.0061297319288649375
224.12400000000002,0.0089272437288888,-0.0089272437288888
224.125,0.01059803696503742,-0.01059803696503742
224.126,0.010803449080007063,-0.010803449080007063
224.127,0.009483505850131418,-0.009483505850131418
224.12800000000001,0.006862947037034503,-0.006862947037034503
224.12900000000002,0.00339465671776874,-0.00339465671776874
224.13,0.0003437143175355852,0.0003437143175355852
224.131,0.003773385277973075,0.003773385277973075
224.132,0.00642815989856938,0.00642815989856938
224.133,0.008032250535832626,0.008032250535832626
224.13400000000001,0.00852689019229566,0.00852689019229566
224.13500000000002,0.008044396049057767,0.008044396049057767
224.136,0.006841801664156473,0.006841801664156473
224.137,0.0052155486430497805,0.0052155486430497805
224.138,0.003421761340168926,0.003421761340168926
224.139,0.0016229070258574347,0.0016229070258574347
224.14000000000001,0.00012738368414516327,-0.00012738368414516327
224.14100000000002,0.0018610997107927287,-0.0018610997107927287
224.142,0.0036447633404625766,-0.0036447633404625766
224.143,0.005518155333677424,-0.005518155333677424
224.144,0.00744242466949417,-0.00744242466949417
224.145,0.009273677598273872,-0.009273677598273872
224.14600000000002,0.01077060418249474,-0.01077060418249474
224.14700000000002,0.011635354145936807,-0.011635354145936807
224.148,0.011578207777246306,-0.011578207777246306
224.149,0.010390662911710475,-0.010390662911710475
224.15,0.008009543807925814,-0.008009543807925814
224.151,0.004556749866827075,-0.004556749866827075
224.15200000000002,0.00034450931343799843,-0.00034450931343799843
224.15300000000002,0.004156877115681677,0.004156877115681677
224.154,0.00838435716133854,0.00838435716133854
224.155,0.011769636853030363,0.011769636853030363
224.156,0.013833616961810864,0.013833616961810864
224.157,0.014270757042537507,0.014270757042537507
224.15800000000002,0.013007507753820535,0.013007507753820535
224.15900000000002,0.01022286006382289,0.01022286006382289
224.16,0.006325295807224395,0.006325295807224395
224.161,0.0018881814854435955,0.0018881814854435955
224.162,0.002446266508381943,-0.002446266508381943
224.163,0.006077410051740717,-0.006077410051740717
224.16400000000002,0.008549850985900794,-0.008549850985900794
224.16500000000002,0.009629152870680835,-0.009629152870680835
224.166,0.009333162723366708,-0.009333162723366708
224.167,0.007911452446849291,-0.007911452446849291
224.168,0.005776981045576613,-0.005776981045576613
224.169,0.003405616692243806,-0.003405616692243806
224.17000000000002,0.001227613965268712,-0.001227613965268712
224.17100000000002,0.0004620842039271985,0.0004620842039271985
224.172,0.0015520757479695602,0.0015520757479695602
224.173,0.0021092952608676176,0.0021092952608676176
224.174,0.002323054934112975,0.002323054934112975
224.175,0.002415698013196057,0.002415698013196057
224.17600000000002,0.0025476530487317534,0.0025476530487317534
224.17700000000002,0.0027473992066729654,0.0027473992066729654
224.178,0.0028904712446330473,0.0028904712446330473
224.179,0.002737396970911446,0.002737396970911446
224.18,0.002022132474848724,0.002022132474848724
224.181,0.0005654751376702956,0.0005654751376702956
224.18200000000002,0.0016225201155718385,-0.0016225201155718385
224.18300000000002,0.0042871408901143365,-0.0042871408901143365
224.184,0.0069454189370278235,-0.0069454189370278235
224.185,0.00897914083511289,-0.00897914083511289
224.186,0.009785974028214007,-0.009785974028214007
224.187,0.008950440715986711,-0.008950440715986711
224.18800000000002,0.006386512055343602,-0.006386512055343602
224.18900000000002,0.0024072138037273963,-0.0024072138037273963
224.19,0.0023062351461201696,0.0023062351461201696
224.191,0.00683670962803217,0.00683670962803217
224.192,0.010237119002955401,0.010237119002955401
224.193,0.011759554319826358,0.011759554319826358
224.19400000000002,0.011047512320861087,0.011047512320861087
224.19500000000002,0.008237871071453942,0.008237871071453942
224.196,0.003941433765617168,0.003941433765617168
224.197,0.0008973141164494693,-0.0008973141164494693
224.198,0.0052277462944482446,-0.0052277462944482446
224.199,0.008149859561699,-0.008149859561699
224.20000000000002,0.009133035290525475,-0.009133035290525475
224.20100000000002,0.008138821883425322,-0.008138821883425322
224.202,0.005615174437800094,-0.005615174437800094
224.203,0.002364281443652819,-0.002364281443652819
224.204,0.0006795500404791948,0.0006795500404791948
224.205,0.002701134199328958,0.002701134199328958
224.20600000000002,0.003216486811009542,0.003216486811009542
224.20700000000002,0.0021889858239515104,0.0021889858239515104
224.208,2.008374473204365e-05,2.008374473204365e-05
224.209,0.002579770339262816,-0.002579770339262816
224.21,0.004801194378545411,-0.004801194378545411
224.211,0.0059663649511394745,-0.0059663649511394745
224.21200000000002,0.0057150468093919455,-0.0057150468093919455
224.21300000000002,0.004095343763734877,-0.004095343763734877
224.214,0.0015365355866671262,-0.0015365355866671262
224.215,0.0012846326692418978,0.0012846326692418978
224.216,0.0036428578155872225,0.0036428578155872225
224.217,0.004969586186458992,0.004969586186458992
224.21800000000002,0.005005780970389054,0.005005780970389054
224.21900000000002,0.003860038379269974,0.003860038379269974
224.22,0.001958513101064641,0.001958513101064641
224.221,9.511249732401696e-05,-9.511249732401696e-05
224.222,0.0017057057648501167,-0.0017057057648501167
224.223,0.002462663357296837,-0.002462663357296837
224.22400000000002,0.0022541309638365497,-0.0022541309638365497
224.22500000000002,0.001287330947530806,-0.001287330947530806
224.226,1.1406944727410016e-05,-1.1406944727410016e-05
224.227,0.001031809206547307,0.001031809206547307
224.228,0.0013827778966145337,0.0013827778966145337
224.229,0.0008117967292194249,0.0008117967292194249
224.23000000000002,0.0006050883658906371,-0.0006050883658906371
224.23100000000002,0.0025040957231093675,-0.0025040957231093675
224.232,0.004339754596650548,-0.004339754596650548
224.233,0.00554702580984385,-0.00554702580984385
224.234,0.005711198226391663,-0.005711198226391663
224.235,0.004695306422176258,-0.004695306422176258
224.23600000000002,0.0026876073095136086,-0.0026876073095136086
224.23700000000002,0.00015524650892019822,-0.00015524650892019822
224.238,0.002282396430702646,0.002282396430702646
224.239,0.0040240867046082,0.0040240867046082
224.24,0.004652022457263188,0.004652022457263188
224.241,0.004045249197133294,0.004045249197133294
224.24200000000002,0.0024098547717979982,0.0024098547717979982
