Czas,AbsSum,Sum
265.203,0.008571476069746706,0.008571476069746706
265.204,0.021192987181672188,0.021192987181672188
265.205,0.027143604406340838,0.027143604406340838
265.20599999999996,0.02630207522069086,0.02630207522069086
265.207,0.020295119445224268,0.020295119445224268
265.20799999999997,0.0117942951148794,0.0117942951148794
265.209,0.0036427946273515774,0.0036427946273515774
265.21,0.0019047399317767572,-0.0019047399317767572
265.21099999999996,0.003634081324885316,-0.003634081324885316
265.212,0.00145832189343334,-0.00145832189343334
265.21299999999997,0.003785707504053339,0.003785707504053339
265.214,0.010681993081378668,0.010681993081378668
265.215,0.017572724891367075,0.017572724891367075
265.216,0.02280434027669126,0.02280434027669126
265.217,0.024885011647723713,0.024885011647723713
265.21799999999996,0.022619654214060123,0.022619654214060123
265.219,0.015295591731713866,0.015295591731713866
265.21999999999997,0.002939133810400991,0.002939133810400991
265.221,0.01342237828832367,-0.01342237828832367
265.222,0.03163070306928699,-0.03163070306928699
265.22299999999996,0.04855062052845067,-0.04855062052845067
265.224,0.060593040901217504,-0.060593040901217504
265.22499999999997,0.06455978758236645,-0.06455978758236645
265.226,0.05861002202073075,-0.05861002202073075
265.227,0.04304026460168905,-0.04304026460168905
265.228,0.020562140058448978,-0.020562140058448978
265.229,0.004122974593567882,0.004122974593567882
265.22999999999996,0.025439179321150585,0.025439179321150585
265.231,0.03848154622735893,0.03848154622735893
265.23199999999997,0.040541790735095236,0.040541790735095236
265.233,0.0321076888778656,0.0321076888778656
265.234,0.01694501563655242,0.01694501563655242
265.23499999999996,0.0011360201016028546,0.0011360201016028546
265.236,0.008714308911245486,-0.008714308911245486
265.23699999999997,0.007594804511845197,-0.007594804511845197
265.238,0.006134041180155269,0.006134041180155269
265.239,0.029904558172491966,0.029904558172491966
265.24,0.057388370311025595,0.057388370311025595
265.241,0.08017006185479009,0.08017006185479009
265.24199999999996,0.09019283646408484,0.09019283646408484
265.243,0.08224799064177177,0.08224799064177177
265.24399999999997,0.05573124622831946,0.05573124622831946
265.245,0.015089974977439257,0.015089974977439257
265.246,0.031220895932550778,-0.031220895932550778
265.24699999999996,0.07299298540880052,-0.07299298540880052
265.248,0.10106339312864412,-0.10106339312864412
265.24899999999997,0.10981542231071267,-0.10981542231071267
265.25,0.09862669361724166,-0.09862669361724166
265.251,0.07183899869879595,-0.07183899869879595
265.252,0.03728762059158419,-0.03728762059158419
265.253,0.0038759250053842418,-0.0038759250053842418
265.25399999999996,0.02103093316056524,0.02103093316056524
265.255,0.03358288971497489,0.03358288971497489
265.256,0.0342055788388817,0.0342055788388817
265.257,0.02696417958615276,0.02696417958615276
265.258,0.017803582329086614,0.017803582329086614
265.25899999999996,0.012290058025161974,0.012290058025161974
265.26,0.013618096786090939,0.013618096786090939
265.26099999999997,0.021531683335839068,0.021531683335839068
265.262,0.03248688315849049,0.03248688315849049
265.263,0.040964167698681136,0.040964167698681136
265.264,0.0414643865499057,0.0414643865499057
265.265,0.030512485477013497,0.030512485477013497
265.26599999999996,0.008010280720991438,0.008010280720991438
265.267,0.022490721029805972,-0.022490721029805972
265.268,0.05466677906608291,-0.05466677906608291
265.269,0.08115403561590952,-0.08115403561590952
265.27,0.09558456426033551,-0.09558456426033551
265.27099999999996,0.09430700986025503,-0.09430700986025503
265.272,0.07730111692812207,-0.07730111692812207
265.27299999999997,0.04806754527452459,-0.04806754527452459
265.274,0.01259355452959695,-0.01259355452959695
265.275,0.022242843957527823,0.022242843957527823
265.27599999999995,0.05033998644049531,0.05033998644049531
265.277,0.06765413685412185,0.06765413685412185
265.27799999999996,0.07280561714982384,0.07280561714982384
265.279,0.06695162431259612,0.06695162431259612
265.28,0.053083701208271064,0.053083701208271064
265.281,0.03504147859372863,0.03504147859372863
265.282,0.01655593709262768,0.01655593709262768
265.28299999999996,0.0005570928489922104,0.0005570928489922104
265.284,0.011153083278945522,-0.011153083278945522
265.28499999999997,0.01789527124250854,-0.01789527124250854
265.286,0.019894555074947085,-0.019894555074947085
265.287,0.017988711468763255,-0.017988711468763255
265.28799999999995,0.013364391514467066,-0.013364391514467066
265.289,0.007357553276276009,-0.007357553276276009
265.28999999999996,0.0012989829956490107,-0.0012989829956490107
265.291,0.0036346966303942205,0.0036346966303942205
265.292,0.006584954041404496,0.006584954041404496
265.293,0.0071684571307553055,0.0071684571307553055
265.294,0.005568739516721395,0.005568739516721395
265.29499999999996,0.00249779094712874,0.00249779094712874
265.296,0.001002330069293925,-0.001002330069293925
265.29699999999997,0.0038836452538849394,-0.0038836452538849394
265.298,0.005442768735375256,-0.005442768735375256
265.299,0.00556500255288885,-0.00556500255288885
265.29999999999995,0.004749779708991708,-0.004749779708991708
265.301,0.003879593023585975,-0.003879593023585975
265.30199999999996,0.00379802952957159,-0.00379802952957159
265.303,0.004854054828343996,-0.004854054828343996
265.304,0.006607992786870235,-0.006607992786870235
265.305,0.00785595029030186,-0.00785595029030186
265.306,0.0070194055357006525,-0.0070194055357006525
265.30699999999996,0.002801202307003262,-0.002801202307003262
265.308,0.005117134238789355,0.005117134238789355
265.30899999999997,0.01561584871565268,0.01561584871565268
265.31,0.026145507704297133,0.026145507704297133
265.311,0.0332889443749909,0.0332889443749909
265.31199999999995,0.033764879637572916,0.033764879637572916
265.313,0.025581136154846407,0.025581136154846407
265.31399999999996,0.00895062961364385,0.00895062961364385
265.315,0.01338219674897796,-0.01338219674897796
265.316,0.036593117024815214,-0.036593117024815214
265.317,0.054950518933044035,-0.054950518933044035
265.318,0.06340222472164635,-0.06340222472164635
265.31899999999996,0.05910571002490009,-0.05910571002490009
265.32,0.042412425065096994,-0.042412425065096994
265.32099999999997,0.01696059437010484,-0.01696059437010484
265.322,0.011203074187547842,0.011203074187547842
265.323,0.035247138373110574,0.035247138373110574
265.32399999999996,0.04945456056433746,0.04945456056433746
265.325,0.05082639889848631,0.05082639889848631
265.32599999999996,0.039899230107655954,0.039899230107655954
265.327,0.0205239459153753,0.0205239459153753
265.328,0.0013248960128093344,-0.0013248960128093344
265.329,0.01933911774196027,-0.01933911774196027
265.33,0.02871367783567317,-0.02871367783567317
265.33099999999996,0.02747173869616123,-0.02747173869616123
265.332,0.016891094556621737,-0.016891094556621737
265.33299999999997,0.0009356536019894182,-0.0009356536019894182
265.334,0.015090795373875745,0.015090795373875745
265.335,0.02621687404761221,0.02621687404761221
265.33599999999996,0.029268601463463162,0.029268601463463162
265.337,0.023686039187968612,0.023686039187968612
265.33799999999997,0.011480147199529847,0.011480147199529847
265.339,0.0035955743582131885,-0.0035955743582131885
265.34,0.017338008308832028,-0.017338008308832028
265.341,0.026404140329923005,-0.026404140329923005
265.342,0.029217347011335465,-0.029217347011335465
265.34299999999996,0.026214359611707736,-0.026214359611707736
265.344,0.019415128012979926,-0.019415128012979926
265.34499999999997,0.011525065784717814,-0.011525065784717814
265.346,0.004919245662310553,-0.004919245662310553
265.347,0.000868831434242115,-0.000868831434242115
265.34799999999996,0.0007439191697341244,0.0007439191697341244
265.349,0.0011668325206043544,0.0011668325206043544
265.34999999999997,0.0021165967514244215,0.0021165967514244215
265.351,0.004989523963896503,0.004989523963896503
265.352,0.010245142110879636,0.010245142110879636
265.353,0.017180747499418895,0.017180747499418895
265.354,0.02415939914789157,0.02415939914789157
265.35499999999996,0.029185401724805136,0.029185401724805136
265.356,0.030601391608924708,0.030601391608924708
265.35699999999997,0.027650087311734205,0.027650087311734205
265.358,0.020707618374126515,0.020707618374126515
265.359,0.011125397049095381,0.011125397049095381
265.35999999999996,0.000762509952702696,0.000762509952702696
265.361,0.00860336295162801,-0.00860336295162801
265.36199999999997,0.015768224699480866,-0.015768224699480866
265.363,0.020331366772402416,-0.020331366772402416
265.364,0.02260743279359195,-0.02260743279359195
265.365,0.023290855142213424,-0.023290855142213424
265.366,0.023033215266352686,-0.023033215266352686
265.36699999999996,0.02211751855480193,-0.02211751855480193
265.368,0.02036330864298276,-0.02036330864298276
265.36899999999997,0.017294879461704774,-0.017294879461704774
265.37,0.012492598181668856,-0.012492598181668856
265.371,0.005968682870603198,-0.005968682870603198
265.37199999999996,0.0016057771867471807,0.0016057771867471807
265.373,0.008940579431958126,0.008940579431958126
265.37399999999997,0.014447076399742537,0.014447076399742537
265.375,0.016740855837032595,0.016740855837032595
265.376,0.015148507005270385,0.015148507005270385
265.377,0.010026211299247429,0.010026211299247429
265.378,0.0027551825959810454,0.0027551825959810454
265.37899999999996,0.0046114377009168,-0.0046114377009168
265.38,0.009952316181619182,-0.009952316181619182
265.381,0.011741246495072676,-0.011741246495072676
265.382,0.009549650232727077,-0.009549650232727077
265.383,0.004213741554871106,-0.004213741554871106
265.38399999999996,0.002401634041853084,0.002401634041853084
265.385,0.007978748960135784,0.007978748960135784
265.38599999999997,0.010485664138519904,0.010485664138519904
265.387,0.008844591311525716,0.008844591311525716
265.388,0.0033151784207201404,0.0033151784207201404
265.389,0.004534647602646715,-0.004534647602646715
265.39,0.012269601326477697,-0.012269601326477697
265.39099999999996,0.017311152883752276,-0.017311152883752276
265.392,0.01772842304402405,-0.01772842304402405
265.393,0.012858084071717128,-0.012858084071717128
265.394,0.0035658619068162814,-0.0035658619068162814
265.395,0.007932304789870042,0.007932304789870042
265.39599999999996,0.018643327170696652,0.018643327170696652
265.397,0.025605294397947616,0.025605294397947616
265.39799999999997,0.02670632135408757,0.02670632135408757
265.399,0.021287417883883972,0.021287417883883972
265.4,0.010363488097759579,0.010363488097759579
265.40099999999995,0.0035991119758809263,-0.0035991119758809263
265.402,0.01729139513582687,-0.01729139513582687
265.40299999999996,0.027398565681015855,-0.027398565681015855
265.404,0.03144806208436582,-0.03144806208436582
265.405,0.02845009561272453,-0.02845009561272453
265.406,0.019165502785083825,-0.019165502785083825
265.407,0.005930347140897279,-0.005930347140897279
265.40799999999996,0.007921414572050227,0.007921414572050227
265.409,0.018894181844242817,0.018894181844242817
265.40999999999997,0.024216131829716544,0.024216131829716544
265.411,0.022548961360393492,0.022548961360393492
265.412,0.01433822515143204,0.01433822515143204
265.41299999999995,0.0017091022093627644,0.0017091022093627644
265.414,0.012072362560092717,-0.012072362560092717
265.41499999999996,0.02343904517651212,-0.02343904517651212
265.416,0.029447900421072877,-0.029447900421072877
265.417,0.028547064529178576,-0.028547064529178576
265.418,0.02097812312029708,-0.02097812312029708
265.419,0.00870092407328781,-0.00870092407328781
265.41999999999996,0.005143347964104195,0.005143347964104195
265.421,0.01708707435078741,0.01708707435078741
265.42199999999997,0.024274038548314014,0.024274038548314014
265.423,0.02521846829568786,0.02521846829568786
265.424,0.020171719041302782,0.020171719041302782
265.42499999999995,0.010994422765405647,0.010994422765405647
265.426,0.0005752942882703597,0.0005752942882703597
265.42699999999996,0.008029144286797895,-0.008029144286797895
265.428,0.012477531381738481,-0.012477531381738481
265.429,0.011787861872393111,-0.011787861872393111
265.43,0.006556141072344404,-0.006556141072344404
265.431,0.0013051864834095444,0.0013051864834095444
265.43199999999996,0.009215263347622429,0.009215263347622429
265.433,0.014747583345165096,0.014747583345165096
265.43399999999997,0.016365910550865406,0.016365910550865406
265.435,0.013845785178936004,0.013845785178936004
265.436,0.00826045827501608,0.00826045827501608
265.43699999999995,0.0015536469408331754,0.0015536469408331754
265.438,0.004145261970598341,-0.004145261970598341
265.43899999999996,0.007228826747904673,-0.007228826747904673
265.44,0.0071077082503845845,-0.0071077082503845845
265.441,0.004339575000178947,-0.004339575000178947
265.442,0.00036357560952097453,-0.00036357560952097453
265.443,0.0030526241292594615,0.0030526241292594615
265.44399999999996,0.0044523261885128776,0.0044523261885128776
265.445,0.003192500246430827,0.003192500246430827
265.44599999999997,0.0003584626869247365,-0.0003584626869247365
265.447,0.0049844365115746855,-0.0049844365115746855
265.448,0.00907533097484135,-0.00907533097484135
265.44899999999996,0.011200771740560998,-0.011200771740560998
265.45,0.010597760128324496,-0.010597760128324496
265.45099999999996,0.00740466055830988,-0.00740466055830988
265.452,0.0025705271436279173,-0.0025705271436279173
265.453,0.0025123879576674528,0.0025123879576674528
265.454,0.006507526092460131,0.006507526092460131
265.455,0.008577390839853122,0.008577390839853122
265.45599999999996,0.008612739040071822,0.008612739040071822
265.457,0.0071748837419783875,0.0071748837419783875
265.45799999999997,0.005188920526484485,0.005188920526484485
265.459,0.0035191308269894683,0.0035191308269894683
265.46,0.002599446978174413,0.002599446978174413
265.46099999999996,0.002266687093323542,0.002266687093323542
265.462,0.001862448902945285,0.001862448902945285
265.46299999999997,0.0005624905535922007,0.0005624905535922007
265.464,0.002199040729550396,-0.002199040729550396
265.465,0.006384054370976261,-0.006384054370976261
265.466,0.011231411143899145,-0.011231411143899145
265.467,0.015428614626067429,-0.015428614626067429
265.46799999999996,0.01752825843289173,-0.01752825843289173
265.469,0.01646698804280255,-0.01646698804280255
265.46999999999997,0.011999064139718817,-0.011999064139718817
265.471,0.004879479001936678,-0.004879479001936678
265.472,0.0032841408345130854,0.0032841408345130854
265.47299999999996,0.010475711484522678,0.010475711484522678
265.474,0.014869965731486091,0.014869965731486091
265.47499999999997,0.01538840032433005,0.01538840032433005
265.476,0.012025476444600442,0.012025476444600442
265.477,0.0058361507459263285,0.0058361507459263285
265.478,0.001408685803498565,-0.001408685803498565
265.479,0.00777980133233548,-0.00777980133233548
265.47999999999996,0.011771391782676818,-0.011771391782676818
265.481,0.012715087946903922,-0.012715087946903922
265.48199999999997,0.010897805920417527,-0.010897805920417527
265.483,0.007361340006048597,-0.007361340006048597
265.484,0.0034719657743305823,-0.0034719657743305823
265.48499999999996,0.0004234921954990928,-0.0004234921954990928
265.486,0.0011484928886272428,0.0011484928886272428
265.48699999999997,0.0013130644949298604,0.0013130644949298604
265.488,0.0007163916586075817,0.0007163916586075817
265.489,0.00024723612701786255,0.00024723612701786255
265.49,0.0006352999757995578,0.0006352999757995578
265.491,0.002140188119025397,0.002140188119025397
265.49199999999996,0.004447279718981315,0.004447279718981315
265.493,0.006803257305218003,0.006803257305218003
265.49399999999997,0.00833093442572177,0.00833093442572177
265.495,0.008395542765771978,0.008395542765771978
265.496,0.006877489624722621,0.006877489624722621
265.49699999999996,0.004245010792725109,0.004245010792725109
265.498,0.001398367805492219,0.001398367805492219
265.49899999999997,0.0006551103011620175,-0.0006551103011620175
265.5,0.00117205896340446,-0.00117205896340446
265.501,4.91775336699289e-05,4.91775336699289e-05
265.502,0.0025869646965565986,0.0025869646965565986
265.503,0.005539317730441463,0.005539317730441463
265.50399999999996,0.007835965371728103,0.007835965371728103
265.505,0.008602859530278015,0.008602859530278015
265.506,0.007446234412014947,0.007446234412014947
265.507,0.004557241990999307,0.004557241990999307
265.508,0.0006082224435718581,0.0006082224435718581
265.50899999999996,0.003509652328224146,-0.003509652328224146
265.51,0.007000479656224903,-0.007000479656224903
265.51099999999997,0.00940830137449817,-0.00940830137449817
265.512,0.010704178286603765,-0.010704178286603765
265.513,0.011193842257810416,-0.011193842257810416
265.514,0.01129715215329869,-0.01129715215329869
265.515,0.011301380299231292,-0.011301380299231292
265.51599999999996,0.011198952346202754,-0.011198952346202754
265.517,0.010683412609368052,-0.010683412609368052
265.518,0.009309799494045158,-0.009309799494045158
265.519,0.006754241686240929,-0.006754241686240929
265.52,0.0030611513800795635,-0.0030611513800795635
265.52099999999996,0.0012357997152274746,0.0012357997152274746
265.522,0.005188431795846208,0.005188431795846208
265.52299999999997,0.007699174439388439,0.007699174439388439
265.524,0.007894003402889255,0.007894003402889255
265.525,0.005471091509046223,0.005471091509046223
265.52599999999995,0.0008913487126880923,0.0008913487126880923
265.527,0.0046742400980438505,-0.0046742400980438505
265.52799999999996,0.00964269053857372,-0.00964269053857372
265.529,0.012477148872159474,-0.012477148872159474
265.53,0.012159325129821534,-0.012159325129821534
265.531,0.00851979544880863,-0.00851979544880863
265.532,0.002313600596400464,-0.002313600596400464
265.53299999999996,0.004987801626095183,0.004987801626095183
265.534,0.011622875464666716,0.011622875464666716
265.53499999999997,0.01604725973410597,0.01604725973410597
265.536,0.01735973287253815,0.01735973287253815
265.537,0.015515118065520684,0.015515118065520684
265.53799999999995,0.011266534109480138,0.011266534109480138
265.539,0.005870680020051617,0.005870680020051617
265.53999999999996,0.0006662226429366678,0.0006662226429366678
265.541,0.00332901670098253,-0.00332901670098253
265.542,0.0056721830109421984,-0.0056721830109421984
265.543,0.006530325957671045,-0.006530325957671045
265.544,0.006505776443716408,-0.006505776443716408
265.54499999999996,0.006333195949968307,-0.006333195949968307
265.546,0.00656786413111918,-0.00656786413111918
265.54699999999997,0.0073781693389445525,-0.0073781693389445525
265.548,0.008508823292995743,-0.008508823292995743
265.549,0.009414212268224902,-0.009414212268224902
265.54999999999995,0.009499106208531909,-0.009499106208531909
265.551,0.008368982620587844,-0.008368982620587844
265.55199999999996,0.005995501565598188,-0.005995501565598188
265.553,0.0027404694882462504,-0.0027404694882462504
265.554,0.0007623079974938176,0.0007623079974938176
265.555,0.003815590425011815,0.003815590425011815
265.556,0.005876678454704987,0.005876678454704987
265.55699999999996,0.006706793877428378,0.006706793877428378
265.558,0.006405658509892698,0.006405658509892698
265.55899999999997,0.005331447888771104,0.005331447888771104
265.56,0.003948422960317307,0.003948422960317307
265.561,0.0026665487094773258,0.0026665487094773258
265.56199999999995,0.0017324047115427573,0.0017324047115427573
265.563,0.0012029461086823952,0.0012029461086823952
265.56399999999996,0.0009962538084112818,0.0009962538084112818
265.565,0.0009824327853607349,0.0009824327853607349
265.566,0.0010657081100268115,0.0010657081100268115
265.567,0.00121933140152274,0.00121933140152274
265.568,0.0014621011961479628,0.0014621011961479628
265.56899999999996,0.0017961334666193244,0.0017961334666193244
265.57,0.002145800448255481,0.002145800448255481
265.57099999999997,0.002338223404873786,0.002338223404873786
265.572,0.0021460012569015185,0.0021460012569015185
265.573,0.0013817023354058238,0.0013817023354058238
265.57399999999996,5.131300486048169e-06,5.131300486048169e-06
265.575,0.001808079224820456,-0.001808079224820456
265.57599999999996,0.003677547600402567,-0.003677547600402567
265.577,0.00511942428353222,-0.00511942428353222
265.578,0.0057097875815678364,-0.0057097875815678364
265.579,0.005251445857072428,-0.005251445857072428
265.58,0.0038766356431496145,-0.0038766356431496145
265.58099999999996,0.0020366680149879303,-0.0020366680149879303
265.582,0.0003700107798861092,-0.0003700107798861092
265.58299999999997,0.0005122733753779565,0.0005122733753779565
265.584,0.0002490660988371963,0.0002490660988371963
265.585,0.0011239025484396775,-0.0011239025484396775
265.58599999999996,0.003163267663226814,-0.003163267663226814
265.587,0.0051558041991813155,-0.0051558041991813155
265.58799999999997,0.0063616195902239875,-0.0063616195902239875
265.589,0.006277658070348074,-0.006277658070348074
265.59,0.004824906998508126,-0.004824906998508126
265.591,0.0023873959709379542,-0.0023873959709379542
265.592,0.0003160281051348561,0.0003160281051348561
265.59299999999996,0.0024842457287546703,0.0024842457287546703
265.594,0.0035201636282778948,0.0035201636282778948
265.59499999999997,0.0032453662347739676,0.0032453662347739676
265.596,0.001962265222154006,0.001962265222154006
265.597,0.00033851062759755106,0.00033851062759755106
265.59799999999996,0.0008452708445783521,-0.0008452708445783521
265.599,0.0009913102641878932,-0.0009913102641878932
265.59999999999997,8.669741508297504e-05,8.669741508297504e-05
265.601,0.002088998839903317,0.002088998839903317
265.602,0.004338642740104969,0.004338642740104969
265.603,0.006033867864998521,0.006033867864998521
265.604,0.006548977905267328,0.006548977905267328
265.60499999999996,0.005669120196709082,0.005669120196709082
265.606,0.003668482000566666,0.003668482000566666
265.60699999999997,0.0012006337624056878,0.0012006337624056878
265.608,0.0009580763292598897,-0.0009580763292598897
265.609,0.0022135913440654914,-0.0022135913440654914
265.60999999999996,0.0023886778041381286,-0.0023886778041381286
265.611,0.0017931277826315362,-0.0017931277826315362
265.61199999999997,0.001098002702766357,-0.001098002702766357
265.613,0.0010582326151770498,-0.0010582326151770498
265.614,0.0021886003503977743,-0.0021886003503977743
265.615,0.004519809007849965,-0.004519809007849965
265.616,0.007534568741371802,-0.007534568741371802
265.61699999999996,0.010317419982671279,-0.010317419982671279
265.618,0.01187066050427889,-0.01187066050427889
265.61899999999997,0.011483000900527765,-0.011483000900527765
265.62,0.009013009211519594,-0.009013009211519594
265.621,0.004976563875583823,-0.004976563875583823
265.62199999999996,0.00039756816684169926,-0.00039756816684169926
265.623,0.0035312411627476357,0.0035312411627476357
265.62399999999997,0.005858029457586305,0.005858029457586305
265.625,0.006203008493477921,0.006203008493477921
265.626,0.004887089615154898,0.004887089615154898
265.627,0.002806254493431072,0.002806254493431072
265.628,0.0010929489482556396,0.0010929489482556396
265.62899999999996,0.0006856160059954245,0.0006856160059954245
265.63,0.0019640216178975684,0.0019640216178975684
265.631,0.004586872125237384,0.004586872125237384
265.632,0.007596168437633799,0.007596168437633799
265.633,0.009755593940658098,0.009755593940658098
265.63399999999996,0.010003493241503328,0.010003493241503328
265.635,0.007856813303763263,0.007856813303763263
265.63599999999997,0.0036175776330865687,0.0036175776330865687
265.637,0.0016968386213800613,-0.0016968386213800613
265.638,0.006679177202331811,-0.006679177202331811
265.639,0.010000435571746845,-0.010000435571746845
265.64,0.010855438106391328,-0.010855438106391328
265.64099999999996,0.009228094649446713,-0.009228094649446713
265.642,0.005883144298882181,-0.005883144298882181
265.643,0.002089264282876312,-0.002089264282876312
265.644,0.0008257318171343164,0.0008257318171343164
265.645,0.0019281387145674094,0.0019281387145674094
265.64599999999996,0.0009800511044848568,0.0009800511044848568
265.647,0.0015131682999473903,-0.0015131682999473903
265.64799999999997,0.0045187319658912106,-0.0045187319658912106
265.649,0.006869546604175071,-0.006869546604175071
265.65,0.007686812627421033,-0.007686812627421033
265.65099999999995,0.00667806637934482,-0.00667806637934482
265.652,0.004207205929749685,-0.004207205929749685
265.65299999999996,0.001120616381714878,-0.001120616381714878
265.654,0.0015952479102390282,0.0015952479102390282
265.655,0.0031887784031819307,0.0031887784031819307
265.656,0.003406698239297147,0.003406698239297147
265.657,0.0025491540675905144,0.0025491540675905144
265.65799999999996,0.001302495787258096,0.001302495787258096
265.659,0.00042270096473987146,0.00042270096473987146
265.65999999999997,0.00039970845983139673,0.00039970845983139673
265.661,0.0012388651925923353,0.0012388651925923353
265.662,0.002448320014618972,0.002448320014618972
265.66299999999995,0.0032391084261420657,0.0032391084261420657
265.664,0.0028598078945301056,0.0028598078945301056
265.66499999999996,0.000933031468822361,0.000933031468822361
265.666,0.002341928880615092,-0.002341928880615092
265.667,0.006205788440680193,-0.006205788440680193
265.668,0.009576442270583931,-0.009576442270583931
265.669,0.011421739333965397,-0.011421739333965397
265.66999999999996,0.011128563548023104,-0.011128563548023104
265.671,0.008727617937861212,-0.008727617937861212
265.67199999999997,0.00488630862797353,-0.00488630862797353
265.673,0.0006697063853366694,-0.0006697063853366694
265.674,0.0028415915665437573,0.0028415915665437573
265.67499999999995,0.004932027923601297,0.004932027923601297
265.676,0.005484604327340798,0.005484604327340798
265.67699999999996,0.004977311287907945,0.004977311287907945
265.678,0.004243659860996287,0.004243659860996287
265.679,0.004090955077819236,0.004090955077819236
265.68,0.00492790077282497,0.00492790077282497
265.681,0.006553379447646846,0.006553379447646846
265.68199999999996,0.008199246272162362,0.008199246272162362
265.683,0.008822825693102264,0.008822825693102264
265.68399999999997,0.007545738168069367,0.007545738168069367
265.685,0.004072645506187806,0.004072645506187806
265.686,0.0010782126738569716,-0.0010782126738569716
265.68699999999995,0.006638386954166306,-0.006638386954166306
265.688,0.010946847908348377,-0.010946847908348377
265.68899999999996,0.01249190432005785,-0.01249190432005785
265.69,0.010452945220707053,-0.010452945220707053
265.691,0.005047553451934123,-0.005047553451934123
265.692,0.002450280383100825,0.002450280383100825
265.693,0.010044609387266791,0.010044609387266791
265.69399999999996,0.015606105592505887,0.015606105592505887
265.695,0.017525551949962366,0.017525551949962366
265.69599999999997,0.015216701206584849,0.015216701206584849
265.697,0.009300960458077812,0.009300960458077812
265.698,0.001412368547906709,0.001412368547906709
265.69899999999996,0.006311585993849104,-0.006311585993849104
265.7,0.011883880774077172,-0.011883880774077172
265.70099999999996,0.014052300129149082,-0.014052300129149082
265.702,0.012628637735862648,-0.012628637735862648
265.703,0.00846810436801142,-0.00846810436801142
265.704,0.003124273780305713,-0.003124273780305713
265.705,0.0016885075211172439,0.0016885075211172439
265.70599999999996,0.004636647425109916,0.004636647425109916
265.707,0.005135088779530721,0.005135088779530721
265.70799999999997,0.0034352052256240227,0.0034352052256240227
265.709,0.00043056100029423896,0.00043056100029423896
265.71,0.002724137090004102,-0.002724137090004102
265.71099999999996,0.005028876834371903,-0.005028876834371903
265.712,0.005939174943838997,-0.005939174943838997
265.71299999999997,0.005458759033775392,-0.005458759033775392
265.714,0.004017558190643978,-0.004017558190643978
265.715,0.002210598064205692,-0.002210598064205692
265.716,0.0005200061857722668,-0.0005200061857722668
265.717,0.0008625526482106034,0.0008625526482106034
265.71799999999996,0.0020473740672454447,0.0020473740672454447
265.719,0.0033021210449855364,0.0033021210449855364
265.71999999999997,0.004829084938563053,0.004829084938563053
265.721,0.006574933354541253,0.006574933354541253
265.722,0.008168164370000877,0.008168164370000877
265.72299999999996,0.009022872028308771,0.009022872028308771
265.724,0.008573301084775631,0.008573301084775631
265.72499999999997,0.006542941950767827,0.006542941950767827
265.726,0.00313029731425128,0.00313029731425128
265.727,0.0009789599823975031,-0.0009789599823975031
265.728,0.004796704856044342,-0.004796704856044342
265.729,0.0073568657958757834,-0.0073568657958757834
265.72999999999996,0.008061212202677737,-0.008061212202677737
265.731,0.006911163825502055,-0.006911163825502055
265.73199999999997,0.004527037623802053,-0.004527037623802053
265.733,0.0019340759768189384,-0.0019340759768189384
265.734,0.00018482594623776046,-0.00018482594623776046
265.73499999999996,4.49499426318893e-05,4.49499426318893e-05
265.736,0.0012679170496718065,-0.0012679170496718065
265.73699999999997,0.0034597098730905587,-0.0034597098730905587
265.738,0.00541315626858884,-0.00541315626858884
265.739,0.00598324617486871,-0.00598324617486871
265.74,0.004463125611686334,-0.004463125611686334
265.741,0.0009146727675998496,-0.0009146727675998496
265.74199999999996,0.0037695156749549103,0.0037695156749549103
265.743,0.008112140483898307,0.008112140483898307
265.74399999999997,0.010532251906697328,0.010532251906697328
265.745,0.009898628928047309,0.009898628928047309
265.746,0.005959593287353287,0.005959593287353287
265.74699999999996,0.0005093742473830822,-0.0005093742473830822
265.748,0.00790290753157482,-0.00790290753157482
265.74899999999997,0.014269590457326925,-0.014269590457326925
265.75,0.01792139014440305,-0.01792139014440305
265.751,0.017960982320087412,-0.017960982320087412
265.752,0.014546110717362736,-0.014546110717362736
265.753,0.008801690109283817,-0.008801690109283817
265.75399999999996,0.002414159199117094,-0.002414159199117094
265.755,0.0029458497745517985,0.0029458497745517985
265.756,0.006167420810517702,0.006167420810517702
265.757,0.007019592394823356,0.007019592394823356
265.758,0.0061409584008317655,0.0061409584008317655
265.75899999999996,0.004712988269611386,0.004712988269611386
265.76,0.003946491347325824,0.003946491347325824
265.76099999999997,0.004577454706363563,0.004577454706363563
265.762,0.006562691101069955,0.006562691101069955
265.763,0.0090896368802072,0.0090896368802072
265.764,0.010896354875374556,0.010896354875374556
265.765,0.010780975947615654,0.010780975947615654
265.76599999999996,0.008107626073313315,0.008107626073313315
265.767,0.0031151529289462463,0.0031151529289462463
265.768,0.0030937415718715997,-0.0030937415718715997
265.769,0.008887989775937598,-0.008887989775937598
265.77,0.012652865099018305,-0.012652865099018305
265.77099999999996,0.013349338089227758,-0.013349338089227758
265.772,0.010884993104078878,-0.010884993104078878
265.77299999999997,0.006159169550539188,-0.006159169550539188
265.774,0.0007614795375128397,-0.0007614795375128397
265.775,0.003572095037519228,0.003572095037519228
265.77599999999995,0.005553169870632725,0.005553169870632725
265.777,0.004773568631646428,0.004773568631646428
265.77799999999996,0.001822360229769312,0.001822360229769312
265.779,0.0019538773735049884,-0.0019538773735049884
265.78,0.004960635920670359,-0.004960635920670359
265.781,0.0059509081420092294,-0.0059509081420092294
265.782,0.004491469029769692,-0.004491469029769692
265.78299999999996,0.0011311940043307834,-0.0011311940043307834
265.784,0.002790631856455188,0.002790631856455188
265.78499999999997,0.005629041829964684,0.005629041829964684
265.786,0.006039084122934877,0.006039084122934877
265.787,0.003486661093462143,0.003486661093462143
265.78799999999995,0.001518397434204105,-0.001518397434204105
265.789,0.007552398239586205,-0.007552398239586205
265.78999999999996,0.012729098457517888,-0.012729098457517888
265.791,0.015318482794336232,-0.015318482794336232
265.792,0.01432181590956134,-0.01432181590956134
265.793,0.009808278530788965,-0.009808278530788965
265.794,0.0029020117053850268,-0.0029020117053850268
265.79499999999996,0.004571330710263162,0.004571330710263162
265.796,0.010654879389933007,0.010654879389933007
265.79699999999997,0.013854729748287315,0.013854729748287315
265.798,0.013563578865063177,0.013563578865063177
265.799,0.010184105348654012,0.010184105348654012
265.79999999999995,0.004928544892322437,0.004928544892322437
265.801,0.0006197656969760741,-0.0006197656969760741
265.80199999999996,0.005022553057945953,-0.005022553057945953
265.803,0.0074045615864238605,-0.0074045615864238605
265.804,0.007643173810541612,-0.007643173810541612
265.805,0.006287478979726329,-0.006287478979726329
265.806,0.004261370149948912,-0.004261370149948912
265.80699999999996,0.0024762400406301115,-0.0024762400406301115
265.808,0.0015003234826532783,-0.0015003234826532783
265.80899999999997,0.0013989907099328906,-0.0013989907099328906
265.81,0.001788420101080321,-0.001788420101080321
265.811,0.0020625541542628615,-0.0020625541542628615
265.81199999999995,0.0016909485304963201,-0.0016909485304963201
265.813,0.00046493956965822016,-0.00046493956965822016
265.81399999999996,0.0014032596954475062,0.0014032596954475062
265.815,0.003361924559061698,0.003361924559061698
265.816,0.004743165782378889,0.004743165782378889
265.817,0.005035606719379281,0.005035606719379281
265.818,0.004097074751841847,0.004097074751841847
265.81899999999996,0.0022238099726902163,0.0022238099726902163
265.82,4.981260404333507e-05,4.981260404333507e-05
265.82099999999997,0.0016842189878704674,-0.0016842189878704674
265.822,0.0024035247561234566,-0.0024035247561234566
265.823,0.0019099566949949771,-0.0019099566949949771
265.82399999999996,0.00045183452026970473,-0.00045183452026970473
265.825,0.0013719831554688331,0.0013719831554688331
265.82599999999996,0.0028365070117808045,0.0028365070117808045
265.827,0.0033589522464533145,0.0033589522464533145
265.828,0.0027114416497851733,0.0027114416497851733
265.829,0.00110057050457426,0.00110057050457426
265.83,0.0009135548178732521,-0.0009135548178732521
265.83099999999996,0.002627086513499601,-0.002627086513499601
265.832,0.003453027533000356,-0.003453027533000356
265.83299999999997,0.0031377138548463416,-0.0031377138548463416
265.834,0.0018559208234470489,-0.0018559208234470489
265.835,0.00015218069586539387,-0.00015218069586539387
265.83599999999996,0.0012490244828529272,0.0012490244828529272
265.837,0.0016961985724926792,0.0016961985724926792
265.83799999999997,0.0008389482483718391,0.0008389482483718391
265.839,0.001245355243587436,-0.001245355243587436
265.84,0.00406591682865229,-0.00406591682865229
265.841,0.006864798751554596,-0.006864798751554596
265.842,0.008843364382936945,-0.008843364382936945
265.84299999999996,0.009394447216479146,-0.009394447216479146
265.844,0.008269312776905752,-0.008269312776905752
265.84499999999997,0.005634670816766794,-0.005634670816766794
265.846,0.0020128643086371654,-0.0020128643086371654
265.847,0.0018659873944379894,0.0018659873944379894
265.84799999999996,0.00524920112238343,0.00524920112238343
265.849,0.007530496371815862,0.007530496371815862
265.84999999999997,0.00836306709555358,0.00836306709555358
265.851,0.007700172252567769,0.007700172252567769
265.852,0.005769182393367771,0.005769182393367771
265.853,0.002999478471116433,0.002999478471116433
265.854,7.176695282592012e-05,-7.176695282592012e-05
265.85499999999996,0.0028967610587868286,-0.0028967610587868286
265.856,0.005005928385119825,-0.005005928385119825
265.85699999999997,0.006082512797332154,-0.006082512797332154
265.858,0.00601724444884255,-0.00601724444884255
265.859,0.0049337669948435305,-0.0049337669948435305
265.85999999999996,0.003172634926470379,-0.003172634926470379
265.861,0.00122460042303672,-0.00122460042303672
265.86199999999997,0.00038482842938121665,0.00038482842938121665
265.863,0.001239949337477951,0.001239949337477951
265.864,0.0011713996699436768,0.0011713996699436768
265.865,0.00033861902926637515,0.00033861902926637515
265.866,0.0007811681342096011,-0.0007811681342096011
265.86699999999996,0.0015130786428698567,-0.0015130786428698567
265.868,0.0011939569085148264,-0.0011939569085148264
265.86899999999997,0.0005845290188361843,0.0005845290188361843
265.87,0.003776821512454646,0.003776821512454646
265.871,0.0078040777952583075,0.0078040777952583075
265.87199999999996,0.011640585867385918,0.011640585867385918
265.873,0.014062021064207095,0.014062021064207095
265.87399999999997,0.013996154989659913,0.013996154989659913
265.875,0.010874946313982897,0.010874946313982897
265.876,0.004875110690326398,0.004875110690326398
265.877,0.0030406805955517625,-0.0030406805955517625
265.878,0.011313236730161817,-0.011313236730161817
265.87899999999996,0.018166826055309865,-0.018166826055309865
265.88,0.02207650774537129,-0.02207650774537129
265.881,0.02218637615438287,-0.02218637615438287
265.882,0.018551431443873435,-0.018551431443873435
265.883,0.012126121740808952,-0.012126121740808952
265.88399999999996,0.00449898894275416,-0.00449898894275416
265.885,0.0025489961052280194,0.0025489961052280194
265.88599999999997,0.007530319353851051,0.007530319353851051
265.887,0.009636030655209644,0.009636030655209644
265.888,0.008908067347130573,0.008908067347130573
265.889,0.006154820548054802,0.006154820548054802
265.89,0.0026466384705875396,0.0026466384705875396
265.89099999999996,0.0003050763461761864,-0.0003050763461761864
265.892,0.0017496537262400615,-0.0017496537262400615
265.893,0.001356865815095442,-0.001356865815095442
265.894,0.0005370333402010774,0.0005370333402010774
265.895,0.0030966597612335474,0.0030966597612335474
265.89599999999996,0.005300016761958983,0.005300016761958983
265.897,0.006286030647947164,0.006286030647947164
265.89799999999997,0.005623452725292867,0.005623452725292867
265.899,0.003421279864812466,0.003421279864812466
265.9,0.00025838024445543333,0.00025838024445543333
265.90099999999995,0.0030294975431478083,-0.0030294975431478083
265.902,0.0056241491865745,-0.0056241491865745
265.90299999999996,0.006967166938471432,-0.006967166938471432
265.904,0.00689624801030064,-0.00689624801030064
265.905,0.005644320256682728,-0.005644320256682728
265.906,0.0037188223177088016,-0.0037188223177088016
265.907,0.0017157512751950473,-0.0017157512751950473
265.90799999999996,0.00013726574372652426,-0.00013726574372652426
265.909,0.0007297475245107189,0.0007297475245107189
265.90999999999997,0.0008466475774998123,0.0008466475774998123
265.911,0.0003753794206333727,0.0003753794206333727
265.912,0.0004150712736893453,-0.0004150712736893453
265.91299999999995,0.0012440326863648902,-0.0012440326863648902
265.914,0.0018819080678841474,-0.0018819080678841474
265.91499999999996,0.0021682825176342086,-0.0021682825176342086
265.916,0.0019973380991870214,-0.0019973380991870214
265.917,0.0012973883245608524,-0.0012973883245608524
265.918,3.079354260059597e-05,-3.079354260059597e-05
265.919,0.0017745629730311955,0.0017745629730311955
265.91999999999996,0.003973251828932555,0.003973251828932555
265.921,0.006259311418143596,0.006259311418143596
265.92199999999997,0.008167386930583618,0.008167386930583618
265.923,0.009141461422119352,0.009141461422119352
265.924,0.008669157890122712,0.008669157890122712
265.92499999999995,0.006449778634117851,0.006449778634117851
265.926,0.0025423171368238145,0.0025423171368238145
265.92699999999996,0.0025643182254035867,-0.0025643182254035867
265.928,0.007998930766453407,-0.007998930766453407
265.929,0.01267855318304726,-0.01267855318304726
265.93,0.015565829016044107,-0.015565829016044107
265.931,0.015944406132743266,-0.015944406132743266
265.93199999999996,0.013631075954217763,-0.013631075954217763
265.933,0.009056933063011287,-0.009056933063011287
265.93399999999997,0.00318606233704044,-0.00318606233704044
265.935,0.002711951835161772,0.002711951835161772
265.936,0.0073753301226517414,0.0073753301226517414
265.93699999999995,0.009862710936240455,0.009862710936240455
265.938,0.00977869069830043,0.00977869069830043
265.93899999999996,0.007352034377623544,0.007352034377623544
265.94,0.0033497953180220584,0.0033497953180220584
265.941,0.0011424568209573943,-0.0011424568209573943
265.942,0.005008132334341328,-0.005008132334341328
265.943,0.0073739791709941304,-0.0073739791709941304
265.94399999999996,0.007800045533152313,-0.007800045533152313
265.945,0.00634317785831587,-0.00634317785831587
265.94599999999997,0.0034903835662523325,-0.0034903835662523325
265.947,6.223932641396086e-06,6.223932641396086e-06
265.948,0.003338812937767854,0.003338812937767854
265.94899999999996,0.00583898368651393,0.00583898368651393
265.95,0.007112305146174112,0.007112305146174112
265.95099999999996,0.007088665126249874,0.007088665126249874
265.952,0.005989984750710967,0.005989984750710967
265.953,0.004236795483852985,0.004236795483852985
265.954,0.0023254960335778755,0.0023254960335778755
265.955,0.0007082216638440711,0.0007082216638440711
265.95599999999996,0.00030020347644791777,-0.00030020347644791777
265.957,0.0005746368553541176,-0.0005746368553541176
265.95799999999997,0.00018815961650619952,-0.00018815961650619952
265.959,0.0006186097138263419,0.0006186097138263419
265.96,0.0014981414410676385,0.0014981414410676385
265.96099999999996,0.0020747429633262596,0.0020747429633262596
265.962,0.002028118172186971,0.002028118172186971
265.96299999999997,0.001167532317764389,0.001167532317764389
265.964,0.0005173794052515846,-0.0005173794052515846
265.965,0.0028406402217053634,-0.0028406402217053634
265.966,0.005444769168637483,-0.005444769168637483
265.967,0.007864195614037747,-0.007864195614037747
265.96799999999996,0.009615863157605169,-0.009615863157605169
265.969,0.010298230593612054,-0.010298230593612054
265.96999999999997,0.009676849907425551,-0.009676849907425551
265.971,0.007737437336956937,-0.007737437336956937
265.972,0.004695271220421451,-0.004695271220421451
265.97299999999996,0.0009603836575187069,-0.0009603836575187069
265.974,0.002932066442731624,0.002932066442731624
265.97499999999997,0.006410649903030026,0.006410649903030026
265.976,0.008959033128125805,0.008959033128125805
265.977,0.010196265079549391,0.010196265079549391
265.978,0.00993732413890904,0.00993732413890904
265.979,0.008229159891033221,0.008229159891033221
265.97999999999996,0.005358667049765618,0.005358667049765618
265.981,0.00182802234924501,0.00182802234924501
265.98199999999997,0.0017078682280175907,-0.0017078682280175907
265.983,0.004544120544952285,-0.004544120544952285
265.984,0.0060624365323659005,-0.0060624365323659005
265.98499999999996,0.00588145344896057,-0.00588145344896057
265.986,0.0039865773365581215,-0.0039865773365581215
265.98699999999997,0.0007968469159670262,-0.0007968469159670262
265.988,0.002869081611729577,0.002869081611729577
265.989,0.005945305379106273,0.005945305379106273
265.99,0.007373223758481013,0.007373223758481013
265.991,0.0064042079352745005,0.0064042079352745005
265.99199999999996,0.002867395771410113,0.002867395771410113
265.993,0.0026874172340097726,-0.0026874172340097726
265.99399999999997,0.00903939196327415,-0.00903939196327415
265.995,0.014556368020480307,-0.014556368020480307
265.996,0.017617147259889044,-0.017617147259889044
265.99699999999996,0.01708862694549709,-0.01708862694549709
265.998,0.012716565631707828,-0.012716565631707828
265.99899999999997,0.005297431500977436,-0.005297431500977436
266.0,0.0034475204439718687,0.0034475204439718687
266.001,0.011288573034822575,0.011288573034822575
266.002,0.016093471905687134,0.016093471905687134
266.003,0.016452165839857483,0.016452165839857483
266.00399999999996,0.012128842406024746,0.012128842406024746
266.005,0.0041896873268389085,0.0041896873268389085
266.006,0.005252814118144272,-0.005252814118144272
266.007,0.013620140110780533,-0.013620140110780533
266.008,0.018607398775600973,-0.018607398775600973
266.00899999999996,0.01885886162747622,-0.01885886162747622
266.01,0.01436748714413232,-0.01436748714413232
266.01099999999997,0.006467948755248742,-0.006467948755248742
266.012,0.0025801562513786715,0.0025801562513786715
266.013,0.010289958535913924,0.010289958535913924
266.014,0.014703649548467198,0.014703649548467198
266.015,0.014963800350664407,0.014963800350664407
266.01599999999996,0.01151551003503768,0.01151551003503768
266.017,0.005877708109850578,0.005877708109850578
266.018,6.703510125625994e-05,6.703510125625994e-05
266.019,0.004123867624554053,-0.004123867624554053
266.02,0.005741549179972309,-0.005741549179972309
266.02099999999996,0.004965007397250382,-0.004965007397250382
266.022,0.00297423749181906,-0.00297423749181906
266.02299999999997,0.0014419393916135672,-0.0014419393916135672
266.024,0.0018326093532151598,-0.0018326093532151598
266.025,0.004766663136137121,-0.004766663136137121
266.02599999999995,0.009690001106709352,-0.009690001106709352
266.027,0.014985151215882604,-0.014985151215882604
266.02799999999996,0.01850343341791288,-0.01850343341791288
266.029,0.018342776872250364,-0.018342776872250364
266.03,0.013598241465918346,-0.013598241465918346
266.031,0.004808792773513193,-0.004808792773513193
266.032,0.006080820469688165,0.006080820469688165
266.03299999999996,0.01626021361238554,0.01626021361238554
266.034,0.02293529519917145,0.02293529519917145
266.03499999999997,0.02426300675155765,0.02426300675155765
266.036,0.020016863092091546,0.020016863092091546
266.037,0.011739114554298293,0.011739114554298293
266.03799999999995,0.002301115929576322,0.002301115929576322
266.039,0.005007003286902025,-0.005007003286902025
266.03999999999996,0.0075705383644114254,-0.0075705383644114254
266.041,0.004367377903535581,-0.004367377903535581
266.042,0.0036070788121191555,0.0036070788121191555
266.043,0.013569078405129121,0.013569078405129121
266.044,0.021779354963264493,0.021779354963264493
266.04499999999996,0.024728076918292142,0.024728076918292142
266.046,0.020297588108223383,0.020297588108223383
266.04699999999997,0.00852657708325788,0.00852657708325788
266.048,0.008279589412007798,-0.008279589412007798
266.049,0.026141827742396827,-0.026141827742396827
266.04999999999995,0.04052932276628359,-0.04052932276628359
266.051,0.04766753487418845,-0.04766753487418845
266.05199999999996,0.04563030552462991,-0.04563030552462991
266.053,0.034883605802299086,-0.034883605802299086
266.054,0.018122759510245712,-0.018122759510245712
266.055,0.0005334280228768025,0.0005334280228768025
266.056,0.016731307878399722,0.016731307878399722
266.05699999999996,0.027083822050787677,0.027083822050787677
266.058,0.03002506283354898,0.03002506283354898
266.05899999999997,0.026081314621235505,0.026081314621235505
266.06,0.017514068345406288,0.017514068345406288
266.061,0.007487198199701735,0.007487198199701735
266.06199999999995,0.000951685184242154,-0.000951685184242154
266.063,0.0057481779327183255,-0.0057481779327183255
266.06399999999996,0.006318218755325321,-0.006318218755325321
266.065,0.00351482914981843,-0.00351482914981843
266.066,0.0008535652931808737,0.0008535652931808737
266.067,0.004751961738272615,0.004751961738272615
266.068,0.006631228673371807,0.006631228673371807
266.06899999999996,0.005890700057465539,0.005890700057465539
266.07,0.002963005171648112,0.002963005171648112
266.07099999999997,0.0009669683796198851,-0.0009669683796198851
266.072,0.004473223487761585,-0.004473223487761585
266.073,0.00642756069408265,-0.00642756069408265
266.07399999999996,0.006373237569647269,-0.006373237569647269
266.075,0.004616628419226492,-0.004616628419226492
266.07599999999996,0.0020314088849772084,-0.0020314088849772084
266.077,0.00032600482575387545,0.00032600482575387545
266.078,0.0016306664601645016,0.0016306664601645016
266.079,0.001576001722466818,0.001576001722466818
266.08,0.000436030375532737,0.000436030375532737
266.08099999999996,0.0011030028556636348,-0.0011030028556636348
266.082,0.0022598468397833854,-0.0022598468397833854
266.08299999999997,0.002490973835602092,-0.002490973835602092
266.084,0.0017071537614661546,-0.0017071537614661546
266.085,0.00029375943586843205,-0.00029375943586843205
266.08599999999996,0.0010656236606263495,0.0010656236606263495
266.087,0.0016861298873369487,0.0016861298873369487
266.08799999999997,0.0011782246585861648,0.0011782246585861648
266.089,0.00037398601142358466,-0.00037398601142358466
266.09,0.0024228909119201752,-0.0024228909119201752
266.091,0.004152650909654831,-0.004152650909654831
266.092,0.004785542825039579,-0.004785542825039579
266.09299999999996,0.003883630426735591,-0.003883630426735591
266.094,0.0015323226075199421,-0.0015323226075199421
266.09499999999997,0.001663204915503666,0.001663204915503666
266.096,0.004768561922365782,0.004768561922365782
266.097,0.0068295312259139375,0.0068295312259139375
266.09799999999996,0.007190188612049982,0.007190188612049982
266.099,0.0057082802430396175,0.0057082802430396175
266.09999999999997,0.0027949690122007057,0.0027949690122007057
266.101,0.0007304895400338948,-0.0007304895400338948
266.102,0.003915823257394481,-0.003915823257394481
266.103,0.005982335932378909,-0.005982335932378909
266.104,0.006558084224150014,-0.006558084224150014
266.10499999999996,0.0057630085864023494,-0.0057630085864023494
266.106,0.004126190968583701,-0.004126190968583701
266.10699999999997,0.0023740815489104233,-0.0023740815489104233
266.108,0.001170154701713537,-0.001170154701713537
266.109,0.0008973861936137893,-0.0008973861936137893
266.10999999999996,0.001553354610757761,-0.001553354610757761
266.111,0.002783586346522962,-0.002783586346522962
266.11199999999997,0.004029329797413027,-0.004029329797413027
266.113,0.004729216745288273,-0.004729216745288273
266.114,0.00450220550504466,-0.00450220550504466
266.115,0.0032538023933411458,-0.0032538023933411458
266.116,0.0011808872743835654,-0.0011808872743835654
266.11699999999996,0.0013116016903892563,0.0013116016903892563
266.118,0.0037408222083543195,0.0037408222083543195
266.11899999999997,0.005672835987285708,0.005672835987285708
266.12,0.006807093062799883,0.006807093062799883
266.121,0.007003823245974922,0.007003823245974922
266.12199999999996,0.00626517104052082,0.00626517104052082
266.123,0.0046968881601830445,0.0046968881601830445
266.12399999999997,0.002477866559557349,0.002477866559557349
266.125,0.0001487893894900272,-0.0001487893894900272
266.126,0.002869286508125185,-0.002869286508125185
266.127,0.005298997705824918,-0.005298997705824918
266.128,0.00701334830474478,-0.00701334830474478
266.12899999999996,0.007622268586460533,-0.007622268586460533
266.13,0.006878149127268129,-0.006878149127268129
266.131,0.004784263819681513,-0.004784263819681513
266.132,0.001658482346536786,-0.001658482346536786
266.133,0.0018867683636220728,0.0018867683636220728
266.13399999999996,0.005062748674002812,0.005062748674002812
266.135,0.007100055166155179,0.007100055166155179
266.13599999999997,0.007468053441963198,0.007468053441963198
266.137,0.006047573009994415,0.006047573009994415
266.138,0.003193794606283488,0.003193794606283488
266.139,0.00034226988624149363,-0.00034226988624149363
266.14,0.0036194122796877385,-0.0036194122796877385
266.14099999999996,0.005780135780585264,-0.005780135780585264
266.142,0.006307102250485901,-0.006307102250485901
266.143,0.005177914869481956,-0.005177914869481956
266.144,0.0028649166309459625,-0.0028649166309459625
266.145,0.00017726029788216817,-0.00017726029788216817
266.14599999999996,0.0020043599034806608,0.0020043599034806608
266.147,0.003012843481261332,0.003012843481261332
266.14799999999997,0.0026045887075307962,0.0026045887075307962
266.149,0.0010241385216755963,0.0010241385216755963
266.15,0.0010969879283440082,-0.0010969879283440082
266.15099999999995,0.0029709872858460435,-0.0029709872858460435
266.152,0.003933288215194841,-0.003933288215194841
266.15299999999996,0.0036737835220681816,-0.0036737835220681816
266.154,0.002340023970816476,-0.002340023970816476
266.155,0.0004776331795209095,-0.0004776331795209095
266.156,0.0011699339679794262,0.0011699339679794262
266.157,0.0019313581543752031,0.0019313581543752031
266.15799999999996,0.0014524173269552612,0.0014524173269552612
266.159,0.00016951658541288623,-0.00016951658541288623
266.15999999999997,0.0024081414065844895,-0.0024081414065844895
266.161,0.004480292073648954,-0.004480292073648954
266.162,0.005608556031524443,-0.005608556031524443
266.16299999999995,0.005285361880200325,-0.005285361880200325
266.164,0.0034500577101648808,-0.0034500577101648808
266.16499999999996,0.0005209625829300677,-0.0005209625829300677
266.166,0.0027264558850094815,0.0027264558850094815
266.167,0.00539347112173986,0.00539347112173986
266.168,0.006727203682197401,0.006727203682197401
266.169,0.006339730649370874,0.006339730649370874
266.16999999999996,0.004311800186558409,0.004311800186558409
266.171,0.0011556170664230555,0.0011556170664230555
266.17199999999997,0.0023433562620275633,-0.0023433562620275633
266.173,0.005349936265692553,-0.005349936265692553
266.174,0.007197493442226475,-0.007197493442226475
266.17499999999995,0.007539235653587391,-0.007539235653587391
266.176,0.00639817026188084,-0.00639817026188084
266.17699999999996,0.004116243928715175,-0.004116243928715175
266.178,0.0012329253875247703,-0.0012329253875247703
266.179,0.001661099325388318,0.001661099325388318
266.18,0.004051495604967407,0.004051495604967407
266.181,0.005581397050986105,0.005581397050986105
266.18199999999996,0.006079941417366002,0.006079941417366002
266.183,0.005550233764403604,0.005550233764403604
266.18399999999997,0.004137042763974828,0.004137042763974828
266.185,0.002091625321500577,0.002091625321500577
266.186,0.00025934436356386657,-0.00025934436356386657
266.18699999999995,0.0025449875968748432,-0.0025449875968748432
266.188,0.0043913629533322935,-0.0043913629533322935
266.18899999999996,0.005478905727901588,-0.005478905727901588
266.19,0.005611578043730097,-0.005611578043730097
266.191,0.0047801518122733535,-0.0047801518122733535
266.192,0.003194143449948802,-0.003194143449948802
266.193,0.001259582408325224,-0.001259582408325224
266.19399999999996,0.0005058237234660689,0.0005058237234660689
266.195,0.001606582793592089,0.001606582793592089
266.19599999999997,0.0017173499313899744,0.0017173499313899744
266.197,0.0007979424359091537,0.0007979424359091537
266.198,0.0008676308295914524,-0.0008676308295914524
266.19899999999996,0.0027307896202235804,-0.0027307896202235804
266.2,0.004128077197358523,-0.004128077197358523
266.20099999999996,0.004480676562704409,-0.004480676562704409
266.202,0.0034828730681397955,-0.0034828730681397955
266.203,0.0012173643611798576,-0.0012173643611798576
266.204,0.0018446326279415045,0.0018446326279415045
266.205,0.004964865969200887,0.004964865969200887
266.20599999999996,0.007347768853695004,0.007347768853695004
266.207,0.008374756678956713,0.008374756678956713
266.20799999999997,0.007789344033579882,0.007789344033579882
266.209,0.005773530932302971,0.005773530932302971
266.21,0.002890219745059476,0.002890219745059476
266.21099999999996,9.037596575581621e-05,-9.037596575581621e-05
266.212,0.0024247349860369834,-0.0024247349860369834
266.21299999999997,0.003615491769235226,-0.003615491769235226
266.214,0.003546884639354781,-0.003546884639354781
266.215,0.00249513663623735,-0.00249513663623735
266.216,0.00101439302432119,-0.00101439302432119
266.217,0.0002603697108277137,0.0002603697108277137
266.21799999999996,0.000825849609784052,0.000825849609784052
266.219,0.00046769855201031,0.00046769855201031
266.21999999999997,0.0006873442399817017,-0.0006873442399817017
266.221,0.0022374165575488785,-0.0022374165575488785
266.222,0.0036622162219407364,-0.0036622162219407364
266.22299999999996,0.004513083973890068,-0.004513083973890068
266.224,0.00456953477399067,-0.00456953477399067
266.22499999999997,0.003908739371253418,-0.003908739371253418
266.226,0.0028658629822839172,-0.0028658629822839172
266.227,0.0019014201448340872,-0.0019014201448340872
266.228,0.0014237533935897151,-0.0014237533935897151
266.229,0.0016296972663606187,-0.0016296972663606187
266.22999999999996,0.0024197543219969674,-0.0024197543219969674
266.231,0.0034183914865149757,-0.0034183914865149757
266.23199999999997,0.004094337433863431,-0.004094337433863431
266.233,0.003942083259497971,-0.003942083259497971
266.234,0.0026652114718729615,-0.0026652114718729615
266.23499999999996,0.00030115317172871363,-0.00030115317172871363
266.236,0.0027545821942244688,0.0027545821942244688
266.23699999999997,0.005835077092426783,0.005835077092426783
266.238,0.008175515266121482,0.008175515266121482
266.239,0.009122986757086239,0.009122986757086239
266.24,0.008321410182118273,0.008321410182118273
266.241,0.005818294341596217,0.005818294341596217
266.24199999999996,0.0020634388109248675,0.0020634388109248675
266.243,0.0021990079881103325,-0.0021990079881103325
266.24399999999997,0.006113925969052315,-0.006113925969052315
266.245,0.008923044481132618,-0.008923044481132618
266.246,0.010141511867382378,-0.010141511867382378
266.24699999999996,0.009658362725952935,-0.009658362725952935
266.248,0.0077385130740824145,-0.0077385130740824145
266.24899999999997,0.004931180361462402,-0.004931180361462402
266.25,0.0019140118844193901,-0.0019140118844193901
266.251,0.0006826317117830233,0.0006826317117830233
266.252,0.002424296784360885,0.002424296784360885
266.253,0.0031570756503717227,0.0031570756503717227
266.25399999999996,0.003010608338501543,0.003010608338501543
266.255,0.002324650430323119,0.002324650430323119
266.256,0.0015247183706595289,0.0015247183706595289
266.257,0.0009848388968892248,0.0009848388968892248
266.258,0.0009171132442689807,0.0009171132442689807
266.25899999999996,0.001318518381672753,0.001318518381672753
266.26,0.0019878533260010707,0.0019878533260010707
266.26099999999997,0.0026049249152596834,0.0026049249152596834
266.262,0.0028457985603229986,0.0028457985603229986
266.263,0.0024974351582769815,0.0024974351582769815
266.264,0.0015354342178656502,0.0015354342178656502
266.265,0.00013998454986655177,0.00013998454986655177
266.26599999999996,0.001355674432093316,-0.001355674432093316
266.267,0.0025686069465012864,-0.0025686069465012864
266.268,0.0031887144667975998,-0.0031887144667975998
266.269,0.0030807827184109607,-0.0030807827184109607
266.27,0.00233193373653346,-0.00233193373653346
266.27099999999996,0.0012272611596200694,-0.0012272611596200694
266.272,0.00015961723330727836,-0.00015961723330727836
266.27299999999997,0.0004983687877682709,0.0004983687877682709
266.274,0.0005183592241973663,0.0005183592241973663
266.275,0.00010533674942836215,-0.00010533674942836215
266.27599999999995,0.0011508876864778762,-0.0011508876864778762
266.277,0.002241256788553556,-0.002241256788553556
266.27799999999996,0.0029711461961944513,-0.0029711461961944513
266.279,0.003046472387980763,-0.003046472387980763
266.28,0.002388568462835967,-0.002388568462835967
266.281,0.001166020689081902,-0.001166020689081902
266.282,0.0002588648841611136,0.0002588648841611136
266.28299999999996,0.0014524086786008913,0.0014524086786008913
266.284,0.0020593366016169144,0.0020593366016169144
266.28499999999997,0.0019275272954767685,0.0019275272954767685
266.286,0.0011624356917696564,0.0011624356917696564
266.287,8.953515691614666e-05,8.953515691614666e-05
266.28799999999995,0.0008645481687318535,-0.0008645481687318535
266.289,0.0013317316033706718,-0.0013317316033706718
266.28999999999996,0.001146060699978847,-0.001146060699978847
266.291,0.000417607924203364,-0.000417607924203364
266.292,0.0004940385904208249,0.0004940385904208249
266.293,0.0011024463150750097,0.0011024463150750097
266.294,0.0009738469340425719,0.0009738469340425719
266.29499999999996,9.844904360986701e-05,-9.844904360986701e-05
266.296,0.0019881872306339067,-0.0019881872306339067
266.29699999999997,0.0042413104162203315,-0.0042413104162203315
266.298,0.006197564619303335,-0.006197564619303335
266.299,0.007193478424811684,-0.007193478424811684
266.29999999999995,0.006781659974526967,-0.006781659974526967
266.301,0.0048928482195119425,-0.0048928482195119425
266.30199999999996,0.0018837583857768071,-0.0018837583857768071
266.303,0.001549568965866231,0.001549568965866231
266.304,0.004568649508607059,0.004568649508607059
266.305,0.006438142943099591,0.006438142943099591
266.306,0.00674157952111812,0.00674157952111812
266.30699999999996,0.005497920397172034,0.005497920397172034
266.308,0.0031422621504355055,0.0031422621504355055
266.30899999999997,0.0003789155917048662,0.0003789155917048662
266.31,0.0020430207509339196,-0.0020430207509339196
266.311,0.00355688964308203,-0.00355688964308203
266.31199999999995,0.003934765675595524,-0.003934765675595524
266.313,0.003324908179181337,-0.003324908179181337
266.31399999999996,0.00216392099563952,-0.00216392099563952
266.315,0.0009996433562944086,-0.0009996433562944086
266.316,0.00028963070141651523,-0.00028963070141651523
266.317,0.00024563971324675807,-0.00024563971324675807
266.318,0.0007755333856562458,-0.0007755333856562458
266.31899999999996,0.0015378482057871157,-0.0015378482057871157
266.32,0.002084154258324012,-0.002084154258324012
266.32099999999997,0.0020345491690316824,-0.0020345491690316824
266.322,0.001222328273528801,-0.001222328273528801
266.323,0.00024238574251428353,0.00024238574251428353
266.32399999999996,0.0020092694180856166,0.0020092694180856166
266.325,0.0036074171902287185,0.0036074171902287185
266.32599999999996,0.004602066081421549,0.004602066081421549
266.327,0.004731768954541896,0.004731768954541896
266.328,0.003979544176918547,0.003979544176918547
266.329,0.00255797880841593,0.00255797880841593
266.33,0.0008204807368070263,0.0008204807368070263
266.33099999999996,0.0008633386460432825,-0.0008633386460432825
266.332,0.002220104645646195,-0.002220104645646195
266.33299999999997,0.003133532558378895,-0.003133532558378895
266.334,0.0036373743041260907,-0.0036373743041260907
266.335,0.003852055912948754,-0.003852055912948754
266.33599999999996,0.0038982084666608838,-0.0038982084666608838
266.337,0.003827295815403907,-0.003827295815403907
266.33799999999997,0.0035996653530166174,-0.0035996653530166174
266.339,0.003118111817459833,-0.003118111817459833
266.34,0.002299860579216432,-0.002299860579216432
266.341,0.0011522455366089063,-0.0011522455366089063
266.342,0.00018534994219831526,0.00018534994219831526
266.34299999999996,0.0014572230910493665,0.0014572230910493665
266.344,0.0023643478824360575,0.0023643478824360575
266.34499999999997,0.0026689615249788474,0.0026689615249788474
266.346,0.0022893874794530336,0.0022893874794530336
266.347,0.0013445583369463,0.0013445583369463
266.34799999999996,0.00012542479281370166,0.00012542479281370166
266.349,0.0010013653431399075,-0.0010013653431399075
266.34999999999997,0.0017243746731529128,-0.0017243746731529128
266.351,0.0019036034007796187,-0.0019036034007796187
266.352,0.0016253333271683049,-0.0016253333271683049
266.353,0.001170106028086326,-0.001170106028086326
266.354,0.0009008588237472488,-0.0009008588237472488
266.35499999999996,0.0011099214712667277,-0.0011099214712667277
266.356,0.0018820948889518246,-0.0018820948889518246
266.35699999999997,0.0030285905003917665,-0.0030285905003917665
266.358,0.004123104148151095,-0.004123104148151095
266.359,0.004634649300853987,-0.004634649300853987
266.35999999999996,0.004115189108820036,-0.004115189108820036
266.361,0.0023772705018580637,-0.0023772705018580637
266.36199999999997,0.0004031941656961014,0.0004031941656961014
266.363,0.0037002722396897894,0.0037002722396897894
266.364,0.0067693902508225755,0.0067693902508225755
266.365,0.008857362164583289,0.008857362164583289
266.366,0.009423335452981716,0.009423335452981716
266.36699999999996,0.008297953248502953,0.008297953248502953
266.368,0.005728514078232294,0.005728514078232294
266.36899999999997,0.0022967164324093387,0.0022967164324093387
266.37,0.0012611086358328397,-0.0012611086358328397
266.371,0.0042690218519310956,-0.0042690218519310956
266.37199999999996,0.006289586185327816,-0.006289586185327816
266.373,0.007208672715741223,-0.007208672715741223
266.37399999999997,0.007205912671074065,-0.007205912671074065
266.375,0.006631418070965159,-0.006631418070965159
266.376,0.005841998918791327,-0.005841998918791327
266.377,0.005061813307664452,-0.005061813307664452
266.378,0.004319319842766307,-0.004319319842766307
266.37899999999996,0.0034800316477994293,-0.0034800316477994293
266.38,0.0023556006236825867,-0.0023556006236825867
266.381,0.0008392787258045824,-0.0008392787258045824
266.382,0.0009924584400071762,0.0009924584400071762
266.383,0.0028584791418323975,0.0028584791418323975
266.38399999999996,0.004345550274740177,0.004345550274740177
266.385,0.005050121409393297,0.005050121409393297
266.38599999999997,0.004735152290444773,0.004735152290444773
266.387,0.003439229975728678,0.003439229975728678
266.388,0.0014912938724805733,0.0014912938724805733
266.389,0.000580735377976443,-0.000580735377976443
266.39,0.002218419924268302,-0.002218419924268302
266.39099999999996,0.00301858101086642,-0.00301858101086642
266.392,0.002867916234811767,-0.002867916234811767
266.393,0.001975295772734973,-0.001975295772734973
266.394,0.00078789058096429,-0.00078789058096429
266.395,0.00017919830896050238,0.00017919830896050238
266.39599999999996,0.0005369139020645919,0.0005369139020645919
266.397,0.0001669161318639981,0.0001669161318639981
266.39799999999997,0.0007383941892965514,-0.0007383941892965514
266.399,0.001756803051479889,-0.001756803051479889
266.4,0.002408352154476105,-0.002408352154476105
266.40099999999995,0.0023530152885829466,-0.0023530152885829466
266.402,0.0015370331961879512,-0.0015370331961879512
266.40299999999996,0.00022884726536661547,-0.00022884726536661547
266.404,0.001073281268687673,0.001073281268687673
266.405,0.0018305542072962386,0.0018305542072962386
266.406,0.001679527681955716,0.001679527681955716
266.407,0.0005910873683034543,0.0005910873683034543
266.40799999999996,0.0010926637817950352,-0.0010926637817950352
266.409,0.0027646932852660746,-0.0027646932852660746
266.40999999999997,0.003769564009563378,-0.003769564009563378
266.411,0.003653374033085826,-0.003653374033085826
266.412,0.002353526178837627,-0.002353526178837627
266.41299999999995,0.00025251511423963764,-0.00025251511423963764
266.414,0.0019329934337721753,0.0019329934337721753
266.41499999999996,0.0033964454152778495,0.0033964454152778495
266.416,0.0035363842026683383,0.0035363842026683383
266.417,0.0021962305145867625,0.0021962305145867625
266.418,0.00024254798146430758,-0.00024254798146430758
266.419,0.002956792560613382,-0.002956792560613382
266.41999999999996,0.004944236654700141,-0.004944236654700141
266.421,0.005368293634153061,-0.005368293634153061
266.42199999999997,0.003867758983104526,-0.003867758983104526
266.423,0.0007211141218211039,-0.0007211141218211039
266.424,0.0031988560001200528,0.0031988560001200528
266.42499999999995,0.006674416138246918,0.006674416138246918
266.426,0.008520377957009915,0.008520377957009915
266.42699999999996,0.007968081332561133,0.007968081332561133
266.428,0.004928964607874308,0.004928964607874308
266.429,4.861174235182884e-05,4.861174235182884e-05
266.43,0.0054694973379183325,-0.0054694973379183325
266.431,0.010215517638318653,-0.010215517638318653
266.43199999999996,0.012987546671550899,-0.012987546671550899
266.433,0.013136477055531011,-0.013136477055531011
266.43399999999997,0.01073363836276421,-0.01073363836276421
266.435,0.006513407704963541,-0.006513407704963541
266.436,0.0016175791170821633,-0.0016175791170821633
266.43699999999995,0.0027679419162149528,0.0027679419162149528
266.438,0.005761961925649648,0.005761961925649648
266.43899999999996,0.007010652782877389,0.007010652782877389
266.44,0.006720063238070785,0.006720063238070785
266.441,0.005501957632165565,0.005501957632165565
266.442,0.004099757507652325,0.004099757507652325
266.443,0.0030988065512864587,0.0030988065512864587
266.44399999999996,0.0027246967047673933,0.0027246967047673933
266.445,0.0027965484264805235,0.0027965484264805235
266.44599999999997,0.0028432042593284934,0.0028432042593284934
266.447,0.0023308761378413104,0.0023308761378413104
266.448,0.0009119894713995579,0.0009119894713995579
266.44899999999996,0.0014000504696309226,-0.0014000504696309226
266.45,0.004195910298730173,-0.004195910298730173
266.45099999999996,0.006788396808972612,-0.006788396808972612
266.452,0.008440606792559051,-0.008440606792559051
266.453,0.008621667886235994,-0.008621667886235994
266.454,0.007198330794988708,-0.007198330794988708
266.455,0.00449431281215657,-0.00449431281215657
266.45599999999996,0.0011966485817391475,-0.0011966485817391475
266.457,0.0018579610080968981,0.0018579610080968981
266.45799999999997,0.003942811865836446,0.003942811865836446
266.459,0.0046586823737348945,0.0046586823737348945
266.46,0.004037742783037542,0.004037742783037542
266.46099999999996,0.0025034236234581704,0.0025034236234581704
266.462,0.0007057675914200024,0.0007057675914200024
266.46299999999997,0.0007068786181172427,-0.0007068786181172427
266.464,0.0013002913959960086,-0.0013002913959960086
266.465,0.0009808227465257036,-0.0009808227465257036
266.466,1.2307536314018324e-06,1.2307536314018324e-06
266.467,0.0011645391735142006,0.0011645391735142006
266.46799999999996,0.0019800872464240844,0.0019800872464240844
266.469,0.0020582053005649805,0.0020582053005649805
266.46999999999997,0.0012759074273580129,0.0012759074273580129
266.471,0.00019390599370770273,-0.00019390599370770273
266.472,0.0019534880165409697,-0.0019534880165409697
266.47299999999996,0.0035194072700916296,-0.0035194072700916296
266.474,0.004477435347067913,-0.004477435347067913
266.47499999999997,0.004600458721726368,-0.004600458721726368
266.476,0.003894809544709418,-0.003894809544709418
266.477,0.002568821714438013,-0.002568821714438013
266.478,0.0009449701369757422,-0.0009449701369757422
266.479,0.0006462938903610793,0.0006462938903610793
266.47999999999996,0.0019520340071083097,0.0019520340071083097
266.481,0.002836391549494119,0.002836391549494119
266.48199999999997,0.0032705274945213033,0.0032705274945213033
266.483,0.003289444763682724,0.003289444763682724
266.484,0.0029430868381917427,0.0029430868381917427
266.48499999999996,0.0022670959186884654,0.0022670959186884654
266.486,0.0012855887485238265,0.0012855887485238265
266.48699999999997,4.061676108865176e-05,4.061676108865176e-05
266.488,0.0013713711305500967,-0.0013713711305500967
266.489,0.002780435573615769,-0.002780435573615769
266.49,0.003958785729486984,-0.003958785729486984
266.491,0.0046728102361133315,-0.0046728102361133315
266.49199999999996,0.004755538021301651,-0.004755538021301651
266.493,0.004171737972253258,-0.004171737972253258
266.49399999999997,0.0030472847288466427,-0.0030472847288466427
266.495,0.001645979081902162,-0.001645979081902162
266.496,0.00029658327673322846,-0.00029658327673322846
266.49699999999996,0.0007071909598936897,0.0007071909598936897
266.498,0.001198717904919143,0.001198717904919143
266.49899999999997,0.0011882492744708895,0.0011882492744708895
266.5,0.0008503743076137144,0.0008503743076137144
266.501,0.0004517638173019983,0.0004517638173019983
266.502,0.0002446019710220981,0.0002446019710220981
266.503,0.0003651828658762555,0.0003651828658762555
266.50399999999996,0.000776734390129774,0.000776734390129774
266.505,0.0012801987062824383,0.0012801987062824383
266.506,0.0015916868912337508,0.0015916868912337508
266.507,0.0014597259411344334,0.0014597259411344334
266.508,0.0007788530629781526,0.0007788530629781526
266.50899999999996,0.0003448541869592639,-0.0003448541869592639
266.51,0.0016051243299956945,-0.0016051243299956945
266.51099999999997,0.002585491611679088,-0.002585491611679088
266.512,0.002900741362495857,-0.002900741362495857
266.513,0.0023421394828300668,-0.0023421394828300668
266.514,0.0009745432055696917,-0.0009745432055696917
266.515,0.0008524773964931925,0.0008524773964931925
266.51599999999996,0.002589467306939359,0.002589467306939359
266.517,0.0036454170687328985,0.0036454170687328985
266.518,0.0035713579462463237,0.0035713579462463237
266.519,0.0022107715373544698,0.0022107715373544698
266.52,0.00023258273287430563,-0.00023258273287430563
266.52099999999996,0.003233362142187176,-0.003233362142187176
266.522,0.006080339916463312,-0.006080339916463312
266.52299999999997,0.008069163394688127,-0.008069163394688127
266.524,0.008694711067460318,-0.008694711067460318
266.525,0.007786426066296191,-0.007786426066296191
266.52599999999995,0.00554847468140413,-0.00554847468140413
266.527,0.0024962375183044563,-0.0024962375183044563
266.52799999999996,0.0006883361318288857,0.0006883361318288857
266.529,0.0033374059119125605,0.0033374059119125605
266.53,0.0049612913864395545,0.0049612913864395545
266.531,0.005352059808868004,0.005352059808868004
266.532,0.0046040372688082995,0.0046040372688082995
266.53299999999996,0.003054627152475114,0.003054627152475114
266.534,0.0011710959949292278,0.0011710959949292278
266.53499999999997,0.0005789587679020126,-0.0005789587679020126
266.536,0.0018364618596711894,-0.0018364618596711894
266.537,0.0024136772123572762,-0.0024136772123572762
266.53799999999995,0.0023030374860506094,-0.0023030374860506094
266.539,0.0016408463470697025,-0.0016408463470697025
266.53999999999996,0.0006456721239651977,-0.0006456721239651977
266.541,0.0004461475751444203,0.0004461475751444203
266.542,0.001430482999367684,0.001430482999367684
266.543,0.0021628259340198933,0.0021628259340198933
266.544,0.0025645759549785866,0.0025645759549785866
266.54499999999996,0.002615750034032855,0.002615750034032855
266.546,0.0023428851568737994,0.0023428851568737994
266.54699999999997,0.0018079562605618797,0.0018079562605618797
266.548,0.0010993794240268654,0.0010993794240268654
266.549,0.00032239060907309,0.00032239060907309
266.54999999999995,0.00041478100929975094,-0.00041478100929975094
266.551,0.0010201804806297728,-0.0010201804806297728
266.55199999999996,0.0014398508396731024,-0.0014398508396731024
266.553,0.0016752330131889462,-0.0016752330131889462
266.554,0.001788262049003951,-0.001788262049003951
266.555,0.001888627537198967,-0.001888627537198967
266.556,0.002103199458578563,-0.002103199458578563
266.55699999999996,0.002534266218759337,-0.002534266218759337
266.558,0.0032183978319888433,-0.0032183978319888433
266.55899999999997,0.004099272592845418,-0.004099272592845418
266.56,0.005024830028718736,-0.005024830028718736
266.561,0.005772427732776908,-0.005772427732776908
266.56199999999995,0.006097431395587207,-0.006097431395587207
266.563,0.005793552539331601,-0.005793552539331601
266.56399999999996,0.004749530973562974,-0.004749530973562974
266.565,0.002987495107523212,-0.002987495107523212
266.566,0.0006730866666855537,-0.0006730866666855537
266.567,0.0019054447909134895,0.0019054447909134895
266.568,0.004384670198863639,0.004384670198863639
266.56899999999996,0.006389861897920285,0.006389861897920285
266.57,0.007602515952655051,0.007602515952655051
266.57099999999997,0.007818860026737314,0.007818860026737314
266.572,0.006989054640452646,0.006989054640452646
266.573,0.0052304040596942835,0.0052304040596942835
266.57399999999996,0.0028119705210353347,0.0028119705210353347
266.575,0.00011215917159834157,0.00011215917159834157
266.57599999999996,0.0024449725830588535,-0.0024449725830588535
266.577,0.004464865374907201,-0.004464865374907201
266.578,0.005655844551761474,-0.005655844551761474
266.579,0.005885787992348163,-0.005885787992348163
266.58,0.0052082917899239555,-0.0052082917899239555
266.58099999999996,0.0038494692720854964,-0.0038494692720854964
266.582,0.0021549854508157973,-0.0021549854508157973
266.58299999999997,0.0005073245294136642,-0.0005073245294136642
266.584,0.0007672538579463567,0.0007672538579463567
266.585,0.0014774173903942354,0.0014774173903942354
266.58599999999996,0.0016081175582192007,0.0016081175582192007
266.587,0.0013107496275335494,0.0013107496275335494
266.58799999999997,0.0008430242119853001,0.0008430242119853001
266.589,0.00047558915917430015,0.00047558915917430015
266.59,0.0003945749331053664,0.0003945749331053664
266.591,0.0006326867524424848,0.0006326867524424848
266.592,0.0010540491462850874,0.0010540491462850874
266.59299999999996,0.001401173806548004,0.001401173806548004
266.594,0.0013911647885975294,0.0013911647885975294
266.59499999999997,0.0008297160683519533,0.0008297160683519533
266.596,0.0002975271004017648,-0.0002975271004017648
266.597,0.0017919731949453828,-0.0017919731949453828
266.59799999999996,0.0032852364769395074,-0.0032852364769395074
266.599,0.004350259049748698,-0.004350259049748698
266.59999999999997,0.00464685834738815,-0.00464685834738815
266.601,0.004052525252745973,-0.004052525252745973
266.602,0.0027298543806306644,-0.0027298543806306644
266.603,0.0010999415752649267,-0.0010999415752649267
266.604,0.0002784524586307588,0.0002784524586307588
266.60499999999996,0.0008909229473459403,0.0008909229473459403
266.606,0.00045301889686009776,0.00045301889686009776
266.60699999999997,0.0009647470019984338,-0.0009647470019984338
266.608,0.002921493398928567,-0.002921493398928567
266.609,0.004715915866732698,-0.004715915866732698
266.60999999999996,0.005596040783932454,-0.005596040783932454
266.611,0.0050074843925391735,-0.0050074843925391735
266.61199999999997,0.00280119817364074,-0.00280119817364074
266.613,0.0006708507058305602,0.0006708507058305602
266.614,0.004611936097301371,0.004611936097301371
266.615,0.007981916007294568,0.007981916007294568
266.616,0.009789701404997074,0.009789701404997074
266.61699999999996,0.009390853026669786,0.009390853026669786
266.618,0.006698466731097787,0.006698466731097787
266.61899999999997,0.002238780166638917,0.002238780166638917
266.62,0.0029712028034940756,-0.0029712028034940756
266.621,0.0076924004687622845,-0.0076924004687622845
266.62199999999996,0.010801297392884041,-0.010801297392884041
266.623,0.011596915555994566,-0.011596915555994566
266.62399999999997,0.0099860325617695,-0.0099860325617695
266.625,0.006492502032596049,-0.006492502032596049
266.626,0.002090281214906207,-0.002090281214906207
266.627,0.0020866616471039994,0.0020866616471039994
266.628,0.005067917197980716,0.005067917197980716
266.62899999999996,0.006306013133317187,0.006306013133317187
266.63,0.005796482539143701,0.005796482539143701
266.631,0.0040289399586208065,0.0040289399586208065
266.632,0.0017928971146651635,0.0017928971146651635
266.633,9.373530251041587e-05,-9.373530251041587e-05
266.63399999999996,0.0010443353541076618,-0.0010443353541076618
266.635,0.000870249621362401,-0.000870249621362401
266.63599999999997,0.00019319607986929772,0.00019319607986929772
266.637,0.0016015524545562477,0.0016015524545562477
266.638,0.002711612931263325,0.002711612931263325
266.639,0.003012991898355512,0.003012991898355512
266.64,0.002303075360941488,0.002303075360941488
266.64099999999996,0.0007495529085048255,0.0007495529085048255
266.642,0.001175811944606654,-0.001175811944606654
266.643,0.002865260441259626,-0.002865260441259626
266.644,0.003785327664279115,-0.003785327664279115
266.645,0.0036578469877008605,-0.0036578469877008605
266.64599999999996,0.0025522793726959945,-0.0025522793726959945
266.647,0.0008611461348608628,-0.0008611461348608628
266.64799999999997,0.0008303810294857712,0.0008303810294857712
266.649,0.0019354704234533712,0.0019354704234533712
266.65,0.002053763641800545,0.002053763641800545
266.65099999999995,0.0010963289348679868,0.0010963289348679868
266.652,0.0006904069863334742,-0.0006904069863334742
266.65299999999996,0.002805885312527154,-0.002805885312527154
266.654,0.00465241060261195,-0.00465241060261195
266.655,0.00571595966722149,-0.00571595966722149
266.656,0.005713916422524487,-0.005713916422524487
266.657,0.004666170021970148,-0.004666170021970148
266.65799999999996,0.0028723017516188946,-0.0028723017516188946
266.659,0.000807695080156266,-0.000807695080156266
266.65999999999997,0.001024461404431143,0.001024461404431143
266.661,0.002237382904965478,0.002237382904965478
266.662,0.0026580112073143086,0.0026580112073143086
266.66299999999995,0.0023521853441656262,0.0023521853441656262
266.664,0.001576621563821544,0.001576621563821544
266.66499999999996,0.0006791407547323315,0.0006791407547323315
266.666,1.760049269037151e-05,-1.760049269037151e-05
266.667,0.00031200905409906304,-0.00031200905409906304
266.668,0.00017216002308641964,-0.00017216002308641964
266.669,0.00027258890378376537,0.00027258890378376537
266.66999999999996,0.0007883038082318373,0.0007883038082318373
266.671,0.0011191920762243434,0.0011191920762243434
266.67199999999997,0.0010688176538798872,0.0010688176538798872
266.673,0.0005561282321560058,0.0005561282321560058
266.674,0.00036688562335462764,-0.00036688562335462764
266.67499999999995,0.0015360727930191019,-0.0015360727930191019
266.676,0.00272361403314363,-0.00272361403314363
266.67699999999996,0.00369713946831697,-0.00369713946831697
266.678,0.004272512331589065,-0.004272512331589065
266.679,0.004348306159391264,-0.004348306159391264
266.68,0.0039173962580571434,-0.0039173962580571434
266.681,0.0030580197238464293,-0.0030580197238464293
266.68199999999996,0.001911013435566008,-0.001911013435566008
266.683,0.0006509792816849068,-0.0006509792816849068
266.68399999999997,0.0005424869603563342,0.0005424869603563342
266.685,0.001510095374503509,0.001510095374503509
266.686,0.0021335150914207975,0.0021335150914207975
266.68699999999995,0.002350977257128695,0.002350977257128695
266.688,0.0021667739664188957,0.0021667739664188957
266.68899999999996,0.0016524427668735155,0.0016524427668735155
266.69,0.0009370284535870845,0.0009370284535870845
266.691,0.0001851123720380267,0.0001851123720380267
266.692,0.0004356218132858412,-0.0004356218132858412
266.693,0.0007915706573405876,-0.0007915706573405876
266.69399999999996,0.0008162098204373806,-0.0008162098204373806
266.695,0.0005291222680224985,-0.0005291222680224985
266.69599999999997,3.3716247320038934e-05,-3.3716247320038934e-05
266.697,0.0005082098880689332,0.0005082098880689332
266.698,0.000919859201926631,0.000919859201926631
266.69899999999996,0.001059321380810991,0.001059321380810991
266.7,0.0008613226346464431,0.0008613226346464431
266.70099999999996,0.00035760145122899864,0.00035760145122899864
266.702,0.0003314169536844338,-0.0003314169536844338
266.703,0.0010321858758410305,-0.0010321858758410305
266.704,0.0015705045958398821,-0.0015705045958398821
266.705,0.001824611734491679,-0.001824611734491679
266.70599999999996,0.0017618290018248711,-0.0017618290018248711
266.707,0.0014465745422040874,-0.0014465745422040874
266.70799999999997,0.0010167669695190875,-0.0010167669695190875
266.709,0.000636198804368994,-0.000636198804368994
266.71,0.00043880078044809573,-0.00043880078044809573
266.71099999999996,0.0004838689737722268,-0.0004838689737722268
266.712,0.000737968394365686,-0.000737968394365686
266.71299999999997,0.0010902468942110717,-0.0010902468942110717
266.714,0.0013961860452231614,-0.0013961860452231614
266.715,0.0015343758851893037,-0.0015343758851893037
266.716,0.0014554874639163672,-0.0014554874639163672
266.717,0.0012044289895736635,-0.0012044289895736635
266.71799999999996,0.0009054889254516749,-0.0009054889254516749
266.719,0.0007133913014679424,-0.0007133913014679424
266.71999999999997,0.0007462231093814215,-0.0007462231093814215
266.721,0.0010244828935075615,-0.0010244828935075615
266.722,0.0014407219281739427,-0.0014407219281739427
266.72299999999996,0.0017756617785101563,-0.0017756617785101563
266.724,0.0017615453651640266,-0.0017615453651640266
266.72499999999997,0.0011765279928088943,-0.0011765279928088943
266.726,5.914160832389521e-05,5.914160832389521e-05
266.727,0.001818718257976202,0.001818718257976202
266.728,0.0037632184168922738,0.0037632184168922738
266.729,0.005404797254557553,0.005404797254557553
266.72999999999996,0.006228153629151183,0.006228153629151183
266.731,0.005838865962499968,0.005838865962499968
266.73199999999997,0.00409574980133167,0.00409574980133167
266.733,0.0011851587399422767,0.0011851587399422767
266.734,0.0023907168839963377,-0.0023907168839963377
266.73499999999996,0.005915633468536984,-0.005915633468536984
266.736,0.008628521088423503,-0.008628521088423503
266.73699999999997,0.009916098193801709,-0.009916098193801709
266.738,0.009475590335309751,-0.009475590335309751
266.739,0.007400606969862954,-0.007400606969862954
266.74,0.004163795656768016,-0.004163795656768016
266.741,0.0004988926016196913,-0.0004988926016196913
266.74199999999996,0.0027863364157321296,0.0027863364157321296
266.743,0.005014731127016339,0.005014731127016339
266.74399999999997,0.005805352235310874,0.005805352235310874
266.745,0.005155014481977881,0.005155014481977881
266.746,0.003415345726569254,0.003415345726569254
266.74699999999996,0.001175311125565176,0.001175311125565176
266.748,0.00091403925643354,-0.00091403925643354
266.74899999999997,0.002320529642966403,-0.002320529642966403
266.75,0.0027659900990764487,-0.0027659900990764487
266.751,0.0022797877369012615,-0.0022797877369012615
266.752,0.0011606839330745263,-0.0011606839330745263
266.753,0.00013560640230586844,0.00013560640230586844
266.75399999999996,0.0011450044731303257,0.0011450044731303257
266.755,0.00153356425521667,0.00153356425521667
266.756,0.0011859956348756247,0.0011859956348756247
266.757,0.00022231341060379036,0.00022231341060379036
266.758,0.001056010670285883,-0.001056010670285883
266.75899999999996,0.0022680376569503688,-0.0022680376569503688
266.76,0.0030688147397743737,-0.0030688147397743737
266.76099999999997,0.0032430783397103874,-0.0032430783397103874
266.762,0.0027523498086813774,-0.0027523498086813774
266.763,0.0017274777644451541,-0.0017274777644451541
266.764,0.00041606693612773364,-0.00041606693612773364
266.765,0.0008935533359636614,0.0008935533359636614
266.76599999999996,0.0019464722284822317,0.0019464722284822317
266.767,0.00257303542591836,0.00257303542591836
266.768,0.00270866708803756,0.00270866708803756
266.769,0.0023839282767236496,0.0023839282767236496
266.77,0.0016958971857038586,0.0016958971857038586
266.77099999999996,0.0007749930638757272,0.0007749930638757272
266.772,0.00024151975981611456,-0.00024151975981611456
266.77299999999997,0.0012247200918859389,-0.0012247200918859389
266.774,0.0020601932206604657,-0.0020601932206604657
266.775,0.0026515272093453387,-0.0026515272093453387
266.77599999999995,0.002927179066236354,-0.002927179066236354
266.777,0.002852616471605583,-0.002852616471605583
266.77799999999996,0.0024440680515889638,-0.0024440680515889638
266.779,0.0017762359976456416,-0.0017762359976456416
266.78,0.0009762480675967296,-0.0009762480675967296
266.781,0.00020045825660007036,-0.00020045825660007036
266.782,0.00040214959785838983,0.00040214959785838983
266.78299999999996,0.0007293254099420963,0.0007293254099420963
266.784,0.000753719225181578,0.000753719225181578
266.78499999999997,0.0005281064788716856,0.0005281064788716856
266.786,0.00016347002908989808,0.00016347002908989808
266.787,0.00021397285719589274,-0.00021397285719589274
266.78799999999995,0.0005116877884952058,-0.0005116877884952058
266.789,0.0007067107617559654,-0.0007067107617559654
266.78999999999996,0.0008529621925151479,-0.0008529621925151479
266.791,0.001054513314056721,-0.001054513314056721
266.792,0.0014126268191963923,-0.0014126268191963923
266.793,0.001965894426164162,-0.001965894426164162
266.794,0.0026477499119598575,-0.0026477499119598575
266.79499999999996,0.0032814788348673658,-0.0032814788348673658
266.796,0.0036203718097902486,-0.0036203718097902486
266.79699999999997,0.0034239806869356647,-0.0034239806869356647
266.798,0.002546595708116254,-0.002546595708116254
266.799,0.0010068806218095732,-0.0010068806218095732
266.79999999999995,0.0009885974282987698,0.0009885974282987698
266.801,0.0030810284776283045,0.0030810284776283045
266.80199999999996,0.004847283659928343,0.004847283659928343
266.803,0.005914333295178331,0.005914333295178331
266.804,0.006063691089914158,0.006063691089914158
266.805,0.005291190631231727,0.005291190631231727
266.806,0.0038015876732121812,0.0038015876732121812
266.80699999999996,0.0019394493140522857,0.0019394493140522857
266.808,7.985449222929205e-05,7.985449222929205e-05
266.80899999999997,0.0014834201793500095,-0.0014834201793500095
266.81,0.002613694651207316,-0.002613694651207316
266.811,0.0033457038751075327,-0.0033457038751075327
266.81199999999995,0.003835522584682717,-0.003835522584682717
266.813,0.004267060988573069,-0.004267060988573069
266.81399999999996,0.004752478190055511,-0.004752478190055511
266.815,0.005266444946710808,-0.005266444946710808
266.816,0.005641659135619155,-0.005641659135619155
266.817,0.0056296926105859155,-0.0056296926105859155
266.818,0.0050056380943808276,-0.0050056380943808276
266.81899999999996,0.0036767768927382584,-0.0036767768927382584
266.82,0.0017517998732902013,-0.0017517998732902013
266.82099999999997,0.00046005663276441934,0.00046005663276441934
266.822,0.002525452177854166,0.002525452177854166
266.823,0.004015991131993961,0.004015991131993961
266.82399999999996,0.004645729916429262,0.004645729916429262
266.825,0.004367376033487362,0.004367376033487362
266.82599999999996,0.0033901347094458874,0.0033901347094458874
266.827,0.0021092525313905573,0.0021092525313905573
266.828,0.0009692883703012642,0.0009692883703012642
266.829,0.00030833773663404516,0.00030833773663404516
266.83,0.00023924341686079367,0.00023924341686079367
266.83099999999996,0.0006123431368872175,0.0006123431368872175
266.832,0.001075985477131994,0.001075985477131994
266.83299999999997,0.0012156739984749833,0.0012156739984749833
266.834,0.0007230079381527487,0.0007230079381527487
266.835,0.00046733028671014376,-0.00046733028671014376
266.83599999999996,0.0021251045359266187,-0.0021251045359266187
266.837,0.0037804142799189254,-0.0037804142799189254
266.83799999999997,0.004873306219844132,-0.004873306219844132
266.839,0.004947862616601225,-0.004947862616601225
266.84,0.003823424948556545,-0.003823424948556545
266.841,0.0016810584982583023,-0.0016810584982583023
266.842,0.0009689186917338679,0.0009689186917338679
266.84299999999996,0.003431848637098377,0.003431848637098377
266.844,0.005040157474031779,0.005040157474031779
266.84499999999997,0.005361204633911775,0.005361204633911775
266.846,0.004331450232907432,0.004331450232907432
266.847,0.002271337602692542,0.002271337602692542
266.84799999999996,0.0002240293198179764,-0.0002240293198179764
266.849,0.0024806804962932997,-0.0024806804962932997
266.84999999999997,0.003960737105676731,-0.003960737105676731
266.851,0.004423229632499465,-0.004423229632499465
266.852,0.003977224282416146,-0.003977224282416146
266.853,0.003012181949036452,-0.003012181949036452
266.854,0.002033956990719231,-0.002033956990719231
266.85499999999996,0.001467809437075269,-0.001467809437075269
266.856,0.0015005068966913915,-0.0015005068966913915
266.85699999999997,0.0020182983244226627,-0.0020182983244226627
266.858,0.002661886919012353,-0.002661886919012353
