Czas,AbsSum,Sum
145.457,0.003034368759216326,-0.003034368759216326
145.458,0.0034190680235452135,-0.0034190680235452135
145.459,0.0029260888532991938,-0.0029260888532991938
145.46,0.0016389972396746834,-0.0016389972396746834
145.461,0.00010974541610783161,0.00010974541610783161
145.46200000000002,0.0018001114007092608,0.0018001114007092608
145.463,0.0028563340631028865,0.0028563340631028865
145.464,0.0028151499111126028,0.0028151499111126028
145.465,0.0014794372655900698,0.0014794372655900698
145.466,0.000994318902429833,-0.000994318902429833
145.467,0.004108892006627415,-0.004108892006627415
145.46800000000002,0.007143144117574582,-0.007143144117574582
145.469,0.00934269996416255,-0.00934269996416255
145.47,0.010128888163059546,-0.010128888163059546
145.471,0.009262344377487908,-0.009262344377487908
145.472,0.006910432142499593,-0.006910432142499593
145.473,0.0035974198959576706,-0.0035974198959576706
145.47400000000002,5.340861389373841e-05,-5.340861389373841e-05
145.475,0.0029900850317195536,0.0029900850317195536
145.476,0.004993990399568163,0.004993990399568163
145.477,0.0057363448911744086,0.0057363448911744086
145.478,0.005333617451295725,0.005333617451295725
145.479,0.004159672088647097,0.004159672088647097
145.48000000000002,0.002696848447350328,0.002696848447350328
145.481,0.001374019795672731,0.001374019795672731
145.482,0.00044705005515269355,0.00044705005515269355
145.483,4.1774428333124696e-05,-4.1774428333124696e-05
145.484,0.00021970512595832734,-0.00021970512595832734
145.485,0.00028078169456237004,-0.00028078169456237004
145.48600000000002,0.00037087988679001155,-0.00037087988679001155
145.487,0.0005094085528732857,-0.0005094085528732857
145.488,0.0005800511922479875,-0.0005800511922479875
145.489,0.00039411934812698005,-0.00039411934812698005
145.49,0.0002001073936172314,0.0002001073936172314
145.491,0.001208705932625654,0.001208705932625654
145.49200000000002,0.0024328101863415673,0.0024328101863415673
145.493,0.0034903337231861177,0.0034903337231861177
145.494,0.003920143440029726,0.003920143440029726
145.495,0.003337744415107024,0.003337744415107024
145.496,0.0015890796941128238,0.0015890796941128238
145.497,0.001154761294032388,-0.001154761294032388
145.49800000000002,0.004402133872373,-0.004402133872373
145.499,0.007452452656095314,-0.007452452656095314
145.5,0.009585623362754389,-0.009585623362754389
145.501,0.010271635729951704,-0.010271635729951704
145.502,0.009332949579991616,-0.009332949579991616
145.50300000000001,0.007005261903413278,-0.007005261903413278
145.50400000000002,0.003873995319025497,-0.003873995319025497
145.505,0.0007039731727101646,-0.0007039731727101646
145.506,0.001785194988123336,0.001785194988123336
145.507,0.0031273549055695882,0.0031273549055695882
145.508,0.0032359971739669455,0.0032359971739669455
145.50900000000001,0.002409252271194529,0.002409252271194529
145.51000000000002,0.0012138350251243034,0.0012138350251243034
145.511,0.0002870876314310722,0.0002870876314310722
145.512,0.0001221477532957437,0.0001221477532957437
145.513,0.0009056623262546367,0.0009056623262546367
145.514,0.0024592470304901364,0.0024592470304901364
145.51500000000001,0.004301409052384324,0.004301409052384324
145.51600000000002,0.00580749017470034,0.00580749017470034
145.517,0.00641420768395387,0.00641420768395387
145.518,0.005802423559529631,0.005802423559529631
145.519,0.004000535455106877,0.004000535455106877
145.52,0.0013778384277764125,0.0013778384277764125
145.52100000000002,0.00146696263559251,-0.00146696263559251
145.52200000000002,0.003884056000893997,-0.003884056000893997
145.523,0.005360144858784851,-0.005360144858784851
145.524,0.005657459793745002,-0.005657459793745002
145.525,0.004864080949109082,-0.004864080949109082
145.526,0.003345024057142179,-0.003345024057142179
145.52700000000002,0.0016147773374643923,-0.0016147773374643923
145.52800000000002,0.0001749341138746856,-0.0001749341138746856
145.529,0.0006314890478845243,0.0006314890478845243
145.53,0.0007060604174567004,0.0007060604174567004
145.531,0.00019960413223767733,0.00019960413223767733
145.532,0.0005596640831629217,-0.0005596640831629217
145.53300000000002,0.0011867724890373917,-0.0011867724890373917
145.53400000000002,0.0013690363952058656,-0.0013690363952058656
145.535,0.0009639416824657329,-0.0009639416824657329
145.536,3.906320584294537e-05,-3.906320584294537e-05
145.537,0.0011531047679141085,0.0011531047679141085
145.538,0.002252640866213953,0.002252640866213953
145.53900000000002,0.002895249107381824,0.002895249107381824
145.54000000000002,0.0028096139187831874,0.0028096139187831874
145.541,0.0018830615087993582,0.0018830615087993582
145.542,0.00018174749498057948,0.00018174749498057948
145.543,0.0020738487202780834,-0.0020738487202780834
145.544,0.004565172630045091,-0.004565172630045091
145.54500000000002,0.006944200446932943,-0.006944200446932943
145.54600000000002,0.008895387342186171,-0.008895387342186171
145.547,0.010177892267856512,-0.010177892267856512
145.548,0.010643724471337037,-0.010643724471337037
145.549,0.010235658957212046,-0.010235658957212046
145.55,0.008973858552710877,-0.008973858552710877
145.55100000000002,0.006940935907906458,-0.006940935907906458
145.55200000000002,0.004272117378138246,-0.004272117378138246
145.553,0.0011519185866218937,-0.0011519185866218937
145.554,0.002186452333606184,0.002186452333606184
145.555,0.0054658804986358065,0.0054658804986358065
145.556,0.008381161119584812,0.008381161119584812
145.55700000000002,0.010629409774197601,0.010629409774197601
145.55800000000002,0.011953219187979432,0.011953219187979432
145.559,0.012188953766784638,0.012188953766784638
145.56,0.011308399799348173,0.011308399799348173
145.561,0.009440956117106412,0.009440956117106412
145.562,0.0068663775256082036,0.0068663775256082036
145.56300000000002,0.003974422288592738,0.003974422288592738
145.56400000000002,0.0011962023549779602,0.0011962023549779602
145.565,0.0010795852979759203,-0.0010795852979759203
145.566,0.0025864951343849223,-0.0025864951343849223
145.567,0.0032358722580144187,-0.0032358722580144187
145.568,0.003131991101970204,-0.003131991101970204
145.56900000000002,0.002540049705725251,-0.002540049705725251
145.57000000000002,0.001812660608341067,-0.001812660608341067
145.571,0.0012925992450695857,-0.0012925992450695857
145.572,0.0012177445331099798,-0.0012177445331099798
145.573,0.0016554063585655881,-0.0016554063585655881
145.574,0.0024863894428486305,-0.0024863894428486305
145.57500000000002,0.0034454297787629433,-0.0034454297787629433
145.57600000000002,0.004207667259627823,-0.004207667259627823
145.577,0.00449569734276622,-0.00449569734276622
145.578,0.004173577826648252,-0.004173577826648252
145.579,0.003296324373535119,-0.003296324373535119
145.58,0.0020961883899585578,-0.0020961883899585578
145.58100000000002,0.000907093167758685,-0.000907093167758685
145.582,4.988442443779954e-05,-4.988442443779954e-05
145.583,0.00028364469879043496,0.00028364469879043496
145.584,0.00010651723710488581,0.00010651723710488581
145.585,0.00035861544372206127,-0.00035861544372206127
145.586,0.0007538313188734382,-0.0007538313188734382
145.58700000000002,0.0007200519687762298,-0.0007200519687762298
145.588,4.793942651050107e-05,-4.793942651050107e-05
145.589,0.0012082040065569235,0.0012082040065569235
145.59,0.002700261950668524,0.002700261950668524
145.591,0.0038622955522839035,0.0038622955522839035
145.592,0.004080288047557883,0.004080288047557883
145.59300000000002,0.0029088112255725874,0.0029088112255725874
145.594,0.0002657106073660575,0.0002657106073660575
145.595,0.0034650107802174116,-0.0034650107802174116
145.596,0.007469286324372855,-0.007469286324372855
145.597,0.010684401150201113,-0.010684401150201113
145.598,0.012085025841305275,-0.012085025841305275
145.59900000000002,0.010994967637694497,-0.010994967637694497
145.6,0.007329718379652671,-0.007329718379652671
145.601,0.0016880531403635794,-0.0016880531403635794
145.602,0.004748762775728048,0.004748762775728048
145.603,0.010495226815504265,0.010495226815504265
145.604,0.014146904761167341,0.014146904761167341
145.60500000000002,0.01476547025236306,0.01476547025236306
145.606,0.012150464323802772,0.012150464323802772
145.607,0.006913578971816549,0.006913578971816549
145.608,0.0003270710554564167,0.0003270710554564167
145.609,0.006015659258419352,-0.006015659258419352
145.61,0.01063249376084476,-0.01063249376084476
145.61100000000002,0.012553832037213301,-0.012553832037213301
145.612,0.011576146724072273,-0.011576146724072273
145.613,0.008294353745942262,-0.008294353745942262
145.614,0.0039049539783471018,-0.0039049539783471018
145.615,0.00016009079182452472,0.00016009079182452472
145.616,0.0026590484529661154,0.0026590484529661154
145.61700000000002,0.0028996570690235915,0.0028996570690235915
145.618,0.0009277195214107924,0.0009277195214107924
145.619,0.002506325386614627,-0.002506325386614627
145.62,0.006187066874813478,-0.006187066874813478
145.621,0.00880351996700197,-0.00880351996700197
145.622,0.00933584603989016,-0.00933584603989016
145.62300000000002,0.007346066219763112,-0.007346066219763112
145.624,0.003092547068076756,-0.003092547068076756
145.625,0.002556300143540254,0.002556300143540254
145.626,0.008373466898420575,0.008373466898420575
145.627,0.013108191238464406,0.013108191238464406
145.62800000000001,0.015803745546595405,0.015803745546595405
145.62900000000002,0.016010467179340647,0.016010467179340647
145.63,0.01384448668053155,0.01384448668053155
145.631,0.009892507674242332,0.009892507674242332
145.632,0.005008185312179928,0.005008185312179928
145.633,7.237271778882461e-05,7.237271778882461e-05
145.63400000000001,0.004209029831597093,-0.004209029831597093
145.63500000000002,0.007417747711275703,-0.007417747711275703
145.636,0.009430234830797916,-0.009430234830797916
145.637,0.010339617366815036,-0.010339617366815036
145.638,0.010337813209217887,-0.010337813209217887
145.639,0.00960921678792508,-0.00960921678792508
145.64000000000001,0.00827436756288154,-0.00827436756288154
145.64100000000002,0.006396533611119158,-0.006396533611119158
145.642,0.004036565719139501,-0.004036565719139501
145.643,0.001322099832543634,-0.001322099832543634
145.644,0.0015071514977637796,0.0015071514977637796
145.645,0.004104946316423797,0.004104946316423797
145.64600000000002,0.006079948769288189,0.006079948769288189
145.64700000000002,0.00709448993860595,0.00709448993860595
145.648,0.006965850348868081,0.006965850348868081
145.649,0.005732437848997638,0.005732437848997638
145.65,0.0036587038255011654,0.0036587038255011654
145.651,0.0011739491966191867,0.0011739491966191867
145.65200000000002,0.0012366704599894238,-0.0012366704599894238
145.65300000000002,0.00315412973642086,-0.00315412973642086
145.654,0.004321751503982426,-0.004321751503982426
145.655,0.004686714026019987,-0.004686714026019987
145.656,0.0043776474112003074,-0.0043776474112003074
145.657,0.0036314450735089425,-0.0036314450735089425
145.65800000000002,0.002699194055981569,-0.002699194055981569
145.65900000000002,0.0017664286117878506,-0.0017664286117878506
145.66,0.0009151199355856278,-0.0009151199355856278
145.661,0.00013714789075279269,-0.00013714789075279269
145.662,0.0006117421844082957,0.0006117421844082957
145.663,0.0013444625023954042,0.0013444625023954042
145.66400000000002,0.00199373039031652,0.00199373039031652
145.66500000000002,0.002406399110303135,0.002406399110303135
145.666,0.0023879621470865543,0.0023879621470865543
145.667,0.0017832140960436546,0.0017832140960436546
145.668,0.0005625489024499275,0.0005625489024499275
145.669,0.0011221577868156002,-0.0011221577868156002
145.67000000000002,0.0029400910104542054,-0.0029400910104542054
145.67100000000002,0.004451121163908469,-0.004451121163908469
145.672,0.005226974824510502,-0.005226974824510502
145.673,0.004987859893690148,-0.004987859893690148
145.674,0.0037091074841692356,-0.0037091074841692356
145.675,0.0016582504236270833,-0.0016582504236270833
145.67600000000002,0.0006570661815979832,0.0006570661815979832
145.67700000000002,0.0026218203553285678,0.0026218203553285678
145.678,0.003691195602674572,0.003691195602674572
145.679,0.003559909799029306,0.003559909799029306
145.68,0.002269098245236835,0.002269098245236835
145.681,0.0002128772200230576,0.0002128772200230576
145.68200000000002,0.001963940069521893,-0.001963940069521893
145.68300000000002,0.0035518643583408193,-0.0035518643583408193
145.684,0.003993875742041395,-0.003993875742041395
145.685,0.0030685978350880622,-0.0030685978350880622
145.686,0.0009814421155166654,-0.0009814421155166654
145.687,0.0016691722660226874,0.0016691722660226874
145.68800000000002,0.004047142253500835,0.004047142253500835
145.68900000000002,0.005315405303941923,0.005315405303941923
145.69,0.004887760077056073,0.004887760077056073
145.691,0.0026221197529617706,0.0026221197529617706
145.692,0.0011042403756865169,-0.0011042403756865169
145.693,0.005464656506974122,-0.005464656506974122
145.69400000000002,0.009384283797588938,-0.009384283797588938
145.69500000000002,0.011820244303546576,-0.011820244303546576
145.696,0.012044286107465009,-0.012044286107465009
145.697,0.009848890287457716,-0.009848890287457716
145.698,0.005617794598295493,-0.005617794598295493
145.699,0.0002391593645533778,-0.0002391593645533778
145.70000000000002,0.00511646323355218,0.00511646323355218
145.70100000000002,0.009293200263934237,0.009293200263934237
145.702,0.011440770527573963,0.011440770527573963
145.703,0.011220097597560244,0.011220097597560244
145.704,0.00886907293443945,0.00886907293443945
145.705,0.005113872945774592,0.005113872945774592
145.70600000000002,0.0009548688484642006,0.0009548688484642006
145.707,0.002609261842500579,-0.002609261842500579
145.708,0.004840116390900168,-0.004840116390900168
145.709,0.005429579526319667,-0.005429579526319667
145.71,0.0045384438177822305,-0.0045384438177822305
145.711,0.0027009290602697774,-0.0027009290602697774
145.71200000000002,0.0006318551551953014,-0.0006318551551953014
145.713,0.000999903537203928,0.000999903537203928
145.714,0.0017616236890006752,0.0017616236890006752
145.715,0.0015559069162542978,0.0015559069162542978
145.716,0.0006057913346650428,0.0006057913346650428
145.717,0.0006598204082063512,-0.0006598204082063512
145.71800000000002,0.001775031592744783,-0.001775031592744783
145.719,0.0023999489561107755,-0.0023999489561107755
145.72,0.002423375878716444,-0.002423375878716444
145.721,0.0019744759441556307,-0.0019744759441556307
145.722,0.0013458462946485746,-0.0013458462946485746
145.723,0.0008615133145102469,-0.0008615133145102469
145.72400000000002,0.0007416806411651371,-0.0007416806411651371
145.725,0.001015476837541682,-0.001015476837541682
145.726,0.0015139422707236936,-0.0015139422707236936
145.727,0.0019449894801670288,-0.0019449894801670288
145.728,0.0020210481521274718,-0.0020210481521274718
145.729,0.001589765240980112,-0.001589765240980112
145.73000000000002,0.0007159455894196245,-0.0007159455894196245
145.731,0.0003200556512537076,0.0003200556512537076
145.732,0.0011118688240120743,0.0011118688240120743
145.733,0.0012759166061442155,0.0012759166061442155
145.734,0.0006071097726504127,0.0006071097726504127
145.735,0.0008164699979105932,-0.0008164699979105932
145.73600000000002,0.0026225138843019393,-0.0026225138843019393
145.737,0.004238340471183454,-0.004238340471183454
145.738,0.005064198611590005,-0.005064198611590005
145.739,0.00467124591924988,-0.00467124591924988
145.74,0.0029581387269888124,-0.0029581387269888124
145.741,0.00021140878273588843,-0.00021140878273588843
145.74200000000002,0.0029547181827014064,0.0029547181827014064
145.743,0.005763788041225007,0.005763788041225007
145.744,0.007497328787504557,0.007497328787504557
145.745,0.007700556891039921,0.007700556891039921
145.746,0.006308781195797612,0.006308781195797612
145.747,0.0036559328905818376,0.0036559328905818376
145.74800000000002,0.00036567850642160715,0.00036567850642160715
145.749,0.0028360664649280647,-0.0028360664649280647
145.75,0.005323953140994944,-0.005323953140994944
145.751,0.006725851723722869,-0.006725851723722869
145.752,0.006980287353628144,-0.006980287353628144
145.75300000000001,0.006289072003989787,-0.006289072003989787
145.75400000000002,0.004993068105621486,-0.004993068105621486
145.755,0.0034249674541319943,-0.0034249674541319943
145.756,0.0017980041564424462,-0.0017980041564424462
145.757,0.00017203910176377595,-0.00017203910176377595
145.758,0.001494767389322977,0.001494767389322977
145.75900000000001,0.0032367060733052805,0.0032367060733052805
145.76000000000002,0.004966912501304994,0.004966912501304994
145.761,0.006416720420965199,0.006416720420965199
145.762,0.0071659968308785404,0.0071659968308785404
145.763,0.006766403787727582,0.006766403787727582
145.764,0.004919966682600754,0.004919966682600754
145.76500000000001,0.00164749982351863,0.00164749982351863
145.76600000000002,0.0026231250930277045,-0.0026231250930277045
145.767,0.007096814608555985,-0.007096814608555985
145.768,0.010784845555688968,-0.010784845555688968
145.769,0.012769610782895515,-0.012769610782895515
145.77,0.012480964745287473,-0.012480964745287473
145.77100000000002,0.009893084364406318,-0.009893084364406318
145.77200000000002,0.00557037285103799,-0.00557037285103799
145.773,0.0005365970497681626,-0.0005365970497681626
145.774,0.004001382088851963,0.004001382088851963
145.775,0.006994467673258449,0.006994467673258449
145.776,0.007851501627013424,0.007851501627013424
145.77700000000002,0.006603288572455735,0.006603288572455735
145.77800000000002,0.003876812003585091,0.003876812003585091
145.779,0.000686519630661911,0.000686519630661911
145.78,0.0018911657194790156,-0.0018911657194790156
145.781,0.0030558461942462273,-0.0030558461942462273
145.782,0.002525470864047765,-0.002525470864047765
145.78300000000002,0.0006065901580449185,-0.0006065901580449185
145.78400000000002,0.0019268844411566874,0.0019268844411566874
145.785,0.0041028508625171045,0.0041028508625171045
145.786,0.005076711340165256,0.005076711340165256
145.787,0.004405466466412392,0.004405466466412392
145.788,0.002181776096640057,0.002181776096640057
145.78900000000002,0.0010115051668026986,-0.0010115051668026986
145.79000000000002,0.004304705361801247,-0.004304705361801247
145.791,0.006828775741413833,-0.006828775741413833
145.792,0.007987253291891825,-0.007987253291891825
145.793,0.007622294188654082,-0.007622294188654082
145.794,0.006024247276519804,-0.006024247276519804
145.79500000000002,0.0037903829405629094,-0.0037903829405629094
145.79600000000002,0.0015907615158748684,-0.0015907615158748684
145.797,7.049343591958968e-05,7.049343591958968e-05
145.798,0.0010122516444155954,0.0010122516444155954
145.799,0.0013983638283216586,0.0013983638283216586
145.8,0.0016225431982141991,0.0016225431982141991
145.80100000000002,0.0021051571037780576,0.0021051571037780576
145.80200000000002,0.003083228708939171,0.003083228708939171
145.803,0.004476928376820706,0.004476928376820706
145.804,0.005886975320794709,0.005886975320794709
145.805,0.006728254507930958,0.006728254507930958
145.806,0.006453435158674871,0.006453435158674871
145.80700000000002,0.004785161430390825,0.004785161430390825
145.80800000000002,0.0018693415523300398,0.0018693415523300398
145.809,0.0017123605651664703,-0.0017123605651664703
145.81,0.005084350470561141,-0.005084350470561141
145.811,0.007332535802258846,-0.007332535802258846
145.812,0.007791636834130606,-0.007791636834130606
145.81300000000002,0.006269281266123869,-0.006269281266123869
145.81400000000002,0.003130863645943262,-0.003130863645943262
145.815,0.000785837576858061,0.000785837576858061
145.816,0.004401765022125641,0.004401765022125641
145.817,0.006701741737650045,0.006701741737650045
145.818,0.007019024968769094,0.007019024968769094
145.81900000000002,0.0052130155687172795,0.0052130155687172795
145.82000000000002,0.0016901323759665099,0.0016901323759665099
145.821,0.0027309994122291558,-0.0027309994122291558
145.822,0.007060434311064875,-0.007060434311064875
145.823,0.010404470357814834,-0.010404470357814834
145.824,0.0121783480546982,-0.0121783480546982
145.82500000000002,0.012207128714107628,-0.012207128714107628
145.82600000000002,0.010699073952011114,-0.010699073952011114
145.827,0.008118564462279688,-0.008118564462279688
145.828,0.005014910823270443,-0.005014910823270443
145.829,0.0018701424608299421,-0.0018701424608299421
145.83,0.0009874993181406735,0.0009874993181406735
145.83100000000002,0.003389186978350208,0.003389186978350208
145.832,0.005268796758354307,0.005268796758354307
145.833,0.00658524376994143,0.00658524376994143
145.834,0.007268980681375309,0.007268980681375309
145.835,0.00722199240970902,0.00722199240970902
145.836,0.006372584426076923,0.006372584426076923
145.83700000000002,0.004757955739528008,0.004757955739528008
145.838,0.0025909084554305295,0.0025909084554305295
145.839,0.00026930457296887893,0.00026930457296887893
145.84,0.0016922777073609461,-0.0016922777073609461
145.841,0.0027976119063752975,-0.0027976119063752975
145.842,0.00272948657808707,-0.00272948657808707
145.84300000000002,0.00147855766323899,-0.00147855766323899
145.844,0.0006121773169923464,0.0006121773169923464
145.845,0.002914364525582556,0.002914364525582556
145.846,0.004682031740021877,0.004682031740021877
145.847,0.005272618165902398,0.005272618165902398
145.848,0.004351643150174722,0.004351643150174722
145.84900000000002,0.0020124752376371466,0.0020124752376371466
145.85,0.0012322797623234925,-0.0012322797623234925
145.851,0.004590166782783395,-0.004590166782783395
145.852,0.007218148404477811,-0.007218148404477811
145.853,0.008470282028049897,-0.008470282028049897
145.854,0.008085252762716991,-0.008085252762716991
145.85500000000002,0.006254363021155388,-0.006254363021155388
145.856,0.0035496764622985457,-0.0035496764622985457
145.857,0.0007378326439460041,-0.0007378326439460041
145.858,0.001457971938162348,0.001457971938162348
145.859,0.0025697012261352947,0.0025697012261352947
145.86,0.002502570995247757,0.002502570995247757
145.86100000000002,0.0015254349898052627,0.0015254349898052627
145.862,0.00014337654125547725,0.00014337654125547725
145.863,0.0010980958043567198,-0.0010980958043567198
145.864,0.0018063496850186094,-0.0018063496850186094
145.865,0.001865083048846725,-0.001865083048846725
145.866,0.001447474174459173,-0.001447474174459173
145.86700000000002,0.0009189913556041125,-0.0009189913556041125
145.868,0.0006694164057680903,-0.0006694164057680903
145.869,0.0009385254697867659,-0.0009385254697867659
145.87,0.0017014999060665952,-0.0017014999060665952
145.871,0.0026581725131243376,-0.0026581725131243376
145.872,0.003332553725292275,-0.003332553725292275
145.87300000000002,0.003249034000048653,-0.003249034000048653
145.874,0.0021232599351768554,-0.0021232599351768554
145.875,1.1573069202239617e-06,1.1573069202239617e-06
145.876,0.0027218110123712396,0.0027218110123712396
145.877,0.005368990794316016,0.005368990794316016
145.87800000000001,0.007194549893812831,0.007194549893812831
145.87900000000002,0.007599697733834407,0.007599697733834407
145.88,0.006328922039523223,0.006328922039523223
145.881,0.0035668201659968587,0.0035668201659968587
145.882,9.511735429711108e-05,-9.511735429711108e-05
145.883,0.0038137928813786882,-0.0038137928813786882
145.88400000000001,0.006725630521325677,-0.006725630521325677
145.88500000000002,0.008184000255732354,-0.008184000255732354
145.886,0.007932157620967084,-0.007932157620967084
145.887,0.0061616786446186955,-0.0061616786446186955
145.888,0.003442029702701758,-0.003442029702701758
145.889,0.0005459070478726106,-0.0005459070478726106
145.89000000000001,0.0017748691637079685,0.0017748691637079685
145.89100000000002,0.002995726723974138,0.002995726723974138
145.892,0.002949147484401462,0.002949147484401462
145.893,0.001844598984980145,0.001844598984980145
145.894,0.00017933274385705655,0.00017933274385705655
145.895,0.0014273756372078096,-0.0014273756372078096
145.89600000000002,0.0024237408556393924,-0.0024237408556393924
145.89700000000002,0.0024825571510118374,-0.0024825571510118374
145.898,0.0015829636920739341,-0.0015829636920739341
145.899,1.2340582356710858e-06,1.2340582356710858e-06
145.9,0.0017966913876834958,0.0017966913876834958
145.901,0.0032761069316683254,0.0032761069316683254
145.90200000000002,0.004009595091870125,0.004009595091870125
145.90300000000002,0.0037791702185056386,0.0037791702185056386
145.904,0.002627482077091369,0.002627482077091369
145.905,0.0008325615435730608,0.0008325615435730608
145.906,0.0011786716863221084,-0.0011786716863221084
145.907,0.0029498619765684357,-0.0029498619765684357
145.90800000000002,0.00411297884908297,-0.00411297884908297
145.90900000000002,0.004473282701784243,-0.004473282701784243
145.91,0.004041885748182772,-0.004041885748182772
145.911,0.00301189303492081,-0.00301189303492081
145.912,0.0016893378364253372,-0.0016893378364253372
145.913,0.0004011206049009078,-0.0004011206049009078
145.91400000000002,0.0005934785682989264,0.0005934785682989264
145.91500000000002,0.0011639605743774869,0.0011639605743774869
145.916,0.0013274626536761084,0.0013274626536761084
145.917,0.0012225395695146227,0.0012225395695146227
145.918,0.00104757454012005,0.00104757454012005
145.919,0.0009831547047072676,0.0009831547047072676
145.92000000000002,0.001122145830961106,0.001122145830961106
145.92100000000002,0.0014292047698819797,0.0014292047698819797
145.922,0.0017434250128833366,0.0017434250128833366
145.923,0.0018255918806506005,0.0018255918806506005
145.924,0.0014381984848858686,0.0014381984848858686
145.925,0.00043555551766199147,0.00043555551766199147
145.92600000000002,0.0011637157991768725,-0.0011637157991768725
145.92700000000002,0.003146807070419334,-0.003146807070419334
145.928,0.005134027703764797,-0.005134027703764797
145.929,0.0066619947315215864,-0.0066619947315215864
145.93,0.007304286842409074,-0.007304286842409074
145.931,0.006797771101517231,-0.006797771101517231
145.93200000000002,0.005137627835905795,-0.005137627835905795
145.93300000000002,0.0026095241614610804,-0.0026095241614610804
145.934,0.0002571530572176933,0.0002571530572176933
145.935,0.0028093087061697402,0.0028093087061697402
145.936,0.004435602008874467,0.004435602008874467
145.937,0.004733821087420883,0.004733821087420883
145.93800000000002,0.003632531747249641,0.003632531747249641
145.93900000000002,0.0014290723493521037,0.0014290723493521037
145.94,0.0012724117113954163,-0.0012724117113954163
145.941,0.003711334250283989,-0.003711334250283989
145.942,0.005171709828783813,-0.005171709828783813
145.943,0.005179593915982603,-0.005179593915982603
145.94400000000002,0.00364115242524226,-0.00364115242524226
145.94500000000002,0.0008803270329911067,-0.0008803270329911067
145.946,0.0024376447858017072,0.0024376447858017072
145.947,0.005478350074474881,0.005478350074474881
145.948,0.007459629648295624,0.007459629648295624
145.949,0.007860932207409119,0.007860932207409119
145.95000000000002,0.006561699063390427,0.006561699063390427
145.95100000000002,0.0038695583916601977,0.0038695583916601977
145.952,0.0004304641098776068,0.0004304641098776068
145.953,0.002953133156858107,-0.002953133156858107
145.954,0.005543445344173773,-0.005543445344173773
145.955,0.006863966159656009,-0.006863966159656009
145.95600000000002,0.006815194355927879,-0.006815194355927879
145.957,0.005677236084184958,-0.005677236084184958
145.958,0.004000711049103073,-0.004000711049103073
145.959,0.0024205816436907697,-0.0024205816436907697
145.96,0.0014503780965793806,-0.0014503780965793806
145.961,0.0013199597634070872,-0.0013199597634070872
145.96200000000002,0.0019066781169092624,-0.0019066781169092624
145.963,0.002781467623946408,-0.002781467623946408
145.964,0.0033563644199575402,-0.0033563644199575402
145.965,0.00308865337896956,-0.00308865337896956
145.966,0.0016786525153114288,-0.0016786525153114288
145.967,0.0008013626677593855,0.0008013626677593855
145.96800000000002,0.0038902986122977164,0.0038902986122977164
145.969,0.006843973953440848,0.006843973953440848
145.97,0.008837316096427092,0.008837316096427092
145.971,0.009206970887317964,0.009206970887317964
145.972,0.007663967619919372,0.007663967619919372
145.973,0.004411921540737399,0.004411921540737399
145.97400000000002,0.00013103233583464563,0.00013103233583464563
145.975,0.004174810478276808,-0.004174810478276808
145.976,0.007431462845470813,-0.007431462845470813
145.977,0.008782166628700967,-0.008782166628700967
145.978,0.007830835484470505,-0.007830835484470505
145.979,0.004771834678802322,-0.004771834678802322
145.98000000000002,0.0003660352804222891,-0.0003660352804222891
145.981,0.004236212167371504,0.004236212167371504
145.982,0.007782782903561855,0.007782782903561855
145.983,0.009244589502140278,0.009244589502140278
145.984,0.008092085322865162,0.008092085322865162
145.985,0.004449093837225837,0.004449093837225837
145.98600000000002,0.0009191292672196371,-0.0009191292672196371
145.987,0.006783422888343016,-0.006783422888343016
145.988,0.011749966469012784,-0.011749966469012784
145.989,0.014605042212812657,-0.014605042212812657
145.99,0.014616883661495755,-0.014616883661495755
145.991,0.011717366677363322,-0.011717366677363322
145.99200000000002,0.006517848490739544,-0.006517848490739544
145.993,0.000156811606018734,-0.000156811606018734
145.994,0.005979582478824047,0.005979582478824047
145.995,0.010590991000307665,0.010590991000307665
145.996,0.01276530856057984,0.01276530856057984
145.997,0.012175421766895952,0.012175421766895952
145.99800000000002,0.00912548353170931,0.00912548353170931
145.999,0.004442326703045938,0.004442326703045938
146.0,0.000752465404795939,-0.000752465404795939
146.001,0.005325629141849482,-0.005325629141849482
146.002,0.008395951622030759,-0.008395951622030759
146.00300000000001,0.009514148717223343,-0.009514148717223343
146.00400000000002,0.008720763776387449,-0.008720763776387449
146.005,0.006478618786977363,-0.006478618786977363
146.006,0.0035093005734045802,-0.0035093005734045802
146.007,0.0005855241368804673,-0.0005855241368804673
146.008,0.0016623487011405654,0.0016623487011405654
146.00900000000001,0.0028773225225699702,0.0028773225225699702
146.01000000000002,0.0030181738687757092,0.0030181738687757092
146.011,0.0023141618798012027,0.0023141618798012027
146.012,0.001156780638808982,0.001156780638808982
146.013,3.257445657309055e-05,-3.257445657309055e-05
146.014,0.0009187555347685032,-0.0009187555347685032
146.01500000000001,0.0013229203023413618,-0.0013229203023413618
146.01600000000002,0.001234367548213688,-0.001234367548213688
146.017,0.0007710805560936612,-0.0007710805560936612
146.018,0.00011038290199039168,-0.00011038290199039168
146.019,0.0005828707759974059,0.0005828707759974059
146.02,0.0012064551970151162,0.0012064551970151162
146.02100000000002,0.0017357098834394923,0.0017357098834394923
146.02200000000002,0.002203319604706319,0.002203319604706319
146.023,0.0026561065759332773,0.0026561065759332773
146.024,0.0031078603152428727,0.0031078603152428727
146.025,0.0035071852752723734,0.0035071852752723734
146.026,0.003733058999212034,0.003733058999212034
146.02700000000002,0.0036208057679479786,0.0036208057679479786
146.02800000000002,0.0030109321182914266,0.0030109321182914266
146.029,0.0018059072894784935,0.0018059072894784935
146.03,1.7474614960641006e-05,1.7474614960641006e-05
146.031,0.002210220643882589,-0.002210220643882589
146.032,0.0046097023165846416,-0.0046097023165846416
146.03300000000002,0.006830917924236879,-0.006830917924236879
146.03400000000002,0.008505185999817618,-0.008505185999817618
146.035,0.009318345322153764,-0.009318345322153764
146.036,0.009077129278501687,-0.009077129278501687
146.037,0.007754391817154602,-0.007754391817154602
146.038,0.005503311721865523,-0.005503311721865523
146.03900000000002,0.0026369708824323787,-0.0026369708824323787
146.04000000000002,0.0004235073311608144,0.0004235073311608144
146.041,0.0032229195541025654,0.0032229195541025654
146.042,0.005354167756963212,0.005354167756963212
146.043,0.0065326536831501435,0.0065326536831501435
146.044,0.006647657213831908,0.006647657213831908
146.04500000000002,0.005779357463830667,0.005779357463830667
146.04600000000002,0.004176767421216068,0.004176767421216068
146.047,0.0022001636032373127,0.0022001636032373127
146.048,0.0002399335357845862,0.0002399335357845862
146.049,0.0013699067790262707,-0.0013699067790262707
146.05,0.002422874376580355,-0.002422874376580355
146.05100000000002,0.002877918411091425,-0.002877918411091425
146.05200000000002,0.0028538415620297532,-0.0028538415620297532
146.053,0.0025811893076361373,-0.0025811893076361373
146.054,0.002324315849140729,-0.002324315849140729
146.055,0.002295322941033544,-0.002295322941033544
146.056,0.0025848553460988857,-0.0025848553460988857
146.05700000000002,0.0031308460172475125,-0.0031308460172475125
146.05800000000002,0.0037358432149500894,-0.0037358432149500894
146.059,0.004129237577716584,-0.004129237577716584
146.06,0.004056694483633288,-0.004056694483633288
146.061,0.0033697678814294117,-0.0033697678814294117
146.062,0.0020872423107478714,-0.0020872423107478714
146.06300000000002,0.00040714649863221467,-0.00040714649863221467
146.06400000000002,0.001337216527674254,0.001337216527674254
146.065,0.0027666310580186527,0.0027666310580186527
146.066,0.00356533707473294,0.00356533707473294
146.067,0.003577477306997417,0.003577477306997417
146.068,0.00286012793294827,0.00286012793294827
146.06900000000002,0.0016745073490643954,0.0016745073490643954
146.07000000000002,0.00041530376725441013,0.00041530376725441013
146.071,0.0005028530898171741,-0.0005028530898171741
146.072,0.0007688836501562976,-0.0007688836501562976
146.073,0.00027167894594547145,-0.00027167894594547145
146.074,0.0008604216199027757,0.0008604216199027757
146.07500000000002,0.0022904319881911343,0.0022904319881911343
146.07600000000002,0.003566153243675753,0.003566153243675753
146.077,0.004249575845981334,0.004249575845981334
146.078,0.004044448965423596,0.004044448965423596
146.079,0.002884483904951566,0.002884483904951566
146.08,0.0009563318047112201,0.0009563318047112201
146.08100000000002,0.0013490104312760883,-0.0013490104312760883
146.082,0.003541384593861193,-0.003541384593861193
146.083,0.005161717603237898,-0.005161717603237898
146.084,0.005899109130107079,-0.005899109130107079
146.085,0.005661646780150261,-0.005661646780150261
146.086,0.00458294730662502,-0.00458294730662502
146.08700000000002,0.0029665956846379694,-0.0029665956846379694
146.088,0.001189400832464252,-0.001189400832464252
146.089,0.0004042219601729852,0.0004042219601729852
146.09,0.001583849109656761,0.001583849109656761
146.091,0.0022678297261370934,0.0022678297261370934
146.092,0.00250558021338534,0.00250558021338534
146.09300000000002,0.002419954076444023,0.002419954076444023
146.094,0.00213535492222248,0.00213535492222248
146.095,0.0017208149995770862,0.0017208149995770862
146.096,0.0011701422587959331,0.0011701422587959331
146.097,0.00042603512178505145,0.00042603512178505145
146.098,0.0005627727357291226,-0.0005627727357291226
146.09900000000002,0.0017762723851260992,-0.0017762723851260992
146.1,0.0030796734344752485,-0.0030796734344752485
146.101,0.00422507412441799,-0.00422507412441799
146.102,0.004905861904604731,-0.004905861904604731
146.103,0.004851281057941322,-0.004851281057941322
146.104,0.003931334905072106,-0.003931334905072106
146.10500000000002,0.0022342653609108737,-0.0022342653609108737
146.106,8.388364193245559e-05,-8.388364193245559e-05
146.107,0.0020186875258854015,0.0020186875258854015
146.108,0.003519793398605834,0.003519793398605834
146.109,0.003971665357275143,0.003971665357275143
146.11,0.0031767246255955182,0.0031767246255955182
146.11100000000002,0.0012698989302831303,0.0012698989302831303
146.112,0.0012930723094584525,-0.0012930723094584525
146.113,0.0038456359939696328,-0.0038456359939696328
146.114,0.005691754461906785,-0.005691754461906785
146.115,0.006306892481617069,-0.006306892481617069
146.116,0.00549741859244146,-0.00549741859244146
146.11700000000002,0.003466829783602881,-0.003466829783602881
146.118,0.0007640705565531528,-0.0007640705565531528
146.119,0.0018745166543226866,0.0018745166543226866
146.12,0.003743741218346796,0.003743741218346796
146.121,0.004381658242156103,0.004381658242156103
146.122,0.0037079418012010198,0.0037079418012010198
146.12300000000002,0.0020428093004242528,0.0020428093004242528
146.124,1.933026101838008e-06,-1.933026101838008e-06
146.125,0.001726671091331245,-0.001726671091331245
146.126,0.002577372254684309,-0.002577372254684309
146.127,0.002331551811109012,-0.002331551811109012
146.12800000000001,0.0011731123923456224,-0.0011731123923456224
146.12900000000002,0.0003725314134617574,0.0003725314134617574
146.13,0.0016254800940634514,0.0016254800940634514
146.131,0.002000706023977261,0.002000706023977261
146.132,0.00123587106364637,0.00123587106364637
146.133,0.0004831858971064485,-0.0004831858971064485
146.13400000000001,0.002549591650171773,-0.002549591650171773
146.13500000000002,0.004116443391220288,-0.004116443391220288
146.136,0.004380700436076924,-0.004380700436076924
146.137,0.002880862544309179,-0.002880862544309179
146.138,0.00029133582582517917,0.00029133582582517917
146.139,0.00444326597260183,0.00444326597260183
146.14000000000001,0.008427216157090443,0.008427216157090443
146.14100000000002,0.01094815752912595,0.01094815752912595
146.142,0.010947871654300632,0.010947871654300632
146.143,0.00795041490779575,0.00795041490779575
146.144,0.002259599885005115,0.002259599885005115
146.145,0.0050604227231605264,-0.0050604227231605264
146.14600000000002,0.012426862412024982,-0.012426862412024982
146.14700000000002,0.018140260368051286,-0.018140260368051286
146.148,0.020834486355730507,-0.020834486355730507
146.149,0.01984545090592405,-0.01984545090592405
146.15,0.015391200112245752,-0.015391200112245752
146.151,0.00851075876896479,-0.00851075876896479
146.15200000000002,0.0007798921371437438,-0.0007798921371437438
146.15300000000002,0.006112840378910986,0.006112840378910986
146.154,0.010806705635863063,0.010806705635863063
146.155,0.01260081355104493,0.01260081355104493
146.156,0.011587537463525652,0.011587537463525652
146.157,0.008558600494988104,0.008558600494988104
146.15800000000002,0.004722917541623749,0.004722917541623749
146.15900000000002,0.0013287276750299606,0.0013287276750299606
146.16,0.0006942277250541921,-0.0006942277250541921
146.161,0.0009695859934459964,-0.0009695859934459964
146.162,0.0002733135716018042,0.0002733135716018042
146.163,0.002330537289056871,0.002330537289056871
146.16400000000002,0.004283842716022605,0.004283842716022605
146.16500000000002,0.005301294052984941,0.005301294052984941
146.166,0.0048847030505495,0.0048847030505495
146.167,0.002994946480813269,0.002994946480813269
146.168,2.9942304540504575e-05,2.9942304540504575e-05
146.169,0.003322505680592042,-0.003322505680592042
146.17000000000002,0.006299124782812535,-0.006299124782812535
146.17100000000002,0.008271410451633428,-0.008271410451633428
146.172,0.008890869260640926,-0.008890869260640926
146.173,0.008137114222596132,-0.008137114222596132
146.174,0.006271702114445837,-0.006271702114445837
146.175,0.003729401083278141,-0.003729401083278141
146.17600000000002,0.0009920560636484848,-0.0009920560636484848
146.17700000000002,0.001514211849015465,0.001514211849015465
146.178,0.0034758235061191807,0.0034758235061191807
146.179,0.004702766210326748,0.004702766210326748
146.18,0.005111839681308073,0.005111839681308073
146.181,0.004706225221904817,0.004706225221904817
146.18200000000002,0.003568620387478693,0.003568620387478693
146.18300000000002,0.001869869457560904,0.001869869457560904
146.184,0.0001206802299634653,-0.0001206802299634653
146.185,0.0020448603152501397,-0.0020448603152501397
146.186,0.0035028470806764797,-0.0035028470806764797
146.187,0.004139578589599228,-0.004139578589599228
146.18800000000002,0.0037514564575891972,-0.0037514564575891972
146.18900000000002,0.0023777636680271707,-0.0023777636680271707
146.19,0.0003370795170764027,-0.0003370795170764027
146.191,0.0018188701306566242,0.0018188701306566242
146.192,0.003435604868676257,0.003435604868676257
146.193,0.003941105357269382,0.003941105357269382
146.19400000000002,0.0030316756093549586,0.0030316756093549586
146.19500000000002,0.0007961529998530751,0.0007961529998530751
146.196,0.00227036098576538,-0.00227036098576538
146.197,0.005379704348658086,-0.005379704348658086
146.198,0.007665886778377234,-0.007665886778377234
146.199,0.008441063882443343,-0.008441063882443343
146.20000000000002,0.007412751596690605,-0.007412751596690605
146.20100000000002,0.004790315620032347,-0.004790315620032347
146.202,0.0012410202712219442,-0.0012410202712219442
146.203,0.002296844064529878,0.002296844064529878
146.204,0.004889395243952775,0.004889395243952775
146.205,0.005886224044554441,0.005886224044554441
146.20600000000002,0.0051147174428387105,0.0051147174428387105
146.207,0.00292689544555566,0.00292689544555566
146.208,8.281697137598319e-05,8.281697137598319e-05
146.209,0.002492645248674473,-0.002492645248674473
146.21,0.004001661567210035,-0.004001661567210035
146.211,0.004020098304593856,-0.004020098304593856
146.21200000000002,0.002620067729274604,-0.002620067729274604
146.213,0.0003303027803921414,-0.0003303027803921414
146.214,0.0020505547322822626,0.0020505547322822626
146.215,0.003724812322295033,0.003724812322295033
146.216,0.0041610229576188535,0.0041610229576188535
146.217,0.0032669411673429943,0.0032669411673429943
146.21800000000002,0.0014146393871145467,0.0014146393871145467
146.219,0.0006888084020379578,-0.0006888084020379578
146.22,0.0022414705236269215,-0.0022414705236269215
146.221,0.002618825380443494,-0.002618825380443494
146.222,0.0015904520145464084,-0.0015904520145464084
146.223,0.0005873219686023048,0.0005873219686023048
146.22400000000002,0.003230939775469127,0.003230939775469127
146.225,0.005421651663857281,0.005421651663857281
146.226,0.006270636595038535,0.006270636595038535
146.227,0.0051780387435446905,0.0051780387435446905
146.228,0.0020119852207955836,0.0020119852207955836
146.229,0.0028394541783868478,-0.0028394541783868478
146.23000000000002,0.008551738240374392,-0.008551738240374392
146.231,0.014053397597681781,-0.014053397597681781
146.232,0.018266640346090515,-0.018266640346090515
146.233,0.020336574306193775,-0.020336574306193775
146.234,0.019797080010073746,-0.019797080010073746
146.235,0.01664395736616295,-0.01664395736616295
146.23600000000002,0.011312055972687713,-0.011312055972687713
146.237,0.004574593917751367,-0.004574593917751367
146.238,0.0026051330977498524,0.0026051330977498524
146.239,0.009237582026089333,0.009237582026089333
146.24,0.014459582392427115,0.014459582392427115
146.241,0.01765699188719829,0.01765699188719829
146.24200000000002,0.01854552525087198,0.01854552525087198
146.243,0.017202233327134116,0.017202233327134116
146.244,0.014043019537362056,0.014043019537362056
146.245,0.009745632422966635,0.009745632422966635
146.246,0.005124898238609568,0.005124898238609568
146.247,0.0009775583329941714,0.0009775583329941714
146.24800000000002,0.002074816537414757,-0.002074816537414757
146.249,0.003709471549873121,-0.003709471549873121
146.25,0.003959300204895965,-0.003959300204895965
146.251,0.0031826005790329356,-0.0031826005790329356
146.252,0.0019478631123725073,-0.0019478631123725073
146.25300000000001,0.0008612766049567563,-0.0008612766049567563
146.25400000000002,0.00038488947265569916,-0.00038488947265569916
146.255,0.0007002904119513746,-0.0007002904119513746
146.256,0.0016620565249121882,-0.0016620565249121882
146.257,0.0028587522157562666,-0.0028587522157562666
146.258,0.00376462717620461,-0.00376462717620461
146.25900000000001,0.003933782429262635,-0.003933782429262635
146.26000000000002,0.0031717380925653784,-0.0031717380925653784
146.261,0.0016240172003860601,-0.0016240172003860601
146.262,0.00025268932879764954,0.00025268932879764954
146.263,0.0018318851770886655,0.0018318851770886655
146.264,0.002526736501507265,0.002526736501507265
146.26500000000001,0.0019974695047688122,0.0019974695047688122
146.26600000000002,0.0002843134013960626,0.0002843134013960626
146.267,0.002183254145542409,-0.002183254145542409
146.268,0.004708894552576146,-0.004708894552576146
146.269,0.006545857958628444,-0.006545857958628444
146.27,0.007136200588983565,-0.007136200588983565
146.27100000000002,0.006291840979628845,-0.006291840979628845
146.27200000000002,0.004255050866879019,-0.004255050866879019
146.273,0.0016167708087672019,-0.0016167708087672019
146.274,0.0008798048908116813,0.0008798048908116813
146.275,0.002582901268664653,0.002582901268664653
146.276,0.003139018744929957,0.003139018744929957
146.27700000000002,0.002591961646160444,0.002591961646160444
146.27800000000002,0.0013414157353579131,0.0013414157353579131
146.279,2.1395804251807805e-05,-2.1395804251807805e-05
146.28,0.0009395360621226159,-0.0009395360621226159
146.281,0.0010945170209022948,-0.0010945170209022948
146.282,0.0005142487574110419,-0.0005142487574110419
146.28300000000002,0.00045381051450039907,0.00045381051450039907
146.28400000000002,0.00129254712817284,0.00129254712817284
146.285,0.0015301325908731868,0.0015301325908731868
146.286,0.0009371171226429565,0.0009371171226429565
146.287,0.00037118572266763066,-0.00037118572266763066
146.288,0.001968663378284746,-0.001968663378284746
146.28900000000002,0.003278617138093079,-0.003278617138093079
146.29000000000002,0.003800990812479975,-0.003800990812479975
146.291,0.0033194781708935518,-0.0033194781708935518
146.292,0.002005865965644795,-0.002005865965644795
146.293,0.0003752214566557785,-0.0003752214566557785
146.294,0.0008990067646487019,0.0008990067646487019
146.29500000000002,0.0012463968989216035,0.0012463968989216035
146.29600000000002,0.0004408646800870555,0.0004408646800870555
146.297,0.001272965728268318,-0.001272965728268318
146.298,0.003225684345214079,-0.003225684345214079
146.299,0.004537676025617102,-0.004537676025617102
146.3,0.004435602279709119,-0.004435602279709119
146.30100000000002,0.0025618099098103464,-0.0025618099098103464
146.30200000000002,0.0008372330736687933,0.0008372330736687933
146.303,0.004921432847999628,0.004921432847999628
146.304,0.008478621457482096,0.008478621457482096
146.305,0.010295644104046249,0.010295644104046249
146.306,0.009561682251769907,0.009561682251769907
146.30700000000002,0.006168883641444028,0.006168883641444028
146.30800000000002,0.0008034706921115361,0.0008034706921115361
146.309,0.0052137935652243166,-0.0052137935652243166
146.31,0.010296956025880273,-0.010296956025880273
146.311,0.013062503841155109,-0.013062503841155109
146.312,0.012748458357807494,-0.012748458357807494
146.31300000000002,0.009450800910620895,-0.009450800910620895
146.31400000000002,0.00410017497164052,-0.00410017497164052
146.315,0.0018153256281216478,0.0018153256281216478
146.316,0.00669420274528447,0.00669420274528447
146.317,0.009292567052388866,0.009292567052388866
146.318,0.009075231031349454,0.009075231031349454
146.31900000000002,0.006340630963127543,0.006340630963127543
146.32000000000002,0.0020876058995736575,0.0020876058995736575
146.321,0.0023250205071087306,-0.0023250205071087306
146.322,0.005610957939037921,-0.005610957939037921
146.323,0.00694112642977562,-0.00694112642977562
146.324,0.006161940980221883,-0.006161940980221883
146.32500000000002,0.003787607377859271,-0.003787607377859271
146.32600000000002,0.0007824758164483734,-0.0007824758164483734
146.327,0.0017838197099905606,0.0017838197099905606
146.328,0.0030895783742081904,0.0030895783742081904
146.329,0.002808559763519995,0.002808559763519995
146.33,0.0011796784630523193,0.0011796784630523193
146.33100000000002,0.001110407186166146,-0.001110407186166146
146.332,0.0031795438794394405,-0.0031795438794394405
146.333,0.004245198819692894,-0.004245198819692894
146.334,0.0038643817292529858,-0.0038643817292529858
146.335,0.0020473200012950878,-0.0020473200012950878
146.336,0.0007779360436115127,0.0007779360436115127
146.33700000000002,0.003921688995440868,0.003921688995440868
146.338,0.0066451787356163125,0.0066451787356163125
146.339,0.008355278316321041,0.008355278316321041
146.34,0.008724065443613285,0.008724065443613285
146.341,0.007711036592214487,0.007711036592214487
146.342,0.005503801233267975,0.005503801233267975
146.34300000000002,0.0024195031799627113,0.0024195031799627113
146.344,0.0011850269860882155,-0.0011850269860882155
146.345,0.004961419448044211,-0.004961419448044211
146.346,0.008570804227382099,-0.008570804227382099
146.347,0.011659457763379892,-0.011659457763379892
146.348,0.013845244345316076,-0.013845244345316076
146.34900000000002,0.014746392978241788,-0.014746392978241788
146.35,0.014062288952945286,-0.014062288952945286
146.351,0.011686376884793764,-0.011686376884793764
146.352,0.0078071957662220175,-0.0078071957662220175
146.353,0.002946540324935719,-0.002946540324935719
146.354,0.0021012281122472463,0.0021012281122472463
146.35500000000002,0.006431515890526117,0.006431515890526117
146.356,0.009256644294318219,0.009256644294318219
146.357,0.010130192327328516,0.010130192327328516
146.358,0.009092026823555244,0.009092026823555244
146.359,0.006676129298933704,0.006676129298933704
146.36,0.00376503136236913,0.00376503136236913
146.36100000000002,0.001326078905989538,0.001326078905989538
146.362,0.00010800532849847244,0.00010800532849847244
146.363,0.00039540207157794463,0.00039540207157794463
146.364,0.0019053800035137322,0.0019053800035137322
146.365,0.0038678305290812454,0.0038678305290812454
146.366,0.005271545700967103,0.005271545700967103
146.36700000000002,0.005202565545436547,0.005202565545436547
146.368,0.003167587912502839,0.003167587912502839
146.369,0.0007038542862887507,-0.0007038542862887507
146.37,0.005648790267631265,-0.005648790267631265
146.371,0.010462216161970898,-0.010462216161970898
146.372,0.013836406888716055,-0.013836406888716055
146.37300000000002,0.014745966453227082,-0.014745966453227082
146.374,0.01276062825708086,-0.01276062825708086
146.375,0.008189447203388095,-0.008189447203388095
146.376,0.0020120361383940788,-0.0020120361383940788
146.377,0.0043820099894752934,0.0043820099894752934
146.37800000000001,0.009566424862575423,0.009566424862575423
146.37900000000002,0.012453057092758483,0.012453057092758483
146.38,0.01255990705225853,0.01255990705225853
146.381,0.010100322962092356,0.010100322962092356
146.382,0.00587786238744802,0.00587786238744802
146.383,0.0010297293307953087,0.0010297293307953087
146.38400000000001,0.0032964579608711756,-0.0032964579608711756
146.38500000000002,0.006234650870600075,-0.006234650870600075
146.386,0.007380969703960594,-0.007380969703960594
146.387,0.006823719970749529,-0.006823719970749529
146.388,0.005033025065153973,-0.005033025065153973
146.389,0.0026617690953134663,-0.0026617690953134663
146.39000000000001,0.00033057751887763826,-0.00033057751887763826
146.39100000000002,0.0015347568137219782,0.0015347568137219782
146.392,0.0027708541136907245,0.0027708541136907245
146.393,0.0034436010795003175,0.0034436010795003175
146.394,0.0037430264244230757,0.0037430264244230757
146.395,0.0038557816321302383,0.0038557816321302383
146.39600000000002,0.003866298315033931,0.003866298315033931
146.39700000000002,0.003721217605344525,0.003721217605344525
146.398,0.003264641548356111,0.003264641548356111
146.399,0.002324516505299074,0.002324516505299074
146.4,0.0008125722943980595,0.0008125722943980595
146.401,0.0012027826769641125,-0.0012027826769641125
146.40200000000002,0.0034794604123711487,-0.0034794604123711487
146.40300000000002,0.0056481074435229695,-0.0056481074435229695
146.404,0.007306635776462227,-0.007306635776462227
146.405,0.008131233249112477,-0.008131233249112477
146.406,0.007967494589209905,-0.007967494589209905
146.407,0.006873010335917265,-0.006873010335917265
146.40800000000002,0.005099432648383823,-0.005099432648383823
146.40900000000002,0.003021574462857832,-0.003021574462857832
146.41,0.001036953529116955,-0.001036953529116955
146.411,0.0005333851443545183,0.0005333851443545183
146.412,0.0015145434811655379,0.0015145434811655379
146.413,0.001900627166421301,0.001900627166421301
146.41400000000002,0.0018285638444899613,0.0018285638444899613
146.41500000000002,0.0015150078158121321,0.0015150078158121321
146.416,0.001177943624434686,0.001177943624434686
146.417,0.0009670559587002792,0.0009670559587002792
146.418,0.0009224673869154719,0.0009224673869154719
146.419,0.0009720507003094915,0.0009720507003094915
146.42000000000002,0.0009661981808145406,0.0009661981808145406
146.42100000000002,0.0007387154096926236,0.0007387154096926236
146.422,0.00017573914129548912,0.00017573914129548912
146.423,0.0007274759096961254,-0.0007274759096961254
146.424,0.001839222493952473,-0.001839222493952473
146.425,0.002903793534279661,-0.002903793534279661
146.42600000000002,0.00359434273274101,-0.00359434273274101
146.42700000000002,0.003596249261197877,-0.003596249261197877
146.428,0.0027019739740536076,-0.0027019739740536076
146.429,0.0008929586655446774,-0.0008929586655446774
146.43,0.0016157909460744354,0.0016157909460744354
146.431,0.0043863022962362065,0.0043863022962362065
146.43200000000002,0.006828996459621222,0.006828996459621222
146.43300000000002,0.008324700565625393,0.008324700565625393
146.434,0.008371943140082496,0.008371943140082496
146.435,0.00672381428609609,0.00672381428609609
146.436,0.0034770207310478867,0.0034770207310478867
146.437,0.0009154453641692512,-0.0009154453641692512
146.43800000000002,0.00571860674245513,-0.00571860674245513
146.43900000000002,0.010064422016994475,-0.010064422016994475
146.44,0.013141468877011842,-0.013141468877011842
146.441,0.014378060918527051,-0.014378060918527051
146.442,0.01357078445264625,-0.01357078445264625
146.443,0.010923673627058554,-0.010923673627058554
146.44400000000002,0.0069872175042966,-0.0069872175042966
146.44500000000002,0.0025143340715015608,-0.0025143340715015608
146.446,0.001726054457914793,0.001726054457914793
146.447,0.005125533290895792,0.005125533290895792
146.448,0.007354506161310187,0.007354506161310187
146.449,0.008392701244186963,0.008392701244186963
146.45000000000002,0.008469815487569426,0.008469815487569426
146.45100000000002,0.007941893213600414,0.007941893213600414
146.452,0.007147902952464329,0.007147902952464329
146.453,0.0062950057270394185,0.0062950057270394185
146.454,0.005409040171078121,0.005409040171078121
146.455,0.00436295720793727,0.00436295720793727
146.45600000000002,0.002968445290943643,0.002968445290943643
146.457,0.0010941339910542191,0.0010941339910542191
146.458,0.001235077451414316,-0.001235077451414316
146.459,0.003795955005250129,-0.003795955005250129
146.46,0.006200110241603319,-0.006200110241603319
146.461,0.007993783056239026,-0.007993783056239026
146.46200000000002,0.008791947714813068,-0.008791947714813068
146.463,0.008401930309453015,-0.008401930309453015
146.464,0.006894531754734623,-0.006894531754734623
146.465,0.004597734972442259,-0.004597734972442259
146.466,0.0020135074470731826,-0.0020135074470731826
146.467,0.00031670549997753173,0.00031670549997753173
146.46800000000002,0.0019558997774211406,0.0019558997774211406
146.469,0.002680715463431187,0.002680715463431187
146.47,0.0025240343177398115,0.0025240343177398115
146.471,0.001741292584156383,0.001741292584156383
146.472,0.0007152883205577127,0.0007152883205577127
146.473,0.00016723317470136284,-0.00016723317470136284
146.47400000000002,0.0006272441440188593,-0.0006272441440188593
146.475,0.0005601132452877252,-0.0005601132452877252
146.476,4.120571497379538e-05,-4.120571497379538e-05
146.477,0.000724527215046449,0.000724527215046449
146.478,0.0014861204056704218,0.0014861204056704218
146.479,0.002031871545165645,0.002031871545165645
146.48000000000002,0.0022476998713722887,0.0022476998713722887
146.481,0.002132392467757418,0.002132392467757418
146.482,0.0017704912846464135,0.0017704912846464135
146.483,0.001278719512829566,0.001278719512829566
146.484,0.0007499334830392171,0.0007499334830392171
146.485,0.00021722809555035978,0.00021722809555035978
146.48600000000002,0.00034882431313668197,-0.00034882431313668197
146.487,0.0010106922761728336,-0.0010106922761728336
146.488,0.0018158038825646472,-0.0018158038825646472
146.489,0.0027505286589238707,-0.0027505286589238707
146.49,0.003715897912761546,-0.003715897912761546
146.491,0.004536483892350032,-0.004536483892350032
146.49200000000002,0.005001635908711399,-0.005001635908711399
146.493,0.004926599360122409,-0.004926599360122409
146.494,0.004213969928494493,-0.004213969928494493
146.495,0.0028956454861262114,-0.0028956454861262114
146.496,0.001141634651220057,-0.001141634651220057
146.497,0.000767701499681877,0.000767701499681877
146.49800000000002,0.0024987353814586192,0.0024987353814586192
146.499,0.0037359845043846056,0.0037359845043846056
146.5,0.004249988967325393,0.004249988967325393
146.501,0.003946015210308562,0.003946015210308562
146.502,0.0028838173528054766,0.0028838173528054766
146.50300000000001,0.0012659575220524955,0.0012659575220524955
146.50400000000002,0.0006012780973025886,-0.0006012780973025886
146.505,0.0023658360251261183,-0.0023658360251261183
146.506,0.00369599542947261,-0.00369599542947261
146.507,0.004343469213330406,-0.004343469213330406
146.508,0.004193036151214093,-0.004193036151214093
146.50900000000001,0.003289637706623921,-0.003289637706623921
146.51000000000002,0.0018362173817942809,-0.0018362173817942809
146.511,0.00015940688568041086,-0.00015940688568041086
146.512,0.001354204904131364,0.001354204904131364
146.513,0.0023415206433345494,0.0023415206433345494
146.514,0.002549638583730371,0.002549638583730371
146.51500000000001,0.0019051063073861065,0.0019051063073861065
146.51600000000002,0.0005456054852180055,0.0005456054852180055
146.517,0.00119937045949509,-0.00119937045949509
146.518,0.0028801479503622563,-0.0028801479503622563
146.519,0.004037308957735635,-0.004037308957735635
146.52,0.004324292225212874,-0.004324292225212874
146.52100000000002,0.0036086510735523765,-0.0036086510735523765
146.52200000000002,0.0020210463935184083,-0.0020210463935184083
146.523,6.646478576268157e-05,6.646478576268157e-05
146.524,0.002131764026958817,0.002131764026958817
146.525,0.0036415382079557773,0.0036415382079557773
146.526,0.00419970339815793,0.00419970339815793
146.52700000000002,0.0036621723156064745,0.0036621723156064745
146.52800000000002,0.002182609362835559,0.002182609362835559
146.529,0.0001730989214458578,0.0001730989214458578
146.53,0.0018111476710229834,-0.0018111476710229834
146.531,0.003230526569023257,-0.003230526569023257
146.532,0.0037165965743622556,-0.0037165965743622556
146.53300000000002,0.003177799583986212,-0.003177799583986212
146.53400000000002,0.0018231174106240037,-0.0018231174106240037
146.535,9.60902783347005e-05,-9.60902783347005e-05
146.536,0.0014610785340391766,0.0014610785340391766
146.537,0.0023721881984533444,0.0023721881984533444
146.538,0.002370517167218128,0.002370517167218128
146.53900000000002,0.0014776982892315894,0.0014776982892315894
146.54000000000002,5.59698011890033e-06,-5.59698011890033e-06
146.541,0.0015938736019844284,-0.0015938736019844284
146.542,0.002767031929572378,-0.002767031929572378
146.543,0.0031311547772092576,-0.0031311547772092576
146.544,0.002541768912925957,-0.002541768912925957
146.54500000000002,0.0011531657202266342,-0.0011531657202266342
146.54600000000002,0.0006205061090217439,0.0006205061090217439
146.547,0.002220934706910342,0.002220934706910342
146.548,0.003104952489345054,0.003104952489345054
146.549,0.002902584764157355,0.002902584764157355
146.55,0.0015301139235348097,0.0015301139235348097
146.55100000000002,0.0007725574826675559,-0.0007725574826675559
146.55200000000002,0.003490268394426501,-0.003490268394426501
146.553,0.005954244621540815,-0.005954244621540815
146.554,0.007506218810854635,-0.007506218810854635
146.555,0.00766423486416977,-0.00766423486416977
146.556,0.006249582687488575,-0.006249582687488575
146.55700000000002,0.0034440261968223633,-0.0034440261968223633
146.55800000000002,0.00023707659405870679,0.00023707659405870679
146.559,0.004050908439390068,0.004050908439390068
146.56,0.007189775930924194,0.007189775930924194
146.561,0.008964278297054094,0.008964278297054094
146.562,0.008965625451758623,0.008965625451758623
146.56300000000002,0.007168845451423122,0.007168845451423122
146.56400000000002,0.003950311574883731,0.003950311574883731
146.565,1.1373623708473899e-05,1.1373623708473899e-05
146.566,0.0037785075935072286,-0.0037785075935072286
146.567,0.0065854472768737005,-0.0065854472768737005
146.568,0.00781404428402501,-0.00781404428402501
146.56900000000002,0.007258594018179679,-0.007258594018179679
146.57000000000002,0.005161173953191229,-0.005161173953191229
146.571,0.002156498298851192,-0.002156498298851192
146.572,0.0008878186524579187,0.0008878186524579187
146.573,0.0030980107623087344,0.0030980107623087344
146.574,0.00382945835311116,0.00382945835311116
146.57500000000002,0.0028461381990403114,0.0028461381990403114
146.57600000000002,0.0003919946100476255,0.0003919946100476255
146.577,0.0028697745489982924,-0.0028697745489982924
146.578,0.006036456049386161,-0.006036456049386161
146.579,0.008216232272749984,-0.008216232272749984
146.58,0.008778332772945005,-0.008778332772945005
146.58100000000002,0.00752985979298751,-0.00752985979298751
146.582,0.0047663003866523414,-0.0047663003866523414
146.583,0.001179814394788661,-0.001179814394788661
146.584,0.00234749698268812,0.00234749698268812
146.585,0.00500243180157552,0.00500243180157552
146.586,0.006272076210531158,0.006272076210531158
146.58700000000002,0.006076486737833294,0.006076486737833294
146.588,0.004762620254895204,0.004762620254895204
146.589,0.0029639299247596796,0.0029639299247596796
146.59,0.0013734675497081425,0.0013734675497081425
146.591,0.0005064014928005508,0.0005064014928005508
146.592,0.0005310556983555036,0.0005310556983555036
146.59300000000002,0.0012245070724324087,0.0012245070724324087
146.594,0.002066845830661044,0.002066845830661044
146.595,0.0024412827416875637,0.0024412827416875637
146.596,0.0018711456629902305,0.0018711456629902305
146.597,0.00021177148085336147,0.00021177148085336147
146.598,0.002270001992156788,-0.002270001992156788
146.59900000000002,0.004958360287478715,-0.004958360287478715
146.6,0.0070746330252389154,-0.0070746330252389154
146.601,0.007926453315461162,-0.007926453315461162
146.602,0.0071375032841376074,-0.0071375032841376074
146.603,0.00478124757310526,-0.00478124757310526
146.604,0.0013737180469888532,-0.0013737180469888532
146.60500000000002,0.00227286815370138,0.00227286815370138
146.606,0.005287969475200655,0.005287969475200655
146.607,0.006994809151405747,0.006994809151405747
146.608,0.007096068234715598,0.007096068234715598
146.609,0.005736176389937353,0.005736176389937353
146.61,0.003425359015477992,0.003425359015477992
146.61100000000002,0.0008566231155064351,0.0008566231155064351
146.612,0.0013190225321839909,-0.0013190225321839909
146.613,0.002682981403236633,-0.002682981403236633
146.614,0.0031445029527173243,-0.0031445029527173243
146.615,0.0029162423541403337,-0.0029162423541403337
146.616,0.002387921545435476,-0.002387921545435476
146.61700000000002,0.0019508396020348373,-0.0019508396020348373
146.618,0.0018406429810442263,-0.0018406429810442263
146.619,0.0020557251910778627,-0.0020557251910778627
146.62,0.0023781957031140735,-0.0023781957031140735
146.621,0.002485052877471993,-0.002485052877471993
146.622,0.0021034745020156983,-0.0021034745020156983
146.62300000000002,0.001148166127602869,-0.001148166127602869
146.624,0.00021398748909549437,0.00021398748909549437
146.625,0.001599131922685943,0.001599131922685943
146.626,0.0025311156891058137,0.0025311156891058137
146.627,0.0026115074245196637,0.0026115074245196637
146.62800000000001,0.0016732398125405743,0.0016732398125405743
146.62900000000002,0.00013898222361192193,-0.00013898222361192193
146.63,0.0023928897623884315,-0.0023928897623884315
146.631,0.004491986111144701,-0.004491986111144701
146.632,0.005857511260324171,-0.005857511260324171
146.633,0.0061078366442060905,-0.0061078366442060905
146.63400000000001,0.005174929887993084,-0.005174929887993084
146.63500000000002,0.0033193919992483413,-0.0033193919992483413
146.636,0.0010405188493432358,-0.0010405188493432358
146.637,0.0010865419656975808,0.0010865419656975808
146.638,0.0025905876888377382,0.0025905876888377382
146.639,0.0032410347019959413,0.0032410347019959413
146.64000000000001,0.0030979309972481925,0.0030979309972481925
146.64100000000002,0.002462633504596379,0.002462633504596379
146.642,0.0017505519582436647,0.0017505519582436647
146.643,0.0013327976307237648,0.0013327976307237648
146.644,0.001401984203874907,0.001401984203874907
146.645,0.0019066818440683327,0.0019066818440683327
146.64600000000002,0.0025737327336462223,0.0025737327336462223
146.64700000000002,0.00300720799323708,0.00300720799323708
146.648,0.002827889583085088,0.002827889583085088
146.649,0.001805906956877941,0.001805906956877941
146.65,5.559466996966277e-05,-5.559466996966277e-05
146.651,0.0025091850587257935,-0.0025091850587257935
146.65200000000002,0.0051230396696610465,-0.0051230396696610465
146.65300000000002,0.007388993572106785,-0.007388993572106785
146.654,0.008843930084207368,-0.008843930084207368
146.655,0.009170548378413333,-0.009170548378413333
146.656,0.008255066762067506,-0.008255066762067506
146.657,0.006195922524621096,-0.006195922524621096
146.65800000000002,0.003272312016112991,-0.003272312016112991
146.65900000000002,0.00011058486534265963,0.00011058486534265963
146.66,0.0034832082272054253,0.0034832082272054253
146.661,0.006370094446882135,0.006370094446882135
146.662,0.008343355152296597,0.008343355152296597
146.663,0.00907414350337267,0.00907414350337267
146.66400000000002,0.008384016044188288,0.008384016044188288
146.66500000000002,0.006291724329971764,0.006291724329971764
146.666,0.003042988078764568,0.003042988078764568
146.667,0.0008937324736388544,-0.0008937324736388544
146.668,0.004879495576169258,-0.004879495576169258
146.669,0.008207805625209372,-0.008207805625209372
146.67000000000002,0.01024396423239876,-0.01024396423239876
146.67100000000002,0.010570254598909203,-0.010570254598909203
146.672,0.009097425641651122,-0.009097425641651122
146.673,0.006106305533578178,-0.006106305533578178
146.674,0.002199757278938285,-0.002199757278938285
146.675,0.001829613937657712,0.001829613937657712
146.67600000000002,0.005184535973631722,0.005184535973631722
146.67700000000002,0.007251534944413374,0.007251534944413374
146.678,0.007740327604909895,0.007740327604909895
146.679,0.0067353061161907575,0.0067353061161907575
146.68,0.004646639133616107,0.004646639133616107
146.681,0.0020790271654525837,0.0020790271654525837
146.68200000000002,0.00033941232002794326,-0.00033941232002794326
146.68300000000002,0.002115532696708799,-0.002115532696708799
146.684,0.0029916616107731183,-0.0029916616107731183
146.685,0.0029651016538456607,-0.0029651016538456607
146.686,0.0022320302268449784,-0.0022320302268449784
146.687,0.0010858981459940951,-0.0010858981459940951
146.68800000000002,0.00018739542229579353,0.00018739542229579353
146.68900000000002,0.001379498761647472,0.001379498761647472
146.69,0.002375010827225449,0.002375010827225449
146.691,0.00311726258946667,0.00311726258946667
146.692,0.003550667663916556,0.003550667663916556
146.693,0.0035750924427631857,0.0035750924427631857
146.69400000000002,0.003041341543651712,0.003041341543651712
146.69500000000002,0.0017974859306512968,0.0017974859306512968
146.696,0.0002287301302101179,-0.0002287301302101179
146.697,0.0029456384214401198,-0.0029456384214401198
146.698,0.00605182559155236,-0.00605182559155236
146.699,0.009058329588540328,-0.009058329588540328
146.70000000000002,0.011384343580275775,-0.011384343580275775
146.70100000000002,0.012503249543086148,-0.012503249543086148
146.702,0.012093680398857788,-0.012093680398857788
146.703,0.010143851434533188,-0.010143851434533188
146.704,0.006970093195656975,-0.006970093195656975
146.705,0.003138611280430685,-0.003138611280430685
146.70600000000002,0.0006868508412676657,0.0006868508412676657
146.707,0.00392197697458008,0.00392197697458008
146.708,0.006204406364062209,0.006204406364062209
146.709,0.007454593783598672,0.007454593783598672
146.71,0.007837308778143518,0.007837308778143518
146.711,0.007642751587561083,0.007642751587561083
146.71200000000002,0.00713640515733626,0.00713640515733626
146.713,0.006438684339676797,0.006438684339676797
146.714,0.005484018915537219,0.005484018915537219
146.715,0.0040777812167950645,0.0040777812167950645
146.716,0.0020297404755011627,0.0020297404755011627
146.717,0.0006904418995222462,-0.0006904418995222462
146.71800000000002,0.0038435035041898334,-0.0038435035041898334
146.719,0.006911661382321633,-0.006911661382321633
146.72,0.0092098278299224,-0.0092098278299224
146.721,0.010090063119672643,-0.010090063119672643
146.722,0.009172545613491847,-0.009172545613491847
146.723,0.0065185914560478295,-0.0065185914560478295
146.72400000000002,0.0026739403239784774,-0.0026739403239784774
146.725,0.0014488132905757854,0.0014488132905757854
146.726,0.004824101026670303,0.004824101026670303
146.727,0.006627703775644371,0.006627703775644371
146.728,0.006507640520265347,0.006507640520265347
146.729,0.0047147849822283885,0.0047147849822283885
146.73000000000002,0.0020382846058916663,0.0020382846058916663
146.731,0.000445002064772244,-0.000445002064772244
146.732,0.0017327257623482224,-0.0017327257623482224
146.733,0.0012533064623906863,-0.0012533064623906863
146.734,0.000906526235874811,0.000906526235874811
146.735,0.0039887929741065295,0.0039887929741065295
146.73600000000002,0.006783428714033794,0.006783428714033794
146.737,0.008019062360836151,0.008019062360836151
146.738,0.006803472918681026,0.006803472918681026
146.739,0.002968490886360745,0.002968490886360745
146.74,0.002801506051172704,-0.002801506051172704
146.741,0.009112547587526932,-0.009112547587526932
146.74200000000002,0.014243693863607382,-0.014243693863607382
146.743,0.016657812456495148,-0.016657812456495148
146.744,0.015482951547960753,-0.015482951547960753
146.745,0.010810545162018632,-0.010810545162018632
146.746,0.003710396341158237,-0.003710396341158237
146.747,0.004050333776242964,0.004050333776242964
146.74800000000002,0.010503709093085884,0.010503709093085884
146.749,0.014043683707130307,0.014043683707130307
146.75,0.013882995061131378,0.013882995061131378
146.751,0.010264418907536956,0.010264418907536956
146.752,0.004362957935046922,0.004362957935046922
146.75300000000001,0.0020878954433467584,-0.0020878954433467584
146.75400000000002,0.007326854363869753,-0.007326854363869753
146.755,0.010085841215032292,-0.010085841215032292
146.756,0.009940165375724933,-0.009940165375724933
146.757,0.0073833131897070615,-0.0073833131897070615
146.758,0.0036108620304364457,-0.0036108620304364457
146.75900000000001,9.073866759643481e-05,-9.073866759643481e-05
146.76000000000002,0.001936379967222341,0.001936379967222341
146.761,0.0018633175957028084,0.0018633175957028084
146.762,0.00010053474988988798,-0.00010053474988988798
146.763,0.003024485343438307,-0.003024485343438307
146.764,0.005593918098608271,-0.005593918098608271
146.76500000000001,0.006575185445751095,-0.006575185445751095
146.76600000000002,0.005253168169617411,-0.005253168169617411
146.767,0.0016970108773451474,-0.0016970108773451474
146.768,0.0032334457967808047,0.0032334457967808047
146.769,0.008143268686954022,0.008143268686954022
146.77,0.01153791265987379,0.01153791265987379
146.77100000000002,0.012298663005029103,0.012298663005029103
146.77200000000002,0.010045729120249086,0.010045729120249086
146.773,0.005273113939430714,0.005273113939430714
146.774,0.000787534589628757,-0.000787534589628757
146.775,0.006530870061729611,-0.006530870061729611
146.776,0.01045493983842442,-0.01045493983842442
146.77700000000002,0.011602410261318502,-0.011602410261318502
146.77800000000002,0.00983001418104977,-0.00983001418104977
146.779,0.005826046702227068,-0.005826046702227068
146.78,0.0008758278026415974,-0.0008758278026415974
146.781,0.0035462205839299306,0.0035462205839299306
146.782,0.006226756092877016,0.006226756092877016
146.78300000000002,0.006564766584098773,0.006564766584098773
146.78400000000002,0.004717501488649972,0.004717501488649972
146.785,0.0015025082946683443,0.0015025082946683443
146.786,0.001904159835952809,-0.001904159835952809
146.787,0.004369346371271261,-0.004369346371271261
146.788,0.00517026176867924,-0.00517026176867924
146.78900000000002,0.004208910178356207,-0.004208910178356207
146.79000000000002,0.0020073009779367603,-0.0020073009779367603
146.791,0.0005088937843529694,0.0005088937843529694
146.792,0.002360107630750695,0.002360107630750695
146.793,0.002873902701003533,0.002873902701003533
146.794,0.0019318792922005633,0.0019318792922005633
146.79500000000002,1.5859431162785588e-05,1.5859431162785588e-05
146.79600000000002,0.001965169087255326,-0.001965169087255326
146.797,0.003010741221262782,-0.003010741221262782
146.798,0.0024133514956726195,-0.0024133514956726195
146.799,5.76695673861532e-05,-5.76695673861532e-05
146.8,0.0034748730747903946,0.0034748730747903946
146.80100000000002,0.007043389521441406,0.007043389521441406
146.80200000000002,0.009293840747512671,0.009293840747512671
146.803,0.009109224691324394,0.009109224691324394
146.804,0.006018338420502431,0.006018338420502431
146.805,0.0004239215355982951,0.0004239215355982951
146.806,0.006436914133317385,-0.006436914133317385
146.80700000000002,0.012804280191363775,-0.012804280191363775
146.80800000000002,0.016895685623303118,-0.016895685623303118
146.809,0.01744674452050968,-0.01744674452050968
146.81,0.014124513873768741,-0.014124513873768741
146.811,0.0076783391187432775,-0.0076783391187432775
146.812,0.00023017723102952716,0.00023017723102952716
146.81300000000002,0.00747871707103227,0.00747871707103227
146.81400000000002,0.01208941609433311,0.01208941609433311
146.815,0.012808603007955926,0.012808603007955926
146.816,0.009485187188974235,0.009485187188974235
146.817,0.0031294387187454234,0.0031294387187454234
146.818,0.00437083926379818,-0.00437083926379818
146.81900000000002,0.010795931648337862,-0.010795931648337862
146.82000000000002,0.014240572697034931,-0.014240572697034931
146.821,0.01366845541841288,-0.01366845541841288
146.822,0.00920956671524221,-0.00920956671524221
146.823,0.0021128866515788625,-0.0021128866515788625
146.824,0.005628612885522042,0.005628612885522042
146.82500000000002,0.01186514764810888,0.01186514764810888
146.82600000000002,0.01491160939052425,0.01491160939052425
146.827,0.014018300185928758,0.014018300185928758
146.828,0.009555292049056014,0.009555292049056014
146.829,0.00286460236382957,0.00286460236382957
146.83,0.004164106369602379,-0.004164106369602379
146.83100000000002,0.009657155006120193,-0.009657155006120193
146.832,0.01228605044138702,-0.01228605044138702
146.833,0.011606713782091493,-0.011606713782091493
146.834,0.008118565729155496,-0.008118565729155496
146.835,0.0030435124381444816,-0.0030435124381444816
146.836,0.002089525243046146,0.002089525243046146
146.83700000000002,0.005914727816632263,0.005914727816632263
146.838,0.007607192394061205,0.007607192394061205
146.839,0.0070611313479697945,0.0070611313479697945
146.84,0.0048321176147086645,0.0048321176147086645
146.841,0.0018845155112702091,0.0018845155112702091
146.842,0.0007564399971594404,-0.0007564399971594404
146.84300000000002,0.0023271497493584556,-0.0023271497493584556
146.844,0.0025221734884580756,-0.0025221734884580756
146.845,0.0015161403089940793,-0.0015161403089940793
146.846,0.00017384351121522122,0.00017384351121522122
146.847,0.0019173947536050826,0.0019173947536050826
146.848,0.003199470802820835,0.003199470802820835
146.84900000000002,0.0037668521393937745,0.0037668521393937745
146.85,0.0036501512345273536,0.0036501512345273536
146.851,0.0030705267029949787,0.0030705267029949787
146.852,0.002284240952881155,0.002284240952881155
146.853,0.0014385299024048312,0.0014385299024048312
146.854,0.0005024226033380915,0.0005024226033380915
146.85500000000002,0.0006987568192289566,-0.0006987568192289566
146.856,0.0023620016180411056,-0.0023620016180411056
146.857,0.004553145656777427,-0.004553145656777427
146.858,0.0070916292770904195,-0.0070916292770904195
146.859,0.009530796537850132,-0.009530796537850132
146.86,0.011254325481304523,-0.011254325481304523
146.86100000000002,0.011663112543503685,-0.011663112543503685
146.862,0.010388885714707549,-0.010388885714707549
146.863,0.007455876582821641,-0.007455876582821641
146.864,0.003326326592175445,-0.003326326592175445
146.865,0.0011952719621593244,0.0011952719621593244
146.866,0.005174519198344157,0.005174519198344157
146.86700000000002,0.007809101144286791,0.007809101144286791
146.868,0.008654393661790338,0.008654393661790338
146.869,0.007737938941201442,0.007737938941201442
146.87,0.005525943500525231,0.005525943500525231
146.871,0.0027558728306904903,0.0027558728306904903
146.872,0.00019486470648346404,0.00019486470648346404
146.87300000000002,0.0015923268935803705,-0.0015923268935803705
146.874,0.0023882464601277173,-0.0023882464601277173
146.875,0.0023365083712213047,-0.0023365083712213047
146.876,0.0018289298566123286,-0.0018289298566123286
146.877,0.0013159862709886748,-0.0013159862709886748
146.87800000000001,0.0011163192611931075,-0.0011163192611931075
146.87900000000002,0.0012979390540940438,-0.0012979390540940438
146.88,0.0016734691680174198,-0.0016734691680174198
146.881,0.0019061005744769532,-0.0019061005744769532
146.882,0.0016793684518995387,-0.0016793684518995387
146.883,0.0008590620484934157,-0.0008590620484934157
146.88400000000001,0.00042100924077282715,0.00042100924077282715
146.88500000000002,0.0017873346441899546,0.0017873346441899546
146.886,0.002761397078284126,0.002761397078284126
146.887,0.00294966397573754,0.00294966397573754
146.888,0.0022136365385478046,0.0022136365385478046
146.889,0.0007495988077780936,0.0007495988077780936
146.89000000000001,0.0009595316169196033,-0.0009595316169196033
146.89100000000002,0.0023091001030094275,-0.0023091001030094275
146.892,0.0027968018500020096,-0.0027968018500020096
146.893,0.0022222968771086382,-0.0022222968771086382
146.894,0.0007836518538321591,-0.0007836518538321591
146.895,0.0009727529712038793,0.0009727529712038793
146.89600000000002,0.0023386986254278676,0.0023386986254278676
146.89700000000002,0.0027046109061628493,0.0027046109061628493
146.898,0.0018004215085605998,0.0018004215085605998
146.899,0.0001745808976593392,-0.0001745808976593392
146.9,0.0025880138388750004,-0.0025880138388750004
146.901,0.004573582031483446,-0.004573582031483446
146.90200000000002,0.005330195670718136,-0.005330195670718136
146.90300000000002,0.0044185436909126245,-0.0044185436909126245
146.904,0.0019485086557540063,-0.0019485086557540063
146.905,0.0014152047198971874,0.0014152047198971874
146.906,0.004640664794302079,0.004640664794302079
146.907,0.006653542570595194,0.006653542570595194
146.90800000000002,0.006693252513301207,0.006693252513301207
146.90900000000002,0.004580103881043672,0.004580103881043672
146.91,0.0008001971509624039,0.0008001971509624039
146.911,0.0036253806577764905,-0.0036253806577764905
146.912,0.007448169967609169,-0.007448169967609169
146.913,0.00957789896883255,-0.00957789896883255
146.91400000000002,0.009420311818761067,-0.009420311818761067
146.91500000000002,0.007057291648259449,-0.007057291648259449
146.916,0.003212149303923448,-0.003212149303923448
146.917,0.0009853247877018166,0.0009853247877018166
146.918,0.004353553995364854,0.004353553995364854
146.919,0.0060155534706540295,0.0060155534706540295
146.92000000000002,0.005642098801310812,0.005642098801310812
146.92100000000002,0.00350876728761945,0.00350876728761945
146.922,0.0003593021712591699,0.0003593021712591699
146.923,0.0028667810630044715,-0.0028667810630044715
146.924,0.00534167615305353,-0.00534167615305353
146.925,0.006585413917163788,-0.006585413917163788
146.92600000000002,0.00655618164470188,-0.00655618164470188
146.92700000000002,0.0055773801794470395,-0.0055773801794470395
146.928,0.0041445379379937905,-0.0041445379379937905
146.929,0.002697104564485125,-0.002697104564485125
146.93,0.0014484386852779522,-0.0014484386852779522
146.931,0.0003397061516591116,-0.0003397061516591116
146.93200000000002,0.0008689954012038009,0.0008689954012038009
146.93300000000002,0.002413911285201376,0.002413911285201376
146.934,0.004332514463797111,0.004332514463797111
146.935,0.00634803628994596,0.00634803628994596
146.936,0.00789458873665347,0.00789458873665347
146.937,0.008289181164837687,0.008289181164837687
146.93800000000002,0.006996939377147954,0.006996939377147954
146.93900000000002,0.0038931938461655964,0.0038931938461655964
146.94,0.000582293067425324,-0.000582293067425324
146.941,0.005453087176019959,-0.005453087176019959
146.942,0.009429728607904106,-0.009429728607904106
146.943,0.011273755037221549,-0.011273755037221549
146.94400000000002,0.010192428560465318,-0.010192428560465318
146.94500000000002,0.006135368481233664,-0.006135368481233664
146.946,0.00011170549434406669,0.00011170549434406669
146.947,0.007080455613988568,0.007080455613988568
146.948,0.012987392427907873,0.012987392427907873
146.949,0.0162128935566343,0.0162128935566343
146.95000000000002,0.015751550414751906,0.015751550414751906
146.95100000000002,0.01149992205362917,0.01149992205362917
146.952,0.004296291633579569,0.004296291633579569
146.953,0.004298005431587215,-0.004298005431587215
146.954,0.012408910085137415,-0.012408910085137415
146.955,0.018329946325479907,-0.018329946325479907
146.95600000000002,0.020934917928402786,-0.020934917928402786
146.957,0.01991207550680383,-0.01991207550680383
146.958,0.015767787122960245,-0.015767787122960245
146.959,0.009618739128995087,-0.009618739128995087
146.96,0.0028516460173928677,-0.0028516460173928677
146.961,0.0032397916582962414,0.0032397916582962414
146.96200000000002,0.007736840370543873,0.007736840370543873
146.963,0.010230241066815436,0.010230241066815436
146.964,0.010794876073786763,0.010794876073786763
146.965,0.00984328429904895,0.00984328429904895
146.966,0.007928224675594083,0.007928224675594083
146.967,0.005567953608184942,0.005567953608184942
146.96800000000002,0.0031453874656150464,0.0031453874656150464
146.969,0.0008949646942749476,0.0008949646942749476
146.97,0.001045749168349984,-0.001045749168349984
146.971,0.0025650105799053754,-0.0025650105799053754
146.972,0.003532375859198214,-0.003532375859198214
146.973,0.0038073724321088438,-0.0038073724321088438
146.97400000000002,0.0032981624135956485,-0.0032981624135956485
146.975,0.0020397447464599546,-0.0020397447464599546
146.976,0.0002482219014487412,-0.0002482219014487412
146.977,0.0016855836453106329,0.0016855836453106329
146.978,0.003275941639997025,0.003275941639997025
146.979,0.004076767655274855,0.004076767655274855
146.98000000000002,0.003826113368251492,0.003826113368251492
146.981,0.0025460787245429346,0.0025460787245429346
146.982,0.0005552049130566761,0.0005552049130566761
146.983,0.0016200691926108947,-0.0016200691926108947
146.984,0.003411296649263071,-0.003411296649263071
146.985,0.004396974950748331,-0.004396974950748331
146.98600000000002,0.00444790754174793,-0.00444790754174793
146.987,0.0037739219096854094,-0.0037739219096854094
146.988,0.0028494483352198515,-0.0028494483352198515
146.989,0.002238113631460271,-0.002238113631460271
146.99,0.0023742483451439462,-0.0023742483451439462
146.991,0.003378199211991604,-0.003378199211991604
146.99200000000002,0.004974897123716969,-0.004974897123716969
146.993,0.0065526584574186,-0.0065526584574186
146.994,0.007351966342467322,-0.007351966342467322
146.995,0.006727791589125344,-0.006727791589125344
146.996,0.004399873074981105,-0.004399873074981105
146.997,0.0006039811281831255,-0.0006039811281831255
146.99800000000002,0.003914859594602879,0.003914859594602879
146.999,0.00807714992082766,0.00807714992082766
147.0,0.010767021243231468,0.010767021243231468
147.001,0.01116655861042793,0.01116655861042793
147.002,0.009023224776599776,0.009023224776599776
147.00300000000001,0.004763604605888003,0.004763604605888003
147.00400000000002,0.0005890117379190066,-0.0005890117379190066
147.005,0.005676807164058413,-0.005676807164058413
147.006,0.009177679124667415,-0.009177679124667415
147.007,0.010177342249410472,-0.010177342249410472
147.008,0.008434233114318115,-0.008434233114318115
147.00900000000001,0.0044580667018705444,-0.0044580667018705444
147.01000000000002,0.0006233397091612122,0.0006233397091612122
147.011,0.005372852671547705,0.005372852671547705
147.012,0.008441380099782543,0.008441380099782543
147.013,0.008941403440713667,0.008941403440713667
147.014,0.006691653524161774,0.006691653524161774
147.01500000000001,0.0022653780365531045,0.0022653780365531045
147.01600000000002,0.003169140079595238,-0.003169140079595238
147.017,0.008168773878386552,-0.008168773878386552
147.018,0.011405610193202229,-0.011405610193202229
147.019,0.012018853026174245,-0.012018853026174245
147.02,0.009834033912658096,-0.009834033912658096
147.02100000000002,0.005394295056231588,-0.005394295056231588
147.02200000000002,0.00019832964065254004,0.00019832964065254004
147.023,0.005582079305173802,0.005582079305173802
147.024,0.009489699519993844,0.009489699519993844
147.025,0.011061555470074515,0.011061555470074515
147.026,0.01003740489316664,0.01003740489316664
147.02700000000002,0.006783583717345101,0.006783583717345101
147.02800000000002,0.0021590168897280466,0.0021590168897280466
147.029,0.0027335842490720324,-0.0027335842490720324
147.03,0.006837360806719947,-0.006837360806719947
147.031,0.009392218391380044,-0.009392218391380044
147.032,0.01008406616992895,-0.01008406616992895
147.03300000000002,0.00906221848362969,-0.00906221848362969
147.03400000000002,0.006833533397752785,-0.006833533397752785
147.035,0.004075284966797113,-0.004075284966797113
147.036,0.0014277777507380224,-0.0014277777507380224
147.037,0.0006721369961801084,0.0006721369961801084
147.038,0.0020729762681641647,0.0020729762681641647
147.03900000000002,0.0028911983028788767,0.0028911983028788767
147.04000000000002,0.0034107516766017486,0.0034107516766017486
147.041,0.003939866209952649,0.003939866209952649
147.042,0.0046754296015493885,0.0046754296015493885
147.043,0.005619264195150095,0.005619264195150095
147.044,0.006571204573297159,0.006571204573297159
147.04500000000002,0.007197739939197791,0.007197739939197791
147.04600000000002,0.007150549192336344,0.007150549192336344
147.047,0.006194066081770857,0.006194066081770857
147.048,0.004299639321745418,0.004299639321745418
147.049,0.0016758481329538467,0.0016758481329538467
147.05,0.0012742164304859823,-0.0012742164304859823
147.05100000000002,0.004054476752910027,-0.004054476752910027
147.05200000000002,0.006203919017170395,-0.006203919017170395
147.053,0.007411756130621074,-0.007411756130621074
147.054,0.007585943878573886,-0.007585943878573886
147.055,0.006857397782144365,-0.006857397782144365
147.056,0.005523176886997978,-0.005523176886997978
147.05700000000002,0.003950624590026088,-0.003950624590026088
147.05800000000002,0.0024749675370003632,-0.0024749675370003632
147.059,0.0013221159135243302,-0.0013221159135243302
147.06,0.000577226974928122,-0.000577226974928122
147.061,0.0002023338744186289,-0.0002023338744186289
147.062,8.926442616606975e-05,-8.926442616606975e-05
147.06300000000002,0.0001231408204812375,-0.0001231408204812375
147.06400000000002,0.00023054998905159448,-0.00023054998905159448
147.065,0.00039500645109858654,-0.00039500645109858654
147.066,0.0006370722189185851,-0.0006370722189185851
147.067,0.0009717179195354006,-0.0009717179195354006
147.068,0.0013653571852184885,-0.0013653571852184885
147.06900000000002,0.0017156352021277532,-0.0017156352021277532
147.07000000000002,0.001868110607942293,-0.001868110607942293
147.071,0.0016686658050511106,-0.0016686658050511106
147.072,0.0010345372487944263,-0.0010345372487944263
147.073,1.644591072978966e-05,-1.644591072978966e-05
147.074,0.0011762012368535162,0.0011762012368535162
147.07500000000002,0.0022047616293148064,0.0022047616293148064
147.07600000000002,0.002685062934184764,0.002685062934184764
147.077,0.0023050325380981392,0.0023050325380981392
147.078,0.0009411543301357325,0.0009411543301357325
147.079,0.0012653714012221136,-0.0012653714012221136
147.08,0.003903018633469474,-0.003903018633469474
147.08100000000002,0.00636547139042101,-0.00636547139042101
147.082,0.007994267210990582,-0.007994267210990582
147.083,0.008252603736240347,-0.008252603736240347
147.084,0.006882279207595824,-0.006882279207595824
147.085,0.0039976570041503285,-0.0039976570041503285
147.086,8.63483547765111e-05,-8.63483547765111e-05
147.08700000000002,0.004088426119874805,0.004088426119874805
147.088,0.007661461645015164,0.007661461645015164
147.089,0.009871372649444052,0.009871372649444052
147.09,0.01024540102697641,0.01024540102697641
147.091,0.008715379221266804,0.008715379221266804
147.092,0.005635285141494726,0.005635285141494726
147.09300000000002,0.0016967080631058488,0.0016967080631058488
147.094,0.002235276932066049,-0.002235276932066049
147.095,0.005323892612574709,-0.005323892612574709
147.096,0.006950282091960077,-0.006950282091960077
147.097,0.0068462101944125,-0.0068462101944125
147.098,0.005140962379420709,-0.005140962379420709
147.09900000000002,0.0023155000518157573,-0.0023155000518157573
147.1,0.000920937298475604,0.000920937298475604
147.101,0.003799612323041934,0.003799612323041934
147.102,0.005665985720214166,0.005665985720214166
147.103,0.00611934619968357,0.00611934619968357
147.104,0.005089401903118917,0.005089401903118917
147.10500000000002,0.002836417306140385,0.002836417306140385
147.106,0.00012120646521995974,-0.00012120646521995974
147.107,0.0031326496547128594,-0.0031326496547128594
147.108,0.005563970241827671,-0.005563970241827671
147.109,0.006937467208445511,-0.006937467208445511
147.11,0.007030920495286961,-0.007030920495286961
147.11100000000002,0.005916091504156488,-0.005916091504156488
147.112,0.003929693271390247,-0.003929693271390247
147.113,0.0015852626742985589,-0.0015852626742985589
147.114,0.0005522712910828002,0.0005522712910828002
147.115,0.00199908875045562,0.00199908875045562
147.116,0.002460454800235178,0.002460454800235178
147.11700000000002,0.001888911452153125,0.001888911452153125
147.118,0.0004801721935478517,0.0004801721935478517
147.119,0.0013897249543268497,-0.0013897249543268497
147.12,0.0032672731164119025,-0.0032672731164119025
147.121,0.004735578503288058,-0.004735578503288058
147.122,0.005508943141305008,-0.005508943141305008
147.12300000000002,0.0054840871432051234,-0.0054840871432051234
147.124,0.004737852691631482,-0.004737852691631482
147.125,0.003477595627386836,-0.003477595627386836
147.126,0.0019643429698409957,-0.0019643429698409957
147.127,0.0004357138814603221,-0.0004357138814603221
147.12800000000001,0.0009466661494093034,0.0009466661494093034
147.12900000000002,0.002111128245147244,0.002111128245147244
147.13,0.0030523361517512814,0.0030523361517512814
147.131,0.0037853835506341748,0.0037853835506341748
147.132,0.004301041341141503,0.004301041341141503
147.133,0.004544413288598083,0.004544413288598083
147.13400000000001,0.004429024575168023,0.004429024575168023
147.13500000000002,0.003882739303331978,0.003882739303331978
147.136,0.0029067972381744364,0.0029067972381744364
147.137,0.00162074438103789,0.00162074438103789
147.138,0.0002680417001993029,0.0002680417001993029
147.139,0.0008301566283439272,-0.0008301566283439272
147.14000000000001,0.0013660872209451012,-0.0013660872209451012
147.14100000000002,0.0011549686723626314,-0.0011549686723626314
147.142,0.00022490490062833496,-0.00022490490062833496
147.143,0.0011500558501783698,0.0011500558501783698
147.144,0.00249587613290293,0.00249587613290293
147.145,0.0032606621430084776,0.0032606621430084776
147.14600000000002,0.0029830202218192707,0.0029830202218192707
147.14700000000002,0.0014568242393716369,0.0014568242393716369
147.148,0.001162391292137129,-0.001162391292137129
147.149,0.004351196182305419,-0.004351196182305419
147.15,0.0073258302591208,-0.0073258302591208
147.151,0.009242095907486418,-0.009242095907486418
147.15200000000002,0.009435053203891408,-0.009435053203891408
147.15300000000002,0.007629373824997655,-0.007629373824997655
147.154,0.004055224465220179,-0.004055224465220179
147.155,0.0005709872190591624,0.0005709872190591624
147.156,0.005203518561964765,0.005203518561964765
147.157,0.008723867878987861,0.008723867878987861
147.15800000000002,0.010228601543435755,0.010228601543435755
147.15900000000002,0.009269154227746134,0.009269154227746134
147.16,0.005976622779834463,0.005976622779834463
147.161,0.0010365040349937843,0.0010365040349937843
147.162,0.004479637591660454,-0.004479637591660454
147.163,0.009378965274554252,-0.009378965274554252
147.16400000000002,0.012636410958363015,-0.012636410958363015
147.16500000000002,0.013631275454333599,-0.013631275454333599
147.166,0.012271966397014158,-0.012271966397014158
147.167,0.008982571730373775,-0.008982571730373775
147.168,0.004563635451013317,-0.004563635451013317
147.169,2.7662288441041645e-05,2.7662288441041645e-05
147.17000000000002,0.003914689778535189,0.003914689778535189
147.17100000000002,0.006493484134583776,0.006493484134583776
147.172,0.007535243796409755,0.007535243796409755
147.173,0.007182993944511082,0.007182993944511082
147.174,0.0058561058114841615,0.0058561058114841615
147.175,0.004099237168121452,0.004099237168121452
147.17600000000002,0.0024225731016709927,0.0024225731016709927
147.17700000000002,0.0011766282331747138,0.0011766282331747138
147.178,0.0004900604859443149,0.0004900604859443149
147.179,0.0002784309206689329,0.0002784309206689329
147.18,0.0003119004079283317,0.0003119004079283317
147.181,0.0003156621511507671,0.0003156621511507671
147.18200000000002,7.13162579884412e-05,7.13162579884412e-05
147.18300000000002,0.0005094192358791846,-0.0005094192358791846
147.184,0.0013572966418978344,-0.0013572966418978344
147.185,0.0022695351780082566,-0.0022695351780082566
147.186,0.002976691032980269,-0.002976691032980269
147.187,0.0032330152742845674,-0.0032330152742845674
147.18800000000002,0.002904870615957987,-0.002904870615957987
147.18900000000002,0.002031591969583767,-0.002031591969583767
147.19,0.0008389693355051,-0.0008389693355051
147.191,0.0003035098716827608,0.0003035098716827608
147.192,0.0009762291615934051,0.0009762291615934051
147.193,0.0008336246489378912,0.0008336246489378912
147.19400000000002,0.0002728328140283669,-0.0002728328140283669
147.19500000000002,0.002209425325925287,-0.002209425325925287
147.196,0.004544499144548897,-0.004544499144548897
147.197,0.006619108266932451,-0.006619108266932451
147.198,0.00769814585901117,-0.00769814585901117
147.199,0.00717114306631594,-0.00717114306631594
147.20000000000002,0.004751889081663893,-0.004751889081663893
147.20100000000002,0.0006180862609033887,-0.0006180862609033887
147.202,0.0045590344496631045,0.0045590344496631045
147.203,0.0097198759303313,0.0097198759303313
147.204,0.013644604248780959,0.013644604248780959
147.205,0.015254529985228377,0.015254529985228377
147.20600000000002,0.013909447917822546,0.013909447917822546
147.207,0.009616267667040185,0.009616267667040185
147.208,0.0030816858583003134,0.0030816858583003134
147.209,0.004418971182783169,-0.004418971182783169
147.21,0.011333382417937478,-0.011333382417937478
147.211,0.016212739710949685,-0.016212739710949685
147.21200000000002,0.018079353029579734,-0.018079353029579734
147.213,0.016678029288928573,-0.016678029288928573
147.214,0.012537190844682354,-0.012537190844682354
147.215,0.006818460455960173,-0.006818460455960173
147.216,0.0009945236576815362,-0.0009945236576815362
147.217,0.0035539770593981833,0.0035539770593981833
147.21800000000002,0.005906961752627135,0.005906961752627135
147.219,0.005832942992648049,0.005832942992648049
147.22,0.003812453724949229,0.003812453724949229
147.221,0.0008542009953857867,0.0008542009953857867
147.222,0.001836526518707963,-0.001836526518707963
147.223,0.0032340469085267334,-0.0032340469085267334
147.22400000000002,0.00279844650136654,-0.00279844650136654
147.225,0.0006211590809757142,-0.0006211590809757142
147.226,0.0026289071857762735,0.0026289071857762735
147.227,0.005934932314045029,0.005934932314045029
147.228,0.008260074886285978,0.008260074886285978
147.229,0.008868545778081289,0.008868545778081289
147.23000000000002,0.00754091740155662,0.00754091740155662
147.231,0.004621915639100015,0.004621915639100015
147.232,0.0008941996953743831,0.0008941996953743831
147.233,0.0026734628593055917,-0.0026734628593055917
147.234,0.0052183679067208735,-0.0052183679067208735
147.235,0.006223479226489415,-0.006223479226489415
147.23600000000002,0.005634190176936976,-0.005634190176936976
147.237,0.003825940843499915,-0.003825940843499915
147.238,0.0014460537420578703,-0.0014460537420578703
147.239,0.0008082835492569989,0.0008082835492569989
147.24,0.0023986941337853815,0.0023986941337853815
147.241,0.0030754314902638447,0.0030754314902638447
147.24200000000002,0.0028956854318988516,0.0028956854318988516
147.243,0.002138994931964674,0.002138994931964674
147.244,0.001163124959283169,0.001163124959283169
147.245,0.0002601534612565485,0.0002601534612565485
147.246,0.0004340521413818516,-0.0004340521413818516
147.247,0.0009494017280199774,-0.0009494017280199774
147.24800000000002,0.0014166386857265788,-0.0014166386857265788
147.249,0.0019635235537278396,-0.0019635235537278396
147.25,0.0026213070085152903,-0.0026213070085152903
147.251,0.003283973298571357,-0.003283973298571357
147.252,0.0037391237826315056,-0.0037391237826315056
147.25300000000001,0.0037584868527785467,-0.0037584868527785467
147.25400000000002,0.003210159034126917,-0.003210159034126917
147.255,0.002144010423071068,-0.002144010423071068
147.256,0.0008105212143687589,-0.0008105212143687589
147.257,0.00040155939835695545,0.00040155939835695545
147.258,0.0010914248228382462,0.0010914248228382462
147.25900000000001,0.000992491689533918,0.000992491689533918
147.26000000000002,8.421594147257697e-05,8.421594147257697e-05
147.261,0.001375487961926957,-0.001375487961926957
147.262,0.002915192000337575,-0.002915192000337575
147.263,0.003995401517386782,-0.003995401517386782
147.264,0.004187554272966225,-0.004187554272966225
147.26500000000001,0.0033254022022998733,-0.0033254022022998733
147.26600000000002,0.00157482403696643,-0.00157482403696643
147.267,0.0006052996876845202,0.0006052996876845202
147.268,0.002601611450343035,0.002601611450343035
147.269,0.003840267493399281,0.003840267493399281
147.27,0.003972649712248141,0.003972649712248141
147.27100000000002,0.0029908632195828413,0.0029908632195828413
147.27200000000002,0.0012340216702186738,0.0012340216702186738
147.273,0.0007174464033230964,-0.0007174464033230964
147.274,0.0022251179099835277,-0.0022251179099835277
147.275,0.002793785711951192,-0.002793785711951192
147.276,0.002225632578005741,-0.002225632578005741
147.27700000000002,0.0006788752334048818,-0.0006788752334048818
147.27800000000002,0.00138552353090668,0.00138552353090668
147.279,0.0033488757822967693,0.0033488757822967693
147.28,0.00462258189977722,0.00462258189977722
147.281,0.004818222723557898,0.004818222723557898
147.282,0.00384816724920316,0.00384816724920316
147.28300000000002,0.0019301517482705431,0.0019301517482705431
147.28400000000002,0.0004982885592960089,-0.0004982885592960089
147.285,0.0029212714936833178,-0.0029212714936833178
147.286,0.004892567873432681,-0.004892567873432681
147.287,0.006143241097509751,-0.006143241097509751
147.288,0.006619876747022363,-0.006619876747022363
147.28900000000002,0.006450393767020131,-0.006450393767020131
147.29000000000002,0.005859063449312591,-0.005859063449312591
147.291,0.005067173562521182,-0.005067173562521182
147.292,0.004216413827085638,-0.004216413827085638
147.293,0.0033395208094895027,-0.0033395208094895027
147.294,0.0023826271407166237,-0.0023826271407166237
147.29500000000002,0.0012640176571151415,-0.0012640176571151415
147.29600000000002,5.823301214628357e-05,5.823301214628357e-05
147.297,0.0015381257783960982,0.0015381257783960982
147.298,0.0030316205515257726,0.0030316205515257726
147.299,0.0043270404931011345,0.0043270404931011345
147.3,0.005202882429389087,0.005202882429389087
147.30100000000002,0.005490587816385953,0.005490587816385953
147.30200000000002,0.0051198296931693615,0.0051198296931693615
147.303,0.0041324242080417895,0.0041324242080417895
147.304,0.0026640256424480748,0.0026640256424480748
147.305,0.0009047753874839402,0.0009047753874839402
147.306,0.0009436868549593832,-0.0009436868549593832
147.30700000000002,0.002699055700096715,-0.002699055700096715
147.30800000000002,0.004209418151008375,-0.004209418151008375
147.309,0.005347668832482418,-0.005347668832482418
147.31,0.006000805895989155,-0.006000805895989155
147.311,0.006067881304665117,-0.006067881304665117
147.312,0.005475442384625342,-0.005475442384625342
147.31300000000002,0.004209312228439007,-0.004209312228439007
147.31400000000002,0.0023509519061418608,-0.0023509519061418608
147.315,0.00010032670683259865,-0.00010032670683259865
147.316,0.002231538202367132,0.002231538202367132
147.317,0.004268028028224019,0.004268028028224019
147.318,0.0056442509047519235,0.0056442509047519235
147.31900000000002,0.0060965491154833275,0.0060965491154833275
147.32000000000002,0.0055369764604910185,0.0055369764604910185
147.321,0.004087263341650806,0.004087263341650806
147.322,0.002057946412365003,0.002057946412365003
147.323,0.0001246259304261318,-0.0001246259304261318
147.324,0.002023675026326981,-0.002023675026326981
147.32500000000002,0.0032991039060569914,-0.0032991039060569914
147.32600000000002,0.0037848940124261456,-0.0037848940124261456
147.327,0.003515089212689734,-0.003515089212689734
147.328,0.0026935475416407285,-0.0026935475416407285
147.329,0.0016206615615327429,-0.0016206615615327429
147.33,0.0006030590729336268,-0.0006030590729336268
147.33100000000002,0.00012446127168664378,0.00012446127168664378
147.332,0.00044258823702161967,0.00044258823702161967
147.333,0.00034890671647914707,0.00034890671647914707
147.334,7.491327116835019e-05,-7.491327116835019e-05
147.335,0.0007107959885125195,-0.0007107959885125195
147.336,0.0014448204573949753,-0.0014448204573949753
147.33700000000002,0.0021853035780453017,-0.0021853035780453017
147.338,0.0028557717357930792,-0.0028557717357930792
147.339,0.003373376321396037,-0.003373376321396037
147.34,0.003631154337657665,-0.003631154337657665
147.341,0.0035014356941522537,-0.0035014356941522537
147.342,0.0028678051040545507,-0.0028678051040545507
147.34300000000002,0.0016783077250913912,-0.0016783077250913912
147.344,6.565623962158637e-07,6.565623962158637e-07
147.345,0.001955947000916166,0.001955947000916166
147.346,0.003845643067038016,0.003845643067038016
147.347,0.0052687693510531375,0.0052687693510531375
147.348,0.00587193220670022,0.00587193220670022
147.34900000000002,0.005460641292777948,0.005460641292777948
147.35,0.004075978087505761,0.004075978087505761
147.351,0.002004473799400206,0.002004473799400206
147.352,0.0002905783276710599,-0.0002905783276710599
147.353,0.002300974749091923,-0.002300974749091923
147.354,0.0036287806152371697,-0.0036287806152371697
147.35500000000002,0.004112708348187741,-0.004112708348187741
147.356,0.003879123442603946,-0.003879123442603946
147.357,0.0032940868005560038,-0.0032940868005560038
147.358,0.002826388878740867,-0.002826388878740867
147.359,0.002864367662428683,-0.002864367662428683
147.36,0.003549527036061083,-0.003549527036061083
147.36100000000002,0.004689313223179397,-0.004689313223179397
147.362,0.005788450380819366,-0.005788450380819366
147.363,0.006199394309870497,-0.006199394309870497
147.364,0.005350214658476372,-0.005350214658476372
147.365,0.002977096310928941,-0.002977096310928941
147.366,0.000719710763393875,0.000719710763393875
147.36700000000002,0.005058762130622932,0.005058762130622932
147.368,0.009019798282336247,0.009019798282336247
147.369,0.011514659834125772,0.011514659834125772
147.37,0.011710757268292196,0.011710757268292196
147.371,0.009308161613666124,0.009308161613666124
147.372,0.004679310441689605,0.004679310441689605
147.37300000000002,0.0011818603679931506,-0.0011818603679931506
147.374,0.0068977171786352275,-0.0068977171786352275
147.375,0.011069694060166245,-0.011069694060166245
147.376,0.01266286683413209,-0.01266286683413209
147.377,0.011298807638129875,-0.011298807638129875
147.37800000000001,0.007367789504123076,-0.007367789504123076
147.37900000000002,0.0019240468811057914,-0.0019240468811057914
147.38,0.003607505583832017,0.003607505583832017
147.381,0.007827961118773836,0.007827961118773836
147.382,0.009748313134264285,0.009748313134264285
147.383,0.009048660920079072,0.009048660920079072
147.38400000000001,0.006139144628261903,0.006139144628261903
147.38500000000002,0.002009296004514328,0.002009296004514328
147.386,0.0020840864648585004,-0.0020840864648585004
147.387,0.004993437029537876,-0.004993437029537876
147.388,0.006007785663132533,-0.006007785663132533
147.389,0.005035985410945805,-0.005035985410945805
147.39000000000001,0.0025975881770443922,-0.0025975881770443922
147.39100000000002,0.0003670817940837303,0.0003670817940837303
147.392,0.002802232352821759,0.002802232352821759
147.393,0.0038602623403593632,0.0038602623403593632
147.394,0.0031462303708207034,0.0031462303708207034
147.395,0.0008148548463308711,0.0008148548463308711
147.39600000000002,0.002499751471936302,-0.002499751471936302
147.39700000000002,0.0058898013034576965,-0.0058898013034576965
147.398,0.008444689069397212,-0.008444689069397212
147.399,0.009502429084639627,-0.009502429084639627
147.4,0.008809953306469427,-0.008809953306469427
147.401,0.006554439456972702,-0.006554439456972702
147.40200000000002,0.003270446933157687,-0.003270446933157687
147.40300000000002,0.0003353169423620113,0.0003353169423620113
147.404,0.0035796898422616316,0.0035796898422616316
147.405,0.005959106023340429,0.005959106023340429
147.406,0.007226892319084595,0.007226892319084595
147.407,0.00738392210449043,0.00738392210449043
147.40800000000002,0.00660454111721765,0.00660454111721765
147.40900000000002,0.005137861938277499,0.005137861938277499
147.41,0.003225836241197241,0.003225836241197241
147.411,0.001065173122216019,0.001065173122216019
147.412,0.001182973016592849,-0.001182973016592849
147.413,0.0033539027819081027,-0.0033539027819081027
147.41400000000002,0.005241854732886097,-0.005241854732886097
147.41500000000002,0.006593399033145075,-0.006593399033145075
147.416,0.007146176927860163,-0.007146176927860163
147.417,0.006705561073752298,-0.006705561073752298
147.418,0.005231960901029746,-0.005231960901029746
147.419,0.002901904408211649,-0.002901904408211649
147.42000000000002,0.00011106701248502721,-0.00011106701248502721
147.42100000000002,0.002594109680062913,0.002594109680062913
147.422,0.004644064687884645,0.004644064687884645
147.423,0.0055976637013355895,0.0055976637013355895
147.424,0.005270154933122274,0.005270154933122274
147.425,0.003794087960762368,0.003794087960762368
147.42600000000002,0.001589327976264173,0.001589327976264173
147.42700000000002,0.0007528240326867844,-0.0007528240326867844
147.428,0.002637957991111573,-0.002637957991111573
147.429,0.0036377395080491736,-0.0036377395080491736
147.43,0.003607008127110862,-0.003607008127110862
147.431,0.002712073973437387,-0.002712073973437387
147.43200000000002,0.0013620704699333487,-0.0013620704699333487
147.43300000000002,6.66170939278343e-05,-6.66170939278343e-05
147.434,0.0007332658583877738,0.0007332658583877738
147.435,0.0008059873350081132,0.0008059873350081132
147.436,0.00019711150834129197,0.00019711150834129197
147.437,0.0007961006936743262,-0.0007961006936743262
147.43800000000002,0.0017325341889112848,-0.0017325341889112848
147.43900000000002,0.0021800830760612027,-0.0021800830760612027
147.44,0.0018626787798409143,-0.0018626787798409143
147.441,0.000754313238657138,-0.000754313238657138
147.442,0.0009080853963542452,0.0009080853963542452
147.443,0.0026936854143380143,0.0026936854143380143
147.44400000000002,0.0041032768437229096,0.0041032768437229096
147.44500000000002,0.0047096250733050645,0.0047096250733050645
147.446,0.004269540269715029,0.004269540269715029
147.447,0.00277737404400277,0.00277737404400277
147.448,0.0004512572490019434,0.0004512572490019434
147.449,0.002334471965113779,-0.002334471965113779
147.45000000000002,0.005142391762980801,-0.005142391762980801
147.45100000000002,0.007559521279926066,-0.007559521279926066
147.452,0.00925688318758729,-0.00925688318758729
147.453,0.010014473795837421,-0.010014473795837421
147.454,0.009720512036640285,-0.009720512036640285
147.455,0.00836246255233038,-0.00836246255233038
147.45600000000002,0.006025676315652166,-0.006025676315652166
147.45700000000002,0.002904809422081018,-0.002904809422081018
147.458,0.0006811472218623869,0.0006811472218623869
147.459,0.0042900717303404655,0.0042900717303404655
147.46,0.007394922320078793,0.007394922320078793
147.461,0.009468771923765176,0.009468771923765176
147.46200000000002,0.0101067295998088,0.0101067295998088
147.463,0.009153768601041558,0.009153768601041558
147.464,0.0067943556322487345,0.0067943556322487345
147.465,0.0035618269538097904,0.0035618269538097904
147.466,0.0002447787866954333,0.0002447787866954333
147.467,0.0023002099946539175,-0.0023002099946539175
147.46800000000002,0.0033856144841094317,-0.0033856144841094317
147.469,0.0027112815742376564,-0.0027112815742376564
147.47,0.0004914322221330281,-0.0004914322221330281
147.471,0.0025617451479898715,0.0025617451479898715
147.472,0.005409146725233951,0.005409146725233951
147.473,0.006972456643943921,0.006972456643943921
147.47400000000002,0.006458995429363558,0.006458995429363558
147.475,0.003625256933387042,0.003625256933387042
147.476,0.0011074415830801903,-0.0011074415830801903
147.477,0.006730729087148973,-0.006730729087148973
147.478,0.011907404863760468,-0.011907404863760468
147.479,0.015339530565219988,-0.015339530565219988
147.48000000000002,0.01613811425990725,-0.01613811425990725
147.481,0.014081668108261317,-0.014081668108261317
147.482,0.009682510926209266,-0.009682510926209266
147.483,0.004038183754807261,-0.004038183754807261
147.484,0.0014876349665016305,0.0014876349665016305
147.485,0.0056565235997514795,0.0056565235997514795
147.48600000000002,0.00769808432426453,0.00769808432426453
147.487,0.007499300387769563,0.007499300387769563
147.488,0.0055857438312979305,0.0055857438312979305
147.489,0.0029074444390520273,0.0029074444390520273
147.49,0.0005049296746346031,0.0005049296746346031
147.491,0.0008320252715049136,-0.0008320252715049136
147.49200000000002,0.0008012300044697751,-0.0008012300044697751
147.493,0.00035315201994114994,0.00035315201994114994
147.494,0.0019715269284186453,0.0019715269284186453
147.495,0.0032465159202425525,0.0032465159202425525
147.496,0.0035292792334686972,0.0035292792334686972
147.497,0.0025661306848451687,0.0025661306848451687
147.49800000000002,0.0005844832607210546,0.0005844832607210546
147.499,0.0017977593027230644,-0.0017977593027230644
147.5,0.0038022242705896977,-0.0038022242705896977
147.501,0.004773685329723795,-0.004773685329723795
147.502,0.004414142337987228,-0.004414142337987228
147.50300000000001,0.0028840380498809546,-0.0028840380498809546
147.50400000000002,0.0007366678458745336,-0.0007366678458745336
147.505,0.0012872587879558597,0.0012872587879558597
147.506,0.002527609130850969,0.002527609130850969
147.507,0.002636453742485821,0.002636453742485821
147.508,0.0016891731406752947,0.0016891731406752947
147.50900000000001,0.00013643523605713615,0.00013643523605713615
147.51000000000002,0.0013820758664714764,-0.0013820758664714764
147.511,0.002289835199228593,-0.002289835199228593
147.512,0.002294853512709443,-0.002294853512709443
147.513,0.001495464820115287,-0.001495464820115287
147.514,0.0003297129376125828,-0.0003297129376125828
147.51500000000001,0.0006125960176189193,0.0006125960176189193
147.51600000000002,0.0008426309459991642,0.0008426309459991642
147.517,0.00019071897850990539,0.00019071897850990539
147.518,0.0010987909693541396,-0.0010987909693541396
147.519,0.0024398255435222065,-0.0024398255435222065
147.52,0.0031245613214129077,-0.0031245613214129077
147.52100000000002,0.0026131324026642576,-0.0026131324026642576
147.52200000000002,0.0007837050455090488,-0.0007837050455090488
147.523,0.001957971741715793,0.001957971741715793
147.524,0.004763526002395409,0.004763526002395409
147.525,0.006605787221111981,0.006605787221111981
147.526,0.006638115895193949,0.006638115895193949
147.52700000000002,0.004524980168547077,0.004524980168547077
147.52800000000002,0.000621554585646315,0.000621554585646315
147.529,0.004073692409467729,-0.004073692409467729
147.53,0.008193689310674681,-0.008193689310674681
147.531,0.010425324736245788,-0.010425324736245788
147.532,0.009944840197921651,-0.009944840197921651
147.53300000000002,0.0067197895079624155,-0.0067197895079624155
147.53400000000002,0.0015699288050866666,-0.0015699288050866666
147.535,0.004043911874794694,0.004043911874794694
147.536,0.008444437137791345,0.008444437137791345
147.537,0.010245346863936251,0.010245346863936251
147.538,0.008781077830141409,0.008781077830141409
147.53900000000002,0.0043211391728519895,0.0043211391728519895
147.54000000000002,0.0020001364885036312,-0.0020001364885036312
147.541,0.008516194282344035,-0.008516194282344035
147.542,0.013517169217874776,-0.013517169217874776
147.543,0.015740696529274026,-0.015740696529274026
147.544,0.014712943270331454,-0.014712943270331454
147.54500000000002,0.010840268127396831,-0.010840268127396831
147.54600000000002,0.0052349615136458244,-0.0052349615136458244
147.547,0.0006559538700240294,0.0006559538700240294
147.548,0.005490497265031631,0.005490497265031631
147.549,0.00839741112842775,0.00839741112842775
147.55,0.009158818812147368,0.009158818812147368
147.55100000000002,0.00816909199467338,0.00816909199467338
147.55200000000002,0.006206784748976737,0.006206784748976737
147.553,0.004116332530054848,0.004116332530054848
147.554,0.0025184079497259856,0.0025184079497259856
147.555,0.0016466592462155453,0.0016466592462155453
147.556,0.0013540196535201151,0.0013540196535201151
147.55700000000002,0.0012654243203281269,0.0012654243203281269
147.55800000000002,0.001000538998540221,0.001000538998540221
147.559,0.0003690926105948816,0.0003690926105948816
147.56,0.0005409628023953622,-0.0005409628023953622
147.561,0.0014142461411515875,-0.0014142461411515875
147.562,0.001870643390430507,-0.001870643390430507
147.56300000000002,0.001666376099645995,-0.001666376099645995
147.56400000000002,0.0008438201112436419,-0.0008438201112436419
147.565,0.00023917233740173983,0.00023917233740173983
147.566,0.001020936876262386,0.001020936876262386
147.567,0.000951103714252378,0.000951103714252378
147.568,0.00027289698188167326,-0.00027289698188167326
147.56900000000002,0.0025431523409188872,-0.0025431523409188872
147.57000000000002,0.0053235712000141025,-0.0053235712000141025
147.571,0.007795407397008321,-0.007795407397008321
147.572,0.00912205702318162,-0.00912205702318162
147.573,0.008741370084252598,-0.008741370084252598
147.574,0.006578945656174178,-0.006578945656174178
147.57500000000002,0.0031007403340307478,-0.0031007403340307478
147.57600000000002,0.0008204147885917729,0.0008204147885917729
147.577,0.004182364113757129,0.004182364113757129
147.578,0.006179522292033641,0.006179522292033641
147.579,0.00646174281983606,0.00646174281983606
147.58,0.00523324281429583,0.00523324281429583
147.58100000000002,0.0031557614669036676,0.0031557614669036676
147.58200000000002,0.0010913683840528968,0.0010913683840528968
147.583,0.00022044134243806059,-0.00022044134243806059
147.584,0.00043173039662465176,-0.00043173039662465176
147.585,0.0002993159366037924,0.0002993159366037924
147.586,0.00139177438185303,0.00139177438185303
147.58700000000002,0.002092576158114577,0.002092576158114577
147.588,0.0017993971298452276,0.0017993971298452276
147.589,0.0003311408956918366,0.0003311408956918366
147.59,0.0019620668227171454,-0.0019620668227171454
147.591,0.004299364023746035,-0.004299364023746035
147.592,0.005751094505776043,-0.005751094505776043
147.59300000000002,0.005602179855401621,-0.005602179855401621
147.594,0.003660769937269324,-0.003660769937269324
147.595,0.0003895807693447825,-0.0003895807693447825
147.596,0.0032024951981609482,0.0032024951981609482
147.597,0.005884507689935329,0.005884507689935329
147.598,0.006637422201907877,0.006637422201907877
147.59900000000002,0.005045013953851669,0.005045013953851669
147.6,0.0014952460513099363,0.0014952460513099363
147.601,0.0028942093057122142,-0.0028942093057122142
147.602,0.0066182623137229085,-0.0066182623137229085
147.603,0.008290142484897763,-0.008290142484897763
147.604,0.0071422093692877575,-0.0071422093692877575
147.60500000000002,0.0033458113974383728,-0.0033458113974383728
147.606,0.0019721514017019184,0.0019721514017019184
147.607,0.007039665122982564,0.007039665122982564
147.608,0.009989739823705034,0.009989739823705034
147.609,0.009477443163005481,0.009477443163005481
147.61,0.005161142415688222,0.005161142415688222
147.61100000000002,0.00211719822525306,-0.00211719822525306
147.612,0.010523816401562816,-0.010523816401562816
147.613,0.017748076393588712,-0.017748076393588712
147.614,0.021685001115792756,-0.021685001115792756
147.615,0.021072592822670187,-0.021072592822670187
147.616,0.01588263126549859,-0.01588263126549859
147.61700000000002,0.007340692716233759,-0.007340692716233759
147.618,0.0024313302317118535,0.0024313302317118535
147.619,0.011037401396362854,0.011037401396362854
147.62,0.01649890965667986,0.01649890965667986
147.621,0.01780143520757951,0.01780143520757951
147.622,0.015132549214558958,0.015132549214558958
147.62300000000002,0.00974806304247374,0.00974806304247374
147.624,0.0035232416415624593,0.0035232416415624593
147.625,0.0016569838640930676,-0.0016569838640930676
147.626,0.004469930647476754,-0.004469930647476754
147.627,0.004511160503374529,-0.004511160503374529
147.62800000000001,0.0023340301607579755,-0.0023340301607579755
147.62900000000002,0.0008208810903207777,0.0008208810903207777
147.63,0.003500058662485431,0.003500058662485431
147.631,0.004547901469072084,0.004547901469072084
147.632,0.0034839043648453366,0.0034839043648453366
147.633,0.0006290439981453454,0.0006290439981453454
147.63400000000001,0.003046573858435024,-0.003046573858435024
147.63500000000002,0.006288697880099034,-0.006288697880099034
147.636,0.008003010221286886,-0.008003010221286886
147.637,0.00762514787653027,-0.00762514787653027
147.638,0.005295947070769305,-0.005295947070769305
147.639,0.0017923068922910963,-0.0017923068922910963
147.64000000000001,0.0017518156420445357,0.0017518156420445357
147.64100000000002,0.004231430249964853,0.004231430249964853
147.642,0.004930199911507721,0.004930199911507721
147.643,0.0037359814284287913,0.0037359814284287913
147.644,0.0011483700574856685,0.0011483700574856685
147.645,0.0019133589684917802,-0.0019133589684917802
147.64600000000002,0.004428132842182204,-0.004428132842182204
147.64700000000002,0.005605886267488123,-0.005605886267488123
147.648,0.005126202944178421,-0.005126202944178421
147.649,0.003211433620353197,-0.003211433620353197
147.65,0.0005217028697776581,-0.0005217028697776581
147.651,0.0020819088900784453,0.0020819088900784453
147.65200000000002,0.003820299964022512,0.003820299964022512
147.65300000000002,0.0042313796259621375,0.0042313796259621375
147.654,0.003286356257839678,0.003286356257839678
147.655,0.0013608948020328293,0.0013608948020328293
147.656,0.0009160479263335826,-0.0009160479263335826
147.657,0.002875726247169597,-0.002875726247169597
147.65800000000002,0.004011573342628571,-0.004011573342628571
147.65900000000002,0.004107550379262604,-0.004107550379262604
147.66,0.003261742165078085,-0.003261742165078085
147.661,0.00181177389382901,-0.00181177389382901
147.662,0.00019963880661222566,-0.00019963880661222566
147.663,0.0011719064522486553,0.0011719064522486553
147.66400000000002,0.002044127619352535,0.002044127619352535
147.66500000000002,0.0023413246994310553,0.0023413246994310553
147.666,0.0021437910328571874,0.0021437910328571874
147.667,0.0016172824840250042,0.0016172824840250042
147.668,0.0009329398270679804,0.0009329398270679804
147.669,0.00020896084440734562,0.00020896084440734562
