Czas,AbsSum,Sum
25.639000000000003,0.015915642935184125,-0.015915642935184125
25.64,0.009165703474644191,-0.009165703474644191
25.641000000000002,0.0026935786740971087,-0.0026935786740971087
25.642000000000003,0.002698386128057376,0.002698386128057376
25.643,0.0066916649282577866,0.0066916649282577866
25.644000000000002,0.009532252420652284,0.009532252420652284
25.645000000000003,0.011927356971081722,0.011927356971081722
25.646,0.014779467765997952,0.014779467765997952
25.647000000000002,0.018833452792614433,0.018833452792614433
25.648000000000003,0.024346109985248752,0.024346109985248752
25.649,0.030888529470842332,0.030888529470842332
25.650000000000002,0.03735724873569602,0.03735724873569602
25.651000000000003,0.042209276222126564,0.042209276222126564
25.652,0.04386648042655239,0.04386648042655239
25.653000000000002,0.041178239553442984,0.041178239553442984
25.654000000000003,0.033806246334617096,0.033806246334617096
25.655,0.022411391402100907,0.022411391402100907
25.656000000000002,0.008576471091165962,0.008576471091165962
25.657,0.005525303949852937,-0.005525303949852937
25.658,0.017630423485470077,-0.017630423485470077
25.659000000000002,0.02591680439013356,-0.02591680439013356
25.66,0.029419314039822377,-0.029419314039822377
25.661,0.028215028093318516,-0.028215028093318516
25.662000000000003,0.023332332467806735,-0.023332332467806735
25.663,0.016419417114583047,-0.016419417114583047
25.664,0.009276958935795093,-0.009276958935795093
25.665000000000003,0.003395327507340062,-0.003395327507340062
25.666,0.00037210008301797096,0.00037210008301797096
25.667,0.0019171190497553716,0.0019171190497553716
25.668000000000003,0.0017566762601514845,0.0017566762601514845
25.669,0.0007468463622504174,0.0007468463622504174
25.67,0.00025943140075574886,-0.00025943140075574886
25.671000000000003,0.0006926565235194803,-0.0006926565235194803
25.672,0.00039878503746237557,-0.00039878503746237557
25.673000000000002,0.00040385157827111463,0.00040385157827111463
25.674000000000003,0.001304329886372731,0.001304329886372731
25.675,0.0019297325365712347,0.0019297325365712347
25.676000000000002,0.002127491651268067,0.002127491651268067
25.677000000000003,0.002025427983918532,0.002025427983918532
25.678,0.0019484982450911328,0.0019484982450911328
25.679000000000002,0.002231859253847028,0.002231859253847028
25.680000000000003,0.003014610219317116,0.003014610219317116
25.681,0.004109849972869307,0.004109849972869307
25.682000000000002,0.00501924538148547,0.00501924538148547
25.683000000000003,0.005103538930446178,0.005103538930446178
25.684,0.0038552466495376486,0.0038552466495376486
25.685000000000002,0.0011712277016877532,0.0011712277016877532
25.686000000000003,0.0024892282765028484,-0.0024892282765028484
25.687,0.006143452521827939,-0.006143452521827939
25.688000000000002,0.00853761154968098,-0.00853761154968098
25.689,0.008548887371829142,-0.008548887371829142
25.69,0.00561101865889379,-0.00561101865889379
25.691000000000003,1.3450386506304916e-05,-1.3450386506304916e-05
25.692,0.007047099549606412,0.007047099549606412
25.693,0.013709917547204709,0.013709917547204709
25.694000000000003,0.017939169842880593,0.017939169842880593
25.695,0.018122084410593358,0.018122084410593358
25.696,0.01359306865176138,0.01359306865176138
25.697000000000003,0.0049115949801692175,0.0049115949801692175
25.698,0.006209544921437711,-0.006209544921437711
25.699,0.017322924660442704,-0.017322924660442704
25.700000000000003,0.025899571514636854,-0.025899571514636854
25.701,0.030026289920234678,-0.030026289920234678
25.702,0.028937928569877723,-0.028937928569877723
25.703000000000003,0.02322228523238267,-0.02322228523238267
25.704,0.014634426015123055,-0.014634426015123055
25.705000000000002,0.0055770839491679595,-0.0055770839491679595
25.706000000000003,0.0015938862386901673,0.0015938862386901673
25.707,0.005228096818523397,0.005228096818523397
25.708000000000002,0.004807201501164364,0.004807201501164364
25.709000000000003,0.0010195582735000044,0.0010195582735000044
25.71,0.004524801439885501,-0.004524801439885501
25.711000000000002,0.009835326908403523,-0.009835326908403523
25.712000000000003,0.013159849224446563,-0.013159849224446563
25.713,0.013487602685802593,-0.013487602685802593
25.714000000000002,0.010789888503352867,-0.010789888503352867
25.715000000000003,0.00594364174369616,-0.00594364174369616
25.716,0.00038751358357204125,-0.00038751358357204125
25.717000000000002,0.00435796216063329,0.00435796216063329
25.718000000000004,0.007141111898987037,0.007141111898987037
25.719,0.007459506815764314,0.007459506815764314
25.720000000000002,0.005498444233136937,0.005498444233136937
25.721,0.0019451687175801322,0.0019451687175801322
25.722,0.0023270094664552226,-0.0023270094664552226
25.723000000000003,0.00657304645566286,-0.00657304645566286
25.724,0.01037028715988007,-0.01037028715988007
25.725,0.01363015205142523,-0.01363015205142523
25.726000000000003,0.01644249147996346,-0.01644249147996346
25.727,0.018836342193810234,-0.018836342193810234
25.728,0.020574948488859476,-0.020574948488859476
25.729000000000003,0.021089829982514782,-0.021089829982514782
25.73,0.01960329248742957,-0.01960329248742957
25.731,0.01541173436987074,-0.01541173436987074
25.732000000000003,0.008232269630617451,-0.008232269630617451
25.733,0.0015207931554528551,0.0015207931554528551
25.734,0.012650476543227165,0.012650476543227165
25.735000000000003,0.023344954172605827,0.023344954172605827
25.736,0.03157566657563162,0.03157566657563162
25.737000000000002,0.03562002533581021,0.03562002533581021
25.738000000000003,0.0345520323153806,0.0345520323153806
25.739,0.028543760995962123,0.028543760995962123
25.740000000000002,0.018872715509031537,0.018872715509031537
25.741000000000003,0.007618652768097447,0.007618652768097447
25.742,0.0028699609389289445,-0.0028699609389289445
25.743000000000002,0.010586572683091943,-0.010586572683091943
25.744000000000003,0.014375278790517618,-0.014375278790517618
25.745,0.014188962695263267,-0.014188962695263267
25.746000000000002,0.011024638449325216,-0.011024638449325216
25.747000000000003,0.006562077335844469,-0.006562077335844469
25.748,0.002620682144510063,-0.002620682144510063
25.749000000000002,0.0006014787064017973,-0.0006014787064017973
25.75,0.00108075908254755,-0.00108075908254755
25.751,0.003670943844027753,-0.003670943844027753
25.752000000000002,0.007180035083816015,-0.007180035083816015
25.753,0.01001068939061513,-0.01001068939061513
25.754,0.010671254114197113,-0.010671254114197113
25.755000000000003,0.008243839953698663,-0.008243839953698663
25.756,0.002674616752936414,-0.002674616752936414
25.757,0.005189846907766425,0.005189846907766425
25.758000000000003,0.013819211073511051,0.013819211073511051
25.759,0.0213964094968188,0.0213964094968188
25.76,0.026277165598522154,0.026277165598522154
25.761000000000003,0.027385765494342105,0.027385765494342105
25.762,0.024448648687926008,0.024448648687926008
25.763,0.018019571386692215,0.018019571386692215
25.764000000000003,0.00930920884505315,0.00930920884505315
25.765,0.0001193249640693854,-0.0001193249640693854
25.766000000000002,0.008701549840542517,-0.008701549840542517
25.767000000000003,0.015182259130080993,-0.015182259130080993
25.768,0.018821357203988528,-0.018821357203988528
25.769000000000002,0.019465508677639853,-0.019465508677639853
25.770000000000003,0.017492006857623858,-0.017492006857623858
25.771,0.013658446779940098,-0.013658446779940098
25.772000000000002,0.008905391608331124,-0.008905391608331124
25.773000000000003,0.0041592108670377515,-0.0041592108670377515
25.774,0.00017227973889089314,-0.00017227973889089314
25.775000000000002,0.0025770826574883577,0.0025770826574883577
25.776000000000003,0.003917590330090711,0.003917590330090711
25.777,0.003955985439181282,0.003955985439181282
25.778000000000002,0.003000134102738474,0.003000134102738474
25.779000000000003,0.0014541064956227303,0.0014541064956227303
25.78,0.000291827091748504,-0.000291827091748504
25.781000000000002,0.0019531916543499765,-0.0019531916543499765
25.782,0.003405624371963328,-0.003405624371963328
25.783,0.004689449863505312,-0.004689449863505312
25.784000000000002,0.005963839868551692,-0.005963839868551692
25.785,0.007423055602621456,-0.007423055602621456
25.786,0.009198780837328807,-0.009198780837328807
25.787000000000003,0.011278496181786075,-0.011278496181786075
25.788,0.013467350900663366,-0.013467350900663366
25.789,0.015409614018089752,-0.015409614018089752
25.790000000000003,0.016668150614077403,-0.016668150614077403
25.791,0.016841651598814244,-0.016841651598814244
25.792,0.01568570185718773,-0.01568570185718773
25.793000000000003,0.013200188465570023,-0.013200188465570023
25.794,0.009653928563755841,-0.009653928563755841
25.795,0.005535631132598675,-0.005535631132598675
25.796000000000003,0.0014427869682816872,-0.0014427869682816872
25.797,0.0020604998852341875,0.0020604998852341875
25.798000000000002,0.004575858271256727,0.004575858271256727
25.799000000000003,0.005955346674936112,0.005955346674936112
25.8,0.006315663271165674,0.006315663271165674
25.801000000000002,0.0059809234428253215,0.0059809234428253215
25.802000000000003,0.005374534712308965,0.005374534712308965
25.803,0.004894738878012238,0.004894738878012238
25.804000000000002,0.004810724398130844,0.004810724398130844
25.805000000000003,0.0052067404104967985,0.0052067404104967985
25.806,0.005984323647880549,0.005984323647880549
25.807000000000002,0.0069140048306066525,0.0069140048306066525
25.808000000000003,0.007714149888675121,0.007714149888675121
25.809,0.00813005965309072,0.00813005965309072
25.810000000000002,0.007991557880242727,0.007991557880242727
25.811000000000003,0.007238899510848783,0.007238899510848783
25.812,0.005919652653324625,0.005919652653324625
25.813000000000002,0.004168064741920911,0.004168064741920911
25.814,0.0021803041546793163,0.0021803041546793163
25.815,0.00019413922752155202,0.00019413922752155202
25.816000000000003,0.001526675705043362,-0.001526675705043362
25.817,0.0027101134709851945,-0.0027101134709851945
25.818,0.0031043827267008897,-0.0031043827267008897
25.819000000000003,0.0025212041686089124,-0.0025212041686089124
25.82,0.000888337164579388,-0.000888337164579388
25.821,0.0017039808069267402,0.0017039808069267402
25.822000000000003,0.004983025196627039,0.004983025196627039
25.823,0.008516977394976206,0.008516977394976206
25.824,0.011786725401183328,0.011786725401183328
25.825000000000003,0.014294100815474328,0.014294100815474328
25.826,0.01567884807497633,0.01567884807497633
25.827,0.01580872056433399,0.01580872056433399
25.828000000000003,0.014811272085010508,0.014811272085010508
25.829,0.013032115548549373,0.013032115548549373
25.830000000000002,0.010927931962238962,0.010927931962238962
25.831000000000003,0.00892536168582204,0.00892536168582204
25.832,0.007290674407741365,0.007290674407741365
25.833000000000002,0.0060540813080870335,0.0060540813080870335
25.834000000000003,0.005016048794121125,0.005016048794121125
25.835,0.0038359296424027764,0.0038359296424027764
25.836000000000002,0.0021746810082778957,0.0021746810082778957
25.837000000000003,0.00015656631922426905,-0.00015656631922426905
25.838,0.0030943412046458394,-0.0030943412046458394
25.839000000000002,0.0063053022753751225,-0.0063053022753751225
25.840000000000003,0.009263794440982825,-0.009263794440982825
25.841,0.011402651802696617,-0.011402651802696617
25.842000000000002,0.012289691347315035,-0.012289691347315035
25.843000000000004,0.011772208810556331,-0.011772208810556331
25.844,0.010040963864711299,-0.010040963864711299
25.845000000000002,0.007590704120201542,-0.007590704120201542
25.846,0.005087643238788263,-0.005087643238788263
25.847,0.0031842297961959583,-0.0031842297961959583
25.848000000000003,0.002338037040254753,-0.002338037040254753
25.849,0.00268940162801733,-0.00268940162801733
25.85,0.004032731806658066,-0.004032731806658066
25.851000000000003,0.005886273776637191,-0.005886273776637191
25.852,0.007634912838215456,-0.007634912838215456
25.853,0.008700197620836087,-0.008700197620836087
25.854000000000003,0.008687261547216654,-0.008687261547216654
25.855,0.007469966175079755,-0.007469966175079755
25.856,0.005198173958706488,-0.005198173958706488
25.857000000000003,0.00223602447395152,-0.00223602447395152
25.858,0.0009411485557896302,0.0009411485557896302
25.859,0.0038565987592455546,0.0038565987592455546
25.860000000000003,0.006119434392184495,0.006119434392184495
25.861,0.007474172243207169,0.007474172243207169
25.862000000000002,0.00781333957962151,0.00781333957962151
25.863000000000003,0.0071652996515430365,0.0071652996515430365
25.864,0.005672564526939697,0.005672564526939697
25.865000000000002,0.0035708726170752166,0.0035708726170752166
25.866000000000003,0.001170095652605931,0.001170095652605931
25.867,0.0011698907200453593,-0.0011698907200453593
25.868000000000002,0.003077304146247986,-0.003077304146247986
25.869000000000003,0.004224115801112786,-0.004224115801112786
25.87,0.004392389686519457,-0.004392389686519457
25.871000000000002,0.003533897556366789,-0.003533897556366789
25.872000000000003,0.0018007288148250277,-0.0018007288148250277
25.873,0.0004709819063939394,0.0004709819063939394
25.874000000000002,0.0028286628483292116,0.0028286628483292116
25.875,0.004808662321191624,0.004808662321191624
25.876,0.006050111100193133,0.006050111100193133
25.877000000000002,0.0063815784462402676,0.0063815784462402676
25.878,0.0058512337966920925,0.0058512337966920925
25.879,0.004689312192430604,0.004689312192430604
25.880000000000003,0.0032153629890008277,0.0032153629890008277
25.881,0.0017232266803206642,0.0017232266803206642
25.882,0.0003857386189897471,0.0003857386189897471
25.883000000000003,0.0007854391392776948,-0.0007854391392776948
25.884,0.0019100289827432317,-0.0019100289827432317
25.885,0.00315180427025031,-0.00315180427025031
25.886000000000003,0.004609654025825289,-0.004609654025825289
25.887,0.0062332882128282915,-0.0062332882128282915
25.888,0.007802060411175421,-0.007802060411175421
25.889000000000003,0.008981597812964271,-0.008981597812964271
25.89,0.009441642708368468,-0.009441642708368468
25.891000000000002,0.008991746344456248,-0.008991746344456248
25.892000000000003,0.0076802045423136935,-0.0076802045423136935
25.893,0.005811453070129589,-0.005811453070129589
25.894000000000002,0.0038656759852772156,-0.0038656759852772156
25.895000000000003,0.002341741984175175,-0.002341741984175175
25.896,0.001576771023959534,-0.001576771023959534
25.897000000000002,0.0016097070352840785,-0.0016097070352840785
25.898000000000003,0.0021454295442694853,-0.0021454295442694853
25.899,0.0026425125711853834,-0.0026425125711853834
25.900000000000002,0.0025028709260681656,-0.0025028709260681656
25.901000000000003,0.0013014413147377896,-0.0013014413147377896
25.902,0.0010258326316399463,0.0010258326316399463
25.903000000000002,0.004108330557423566,0.004108330557423566
25.904000000000003,0.007217480070034229,0.007217480070034229
25.905,0.009477856659616472,0.009477856659616472
25.906000000000002,0.010147262272293496,0.010147262272293496
25.907,0.00887194139301815,0.00887194139301815
25.908,0.005826976902276947,0.005826976902276947
25.909000000000002,0.0016881882524802882,0.0016881882524802882
25.91,0.002561226860933373,-0.002561226860933373
25.911,0.0059282447418125585,-0.0059282447418125585
25.912000000000003,0.007712751112468607,-0.007712751112468607
25.913,0.007712625567448217,-0.007712625567448217
25.914,0.0062609499929005726,-0.0062609499929005726
25.915000000000003,0.004083317833995534,-0.004083317833995534
25.916,0.0020266144183282166,-0.0020266144183282166
25.917,0.000756453804744613,-0.000756453804744613
25.918000000000003,0.000531812130930648,-0.000531812130930648
25.919,0.001137601093275871,-0.001137601093275871
25.92,0.0019984679433980696,-0.0019984679433980696
25.921000000000003,0.0024304925384776065,-0.0024304925384776065
25.922,0.001935913474336593,-0.001935913474336593
25.923000000000002,0.0004287177849298219,-0.0004287177849298219
25.924000000000003,0.0016971645904372713,0.0016971645904372713
25.925,0.003688239777534468,0.003688239777534468
25.926000000000002,0.004701693088222982,0.004701693088222982
25.927000000000003,0.004129557580594293,0.004129557580594293
25.928,0.0018576139427716168,0.0018576139427716168
25.929000000000002,0.0016401809665952142,-0.0016401809665952142
25.930000000000003,0.005414087924362309,-0.005414087924362309
25.931,0.008326423033239662,-0.008326423033239662
25.932000000000002,0.00941935158985787,-0.00941935158985787
25.933000000000003,0.008236097734333847,-0.008236097734333847
25.934,0.004982810089540055,-0.004982810089540055
25.935000000000002,0.0004726036557125603,-0.0004726036557125603
25.936000000000003,0.00413098365382666,0.00413098365382666
25.937,0.00768373259523658,0.00768373259523658
25.938000000000002,0.009416914053883181,0.009416914053883181
25.939,0.009158717673161681,0.009158717673161681
25.94,0.007348321543121047,0.007348321543121047
25.941000000000003,0.004843931763226104,0.004843931763226104
25.942,0.0025986907183222665,0.0025986907183222665
25.943,0.0013233572151499077,0.0013233572151499077
25.944000000000003,0.0012560658871324437,0.0012560658871324437
25.945,0.002117269978959571,0.002117269978959571
25.946,0.0032581513224946073,0.0032581513224946073
25.947000000000003,0.003939390805825596,0.003939390805825596
25.948,0.0036306606788836793,0.0036306606788836793
25.949,0.002216512886474732,0.002216512886474732
25.950000000000003,3.272548026492207e-05,3.272548026492207e-05
25.951,0.0022763218546549844,-0.0022763218546549844
25.952,0.004019533605873743,-0.004019533605873743
25.953000000000003,0.004735164274307629,-0.004735164274307629
25.954,0.004371663552161267,-0.004371663552161267
25.955000000000002,0.0033021921405050033,-0.0033021921405050033
25.956000000000003,0.0021677573971142865,-0.0021677573971142865
25.957,0.0016120723077387377,-0.0016120723077387377
25.958000000000002,0.002014789291439609,-0.002014789291439609
25.959000000000003,0.003331288109056893,-0.003331288109056893
25.96,0.005105489965241117,-0.005105489965241117
25.961000000000002,0.006652996345006493,-0.006652996345006493
25.962000000000003,0.007342188198416297,-0.007342188198416297
25.963,0.006858685473616096,-0.006858685473616096
25.964000000000002,0.0053416879365545365,-0.0053416879365545365
25.965000000000003,0.0033297442336820775,-0.0033297442336820775
25.966,0.0015307003064686097,-0.0015307003064686097
25.967000000000002,0.0005061360464382081,-0.0005061360464382081
25.968000000000004,0.00040373057717747767,-0.00040373057717747767
25.969,0.0008619935376779121,-0.0008619935376779121
25.970000000000002,0.001150364090578271,-0.001150364090578271
25.971,0.0005142151570495943,-0.0005142151570495943
25.972,0.0013966713150742839,0.0013966713150742839
25.973000000000003,0.004189790392468707,0.004189790392468707
25.974,0.006644537492562087,0.006644537492562087
25.975,0.0069664224402494895,0.0069664224402494895
25.976000000000003,0.003348420046355191,0.003348420046355191
25.977,0.0053148440560149045,-0.0053148440560149045
25.978,0.018794299178109132,-0.018794299178109132
25.979000000000003,0.03521416084775519,-0.03521416084775519
25.98,0.05122040441610773,-0.05122040441610773
25.981,0.06264766727564641,-0.06264766727564641
25.982000000000003,0.06553999921695848,-0.06553999921695848
25.983,0.057252447177939585,-0.057252447177939585
25.984,0.03731109567448824,-0.03731109567448824
25.985000000000003,0.007759874279373227,-0.007759874279373227
25.986,0.02713824702859791,0.02713824702859791
25.987000000000002,0.06179133445810939,0.06179133445810939
25.988000000000003,0.09052948557184795,0.09052948557184795
25.989,0.10887718355578475,0.10887718355578475
25.990000000000002,0.11450050316396834,0.11450050316396834
25.991000000000003,0.10758077662835673,0.10758077662835673
25.992,0.09053846997781766,0.09053846997781766
25.993000000000002,0.06722241323249392,0.06722241323249392
25.994000000000003,0.041829705471254176,0.041829705471254176
25.995,0.017884325782419563,0.017884325782419563
25.996000000000002,0.002439277569203794,-0.002439277569203794
25.997000000000003,0.018490210333341008,-0.018490210333341008
25.998,0.03082604784879819,-0.03082604784879819
25.999000000000002,0.040576953652534435,-0.040576953652534435
26.0,0.048746496781125775,-0.048746496781125775
26.001,0.05570373352971915,-0.05570373352971915
26.002000000000002,0.06103184701923841,-0.06103184701923841
26.003,0.06375785975828266,-0.06375785975828266
26.004,0.06284672618008363,-0.06284672618008363
26.005000000000003,0.057750737057350926,-0.057750737057350926
26.006,0.04879213567186981,-0.04879213567186981
26.007,0.03722490868655702,-0.03722490868655702
26.008000000000003,0.024944099378051678,-0.024944099378051678
26.009,0.013942544473534631,-0.013942544473534631
26.01,0.005708422503923047,-0.005708422503923047
26.011000000000003,0.0007797258726715539,-0.0007797258726715539
26.012,0.0013832817845130338,0.0013832817845130338
26.013,0.0021588191859996378,0.0021588191859996378
26.014000000000003,0.0032378628369182975,0.0032378628369182975
26.015,0.005992637244606988,0.005992637244606988
26.016000000000002,0.010956883897352793,0.010956883897352793
26.017000000000003,0.017596780701063085,0.017596780701063085
26.018,0.024451520843493946,0.024451520843493946
26.019000000000002,0.029596792787013514,0.029596792787013514
26.020000000000003,0.03127618432824058,0.03127618432824058
26.021,0.028491307768163526,0.028491307768163526
26.022000000000002,0.02135829265895527,0.02135829265895527
26.023000000000003,0.01111863461682327,0.01111863461682327
26.024,0.00019265456609806846,-0.00019265456609806846
26.025000000000002,0.010308658743866694,-0.010308658743866694
26.026000000000003,0.017340352417279863,-0.017340352417279863
26.027,0.020246628043627223,-0.020246628043627223
26.028000000000002,0.019031506149569038,-0.019031506149569038
26.029000000000003,0.014630102889291818,-0.014630102889291818
26.03,0.008545542710183929,-0.008545542710183929
26.031000000000002,0.0023718481112364846,-0.0023718481112364846
26.032,0.0026393238419090636,0.0026393238419090636
26.033,0.005841178817769919,0.005841178817769919
26.034000000000002,0.007226515514839313,0.007226515514839313
26.035,0.007259495046156318,0.007259495046156318
26.036,0.006593854651126089,0.006593854651126089
26.037000000000003,0.005793569054399456,0.005793569054399456
26.038,0.005154805341796748,0.005154805341796748
26.039,0.004677354274717,0.004677354274717
26.040000000000003,0.004170994706966842,0.004170994706966842
26.041,0.0034315685020289443,0.0034315685020289443
26.042,0.0024007453375919294,0.0024007453375919294
26.043000000000003,0.0012379991633276809,0.0012379991633276809
26.044,0.0002750865305908957,0.0002750865305908957
26.045,0.00012551470676390412,-0.00012551470676390412
26.046000000000003,0.00025350309475695996,0.00025350309475695996
26.047,0.0013500266915827332,0.0013500266915827332
26.048000000000002,0.00278969393099524,0.00278969393099524
26.049000000000003,0.003974909763149971,0.003974909763149971
26.05,0.004269312588642499,0.004269312588642499
26.051000000000002,0.003214896378489378,0.003214896378489378
26.052000000000003,0.0007062547608239154,0.0007062547608239154
26.053,0.0029387506596039695,-0.0029387506596039695
26.054000000000002,0.00703659971414165,-0.00703659971414165
26.055000000000003,0.010705388195589732,-0.010705388195589732
26.056,0.013088272367975547,-0.013088272367975547
26.057000000000002,0.013564878103173571,-0.013564878103173571
26.058000000000003,0.011891582274977145,-0.011891582274977145
26.059,0.00823927186163164,-0.00823927186163164
26.060000000000002,0.0031319368906997363,-0.0031319368906997363
26.061000000000003,0.0026817623228845813,0.0026817623228845813
26.062,0.008378457985860092,0.008378457985860092
26.063000000000002,0.013190735660066668,0.013190735660066668
26.064,0.016495665444919982,0.016495665444919982
26.065,0.017860292053988685,0.017860292053988685
26.066000000000003,0.01705908806666021,0.01705908806666021
26.067,0.014082098764149058,0.014082098764149058
26.068,0.009143992348674483,0.009143992348674483
26.069000000000003,0.0026892733659919584,0.0026892733659919584
26.07,0.004623660709098821,-0.004623660709098821
26.071,0.011979406352990022,-0.011979406352990022
26.072000000000003,0.018512516460381413,-0.018512516460381413
26.073,0.023453216842569475,-0.023453216842569475
26.074,0.026278815669632638,-0.026278815669632638
26.075000000000003,0.026824950400251985,-0.026824950400251985
26.076,0.025314502565489436,-0.025314502565489436
26.077,0.022283480667991802,-0.022283480667991802
26.078000000000003,0.018416355414741816,-0.018416355414741816
26.079,0.014336625637485959,-0.014336625637485959
26.080000000000002,0.010418887803341267,-0.010418887803341267
26.081000000000003,0.006687200959837601,-0.006687200959837601
26.082,0.0028395292084809703,-0.0028395292084809703
26.083000000000002,0.0016032730569654568,0.0016032730569654568
26.084000000000003,0.007069261212369702,0.007069261212369702
26.085,0.013703944010075247,0.013703944010075247
26.086000000000002,0.02121726353631667,0.02121726353631667
26.087000000000003,0.0288682245340939,0.0288682245340939
26.088,0.0356023517428152,0.0356023517428152
26.089000000000002,0.040306151118564025,0.040306151118564025
26.090000000000003,0.04210228310324388,0.04210228310324388
26.091,0.0405934520833064,0.0405934520833064
26.092000000000002,0.035977898062225316,0.035977898062225316
26.093000000000004,0.0290000773368807,0.0290000773368807
26.094,0.020752875369816223,0.020752875369816223
26.095000000000002,0.012394568919719877,0.012394568919719877
26.096,0.004868952197720549,0.004868952197720549
26.097,0.00128754884595577,-0.00128754884595577
26.098000000000003,0.005999999874538644,-0.005999999874538644
26.099,0.00956627706601308,-0.00956627706601308
26.1,0.012468080138186165,-0.012468080138186165
26.101000000000003,0.015153609481379454,-0.015153609481379454
26.102,0.01786699946450844,-0.01786699946450844
26.103,0.020576777721616223,-0.020576777721616223
26.104000000000003,0.023016445013886742,-0.023016445013886742
26.105,0.024809698753490535,-0.024809698753490535
26.106,0.025625516765675222,-0.025625516765675222
26.107000000000003,0.025303277126468127,-0.025303277126468127
26.108,0.023905568719215203,-0.023905568719215203
26.109,0.021688138240742727,-0.021688138240742727
26.110000000000003,0.019009320860655446,-0.019009320860655446
26.111,0.016222376847942126,-0.016222376847942126
26.112000000000002,0.013595744030397141,-0.013595744030397141
26.113000000000003,0.011288774346400398,-0.011288774346400398
26.114,0.009382243688881136,-0.009382243688881136
26.115000000000002,0.00793630361043317,-0.00793630361043317
26.116000000000003,0.007035269218973067,-0.007035269218973067
26.117,0.006784801769184733,-0.006784801769184733
26.118000000000002,0.007250562591828987,-0.007250562591828987
26.119000000000003,0.008358688888246384,-0.008358688888246384
26.12,0.00980405140805979,-0.00980405140805979
26.121000000000002,0.011020286438715894,-0.011020286438715894
26.122000000000003,0.011250564131562427,-0.011250564131562427
26.123,0.009723484463048349,-0.009723484463048349
26.124000000000002,0.0058960827469971885,-0.0058960827469971885
26.125,0.0003084750098168243,0.0003084750098168243
26.126,0.008353143016304127,0.008353143016304127
26.127000000000002,0.017096812677370458,0.017096812677370458
26.128,0.024986204902127305,0.024986204902127305
26.129,0.0303979090544592,0.0303979090544592
26.130000000000003,0.03204719432699872,0.03204719432699872
26.131,0.02935142779146788,0.02935142779146788
26.132,0.02264063189870633,0.02264063189870633
26.133000000000003,0.013145982504299625,0.013145982504299625
26.134,0.0027579306515594674,0.0027579306515594674
26.135,0.006389365494765252,-0.006389365494765252
26.136000000000003,0.01240144645570627,-0.01240144645570627
26.137,0.014050497191415988,-0.014050497191415988
26.138,0.011038850375409855,-0.011038850375409855
26.139000000000003,0.004038944609150966,-0.004038944609150966
26.14,0.005488989874927801,0.005488989874927801
26.141000000000002,0.01564311239027685,0.01564311239027685
26.142000000000003,0.024494958897481656,0.024494958897481656
26.143,0.03047073159561738,0.03047073159561738
26.144000000000002,0.03261719857525441,0.03261719857525441
26.145000000000003,0.03071010832604897,0.03071010832604897
26.146,0.025207358764125033,0.025207358764125033
26.147000000000002,0.01708470316073975,0.01708470316073975
26.148000000000003,0.007609908320201804,0.007609908320201804
26.149,0.0018895086650116987,-0.0018895086650116987
26.150000000000002,0.010224546588362896,-0.010224546588362896
26.151000000000003,0.016488562558452702,-0.016488562558452702
26.152,0.020143138064614534,-0.020143138064614534
26.153000000000002,0.021051261663788665,-0.021051261663788665
26.154000000000003,0.019463935975842738,-0.019463935975842738
26.155,0.01596316671625729,-0.01596316671625729
26.156000000000002,0.011362743454159104,-0.011362743454159104
26.157,0.0065722648671608045,-0.0065722648671608045
26.158,0.002439709495797889,-0.002439709495797889
26.159000000000002,0.00040039265805790267,0.00040039265805790267
26.16,0.001638795537989601,0.001638795537989601
26.161,0.0013318177916805244,0.0013318177916805244
26.162000000000003,0.00014632210394990253,-0.00014632210394990253
26.163,0.0022310525345682064,-0.0022310525345682064
26.164,0.004340824149572202,-0.004340824149572202
26.165000000000003,0.00604451082835243,-0.00604451082835243
26.166,0.007169476073540822,-0.007169476073540822
26.167,0.007814210572627486,-0.007814210572627486
26.168000000000003,0.008261156234084655,-0.008261156234084655
26.169,0.008821072203278343,-0.008821072203278343
26.17,0.009667086714114337,-0.009667086714114337
26.171000000000003,0.010723643028583767,-0.010723643028583767
26.172,0.01165864956918975,-0.01165864956918975
26.173000000000002,0.011990733443061518,-0.011990733443061518
26.174000000000003,0.011279713944467275,-0.011279713944467275
26.175,0.009333105301877285,-0.009333105301877285
26.176000000000002,0.00634851678717798,-0.00634851678717798
26.177000000000003,0.002927862132330537,-0.002927862132330537
26.178,5.929563545083994e-05,5.929563545083994e-05
26.179000000000002,0.0017323673380357485,0.0017323673380357485
26.180000000000003,0.0014983157692657198,0.0014983157692657198
26.181,0.0007089075501086228,-0.0007089075501086228
26.182000000000002,0.004338092232059963,-0.004338092232059963
26.183000000000003,0.008325893357851213,-0.008325893357851213
26.184,0.011380197346744681,-0.011380197346744681
26.185000000000002,0.012362462235498162,-0.012362462235498162
26.186000000000003,0.010650536236592865,-0.010650536236592865
26.187,0.00636196895684435,-0.00636196895684435
26.188000000000002,0.00035667894365847366,-0.00035667894365847366
26.189,0.005994069462818428,0.005994069462818428
26.19,0.011209641668618113,0.011209641668618113
26.191000000000003,0.014151759626212844,0.014151759626212844
26.192,0.014383744019563391,0.014383744019563391
26.193,0.01231966932851683,0.01231966932851683
26.194000000000003,0.009109407403815056,0.009109407403815056
26.195,0.0062882687693330015,0.0062882687693330015
26.196,0.005295323135185952,0.005295323135185952
26.197000000000003,0.0070079456816660715,0.0070079456816660715
26.198,0.011437266291610916,0.011437266291610916
26.199,0.017680533685801053,0.017680533685801053
26.200000000000003,0.024147348230561548,0.024147348230561548
26.201,0.028992501602852147,0.028992501602852147
26.202,0.03062557741245431,0.03062557741245431
26.203000000000003,0.02814610189487146,0.02814610189487146
26.204,0.0215789638027605,0.0215789638027605
26.205000000000002,0.011848823497822592,0.011848823497822592
26.206000000000003,0.000513053578060809,0.000513053578060809
26.207,0.010655701709826269,-0.010655701709826269
26.208000000000002,0.020106316596004335,-0.020106316596004335
26.209000000000003,0.02683731549002567,-0.02683731549002567
26.21,0.03053136398520704,-0.03053136398520704
26.211000000000002,0.03147831943695955,-0.03147831943695955
26.212000000000003,0.030337332987654113,-0.030337332987654113
26.213,0.027835529491424208,-0.027835529491424208
26.214000000000002,0.024512275767428336,-0.024512275767428336
26.215000000000003,0.020592195780919014,-0.020592195780919014
26.216,0.01601771272624682,-0.01601771272624682
26.217000000000002,0.010612244890173159,-0.010612244890173159
26.218000000000004,0.004299103614975991,-0.004299103614975991
26.219,0.0027160540110580636,0.0027160540110580636
26.220000000000002,0.009874910551212864,0.009874910551212864
26.221,0.01634091073530451,0.01634091073530451
26.222,0.021197255496544613,0.021197255496544613
26.223000000000003,0.023702006878802393,0.023702006878802393
26.224,0.023512649279388342,0.023512649279388342
26.225,0.02080221534916506,0.02080221534916506
26.226000000000003,0.016225785577116555,0.016225785577116555
26.227,0.010746606359414176,0.010746606359414176
26.228,0.005377643374824112,0.005377643374824112
26.229000000000003,0.0009212574700834798,0.0009212574700834798
26.23,0.002211836374635972,-0.002211836374635972
26.231,0.004051854320621209,-0.004051854320621209
26.232000000000003,0.004980367975957257,-0.004980367975957257
26.233,0.005540912104645284,-0.005540912104645284
26.234,0.006220021178105566,-0.006220021178105566
26.235000000000003,0.007275011561405673,-0.007275011561405673
26.236,0.008664485336182746,-0.008664485336182746
26.237000000000002,0.010098617119274239,-0.010098617119274239
26.238000000000003,0.01118284798022408,-0.01118284798022408
26.239,0.011595940220902691,-0.011595940220902691
26.240000000000002,0.011232671730863253,-0.011232671730863253
26.241000000000003,0.01025612749366119,-0.01025612749366119
26.242,0.009039022986763632,-0.009039022986763632
26.243000000000002,0.008015331453196127,-0.008015331453196127
26.244000000000003,0.007497735126262354,-0.007497735126262354
26.245,0.007530813926036149,-0.007530813926036149
26.246000000000002,0.007839084471542851,-0.007839084471542851
26.247000000000003,0.007896450692151254,-0.007896450692151254
26.248,0.0071004049088994855,-0.0071004049088994855
26.249000000000002,0.004995390238187468,-0.004995390238187468
26.25,0.0014688622900035206,-0.0014688622900035206
26.251,0.0031513912709618635,0.0031513912709618635
26.252000000000002,0.008140047974117137,0.008140047974117137
26.253,0.012552834186525436,0.012552834186525436
26.254,0.015490196570109702,0.015490196570109702
26.255000000000003,0.016363979137310827,0.016363979137310827
26.256,0.015079743074776764,0.015079743074776764
26.257,0.012070976528317037,0.012070976528317037
26.258000000000003,0.008167260413945913,0.008167260413945913
26.259,0.004332268059950457,0.004332268059950457
26.26,0.0013519608922153714,0.0013519608922153714
26.261000000000003,0.0004263893850617366,-0.0004263893850617366
26.262,0.0012152469070656126,-0.0012152469070656126
26.263,0.0017197556024929508,-0.0017197556024929508
26.264000000000003,0.002892876822531225,-0.002892876822531225
26.265,0.005581137806390939,-0.005581137806390939
26.266000000000002,0.010168785266533687,-0.010168785266533687
26.267000000000003,0.01633561879314712,-0.01633561879314712
26.268,0.02301571508025264,-0.02301571508025264
26.269000000000002,0.028587892653861604,-0.028587892653861604
26.270000000000003,0.03126028459687972,-0.03126028459687972
26.271,0.029551128339779468,-0.029551128339779468
26.272000000000002,0.022734228003378522,-0.022734228003378522
26.273000000000003,0.011121284619530113,-0.011121284619530113
26.274,0.003905770540193614,0.003905770540193614
26.275000000000002,0.02013242635324679,0.02013242635324679
26.276000000000003,0.034965457149283966,0.034965457149283966
26.277,0.04598981064158176,0.04598981064158176
26.278000000000002,0.051487281426424024,0.051487281426424024
26.279000000000003,0.05078689678092697,0.05078689678092697
26.28,0.044363669505350645,0.044363669505350645
26.281000000000002,0.03367075826344529,0.03367075826344529
26.282,0.020760234430476317,0.020760234430476317
26.283,0.0077997367550408465,0.0077997367550408465
26.284000000000002,0.0033876308435377713,-0.0033876308435377713
26.285,0.01164880198943742,-0.01164880198943742
26.286,0.016625716472364636,-0.016625716472364636
26.287000000000003,0.018673738764946136,-0.018673738764946136
26.288,0.018623602864752065,-0.018623602864752065
26.289,0.017473230793927583,-0.017473230793927583
26.290000000000003,0.01610330505299278,-0.01610330505299278
26.291,0.015089751996244096,-0.015089751996244096
26.292,0.014646441683965214,-0.014646441683965214
26.293000000000003,0.014686751939359253,-0.014686751939359253
26.294,0.014957770837085882,-0.014957770837085882
26.295,0.015185952925691503,-0.015185952925691503
26.296000000000003,0.015180676289707297,-0.015180676289707297
26.297,0.014867243436385699,-0.014867243436385699
26.298000000000002,0.014252787619939283,-0.014252787619939283
26.299000000000003,0.013355161334986146,-0.013355161334986146
26.3,0.012136902396190518,-0.012136902396190518
26.301000000000002,0.010480443212861023,-0.010480443212861023
26.302000000000003,0.008220306849559978,-0.008220306849559978
26.303,0.005221794824486067,-0.005221794824486067
26.304000000000002,0.001474116051095075,-0.001474116051095075
26.305000000000003,0.0028425755197263513,0.0028425755197263513
26.306,0.007348939925365613,0.007348939925365613
26.307000000000002,0.011528581454512035,0.011528581454512035
26.308000000000003,0.014845711273545573,0.014845711273545573
26.309,0.016881799433215727,0.016881799433215727
26.310000000000002,0.01744591397967142,0.01744591397967142
26.311000000000003,0.01662106815719369,0.01662106815719369
26.312,0.014730290088804828,0.014730290088804828
26.313000000000002,0.012233607661805417,0.012233607661805417
26.314,0.009590779449040703,0.009590779449040703
26.315,0.0071358758292128606,0.0071358758292128606
26.316000000000003,0.0050047120682578375,0.0050047120682578375
26.317,0.003136608881514504,0.003136608881514504
26.318,0.0013451829262043369,0.0013451829262043369
26.319000000000003,0.0005713950122921671,-0.0005713950122921671
26.32,0.002723240042077763,-0.002723240042077763
26.321,0.005064449544071835,-0.005064449544071835
26.322000000000003,0.007394092127809489,-0.007394092127809489
26.323,0.00941972331151532,-0.00941972331151532
26.324,0.01085707351855761,-0.01085707351855761
26.325000000000003,0.011526401441076079,-0.011526401441076079
26.326,0.011408158147900735,-0.011408158147900735
26.327,0.01063715934471794,-0.01063715934471794
26.328000000000003,0.009439056964775719,-0.009439056964775719
26.329,0.008036081795478812,-0.008036081795478812
26.330000000000002,0.0065617761167755615,-0.0065617761167755615
26.331000000000003,0.005021573546738827,-0.005021573546738827
26.332,0.0033183019567759498,-0.0033183019567759498
26.333000000000002,0.0013354051099625118,-0.0013354051099625118
26.334000000000003,0.0009542206083727298,0.0009542206083727298
26.335,0.003399664526756454,0.003399664526756454
26.336000000000002,0.005646334051717428,0.005646334051717428
26.337000000000003,0.007195649994165771,0.007195649994165771
26.338,0.00754200345478305,0.00754200345478305
26.339000000000002,0.00634849375193104,0.00634849375193104
26.340000000000003,0.0036038565550915924,0.0036038565550915924
26.341,0.0002972604728262866,-0.0002972604728262866
26.342000000000002,0.004588623619457161,-0.004588623619457161
26.343000000000004,0.008284924593279824,-0.008284924593279824
26.344,0.010418097146970274,-0.010418097146970274
26.345000000000002,0.010293968956318815,-0.010293968956318815
26.346,0.007695439944230582,-0.007695439944230582
26.347,0.002970709993589602,-0.002970709993589602
26.348000000000003,0.003023318022420557,0.003023318022420557
26.349,0.009111089048902328,0.009111089048902328
26.35,0.014072345040494212,0.014072345040494212
26.351000000000003,0.01692693090218038,0.01692693090218038
26.352,0.017155486573146642,0.017155486573146642
26.353,0.014800696836504453,0.014800696836504453
26.354000000000003,0.010428374689039276,0.010428374689039276
26.355,0.004966343049718555,0.004966343049718555
26.356,0.0005296705350323806,-0.0005296705350323806
26.357000000000003,0.005118636016360955,-0.005118636016360955
26.358,0.008164624059945877,-0.008164624059945877
26.359,0.009434299621329434,-0.009434299621329434
26.360000000000003,0.00908953935183417,-0.00908953935183417
26.361,0.0075914858212659695,-0.0075914858212659695
26.362000000000002,0.005552217348424134,-0.005552217348424134
26.363000000000003,0.0035773149392495335,-0.0035773149392495335
26.364,0.0021370753633221896,-0.0021370753633221896
26.365000000000002,0.0014898494921596185,-0.0014898494921596185
26.366000000000003,0.0016637824101597349,-0.0016637824101597349
26.367,0.0024885836132521938,-0.0024885836132521938
26.368000000000002,0.003660280686555455,-0.003660280686555455
26.369000000000003,0.004819847885522468,-0.004819847885522468
26.37,0.005629451190020718,-0.005629451190020718
26.371000000000002,0.005835016471076851,-0.005835016471076851
26.372000000000003,0.005308443408990934,-0.005308443408990934
26.373,0.004065915266910116,-0.004065915266910116
26.374000000000002,0.002260759873496603,-0.002260759873496603
26.375,0.00015145916175541223,-0.00015145916175541223
26.376,0.0019512015231405158,0.0019512015231405158
26.377000000000002,0.0037491499615396346,0.0037491499615396346
26.378,0.0050208220949389025,0.0050208220949389025
26.379,0.005667899945620472,0.005667899945620472
26.380000000000003,0.005731043467213781,0.005731043467213781
26.381,0.005367656700327511,0.005367656700327511
26.382,0.0047955346115199915,0.0047955346115199915
26.383000000000003,0.004217639208693608,0.004217639208693608
26.384,0.0037511188849677583,0.0037511188849677583
26.385,0.00338454752053486,0.00338454752053486
26.386000000000003,0.0029799387517592257,0.0029799387517592257
26.387,0.0023220963130444355,0.0023220963130444355
26.388,0.0012016811417764049,0.0012016811417764049
26.389000000000003,0.0004943391344203244,-0.0004943391344203244
26.39,0.002715573260421645,-0.002715573260421645
26.391000000000002,0.005229010609674983,-0.005229010609674983
26.392000000000003,0.00765725048340892,-0.00765725048340892
26.393,0.009564555328522134,-0.009564555328522134
26.394000000000002,0.010564684193443866,-0.010564684193443866
26.395000000000003,0.010416702871039785,-0.010416702871039785
26.396,0.00907896122876007,-0.00907896122876007
26.397000000000002,0.006706013652873001,-0.006706013652873001
26.398000000000003,0.0035932979085126675,-0.0035932979085126675
26.399,9.254694582626963e-05,-9.254694582626963e-05
26.400000000000002,0.0034696536206264106,0.0034696536206264106
26.401000000000003,0.006840763012947604,0.006840763012947604
26.402,0.009843780210737467,0.009843780210737467
26.403000000000002,0.012337138221543581,0.012337138221543581
26.404000000000003,0.01415756683087605,0.01415756683087605
26.405,0.015079726723213688,0.015079726723213688
26.406000000000002,0.014821813516517785,0.014821813516517785
26.407,0.013108759049206612,0.013108759049206612
26.408,0.009780127036014809,0.009780127036014809
26.409000000000002,0.004907462187933613,0.004907462187933613
26.41,0.0011252899822577949,-0.0011252899822577949
26.411,0.00761918112583236,-0.00761918112583236
26.412000000000003,0.013654630465752273,-0.013654630465752273
26.413,0.018270412383137653,-0.018270412383137653
26.414,0.020684155135936078,-0.020684155135936078
26.415000000000003,0.020492271639302423,-0.020492271639302423
26.416,0.01778760667006062,-0.01778760667006062
26.417,0.013154001415523317,-0.013154001415523317
26.418000000000003,0.007532580829033456,-0.007532580829033456
26.419,0.001993660959790915,-0.001993660959790915
26.42,0.0025220919154382354,0.0025220919154382354
26.421000000000003,0.005419342057405187,0.005419342057405187
26.422,0.006559687456799828,0.006559687456799828
26.423000000000002,0.006240600488494295,0.006240600488494295
26.424000000000003,0.005054345762871812,0.005054345762871812
26.425,0.0036761418348849055,0.0036761418348849055
26.426000000000002,0.002650900148517066,0.002650900148517066
26.427000000000003,0.0022450165011292473,0.0022450165011292473
26.428,0.0024052929849167595,0.0024052929849167595
26.429000000000002,0.0028297477077921067,0.0028297477077921067
26.430000000000003,0.0031176613013563755,0.0031176613013563755
26.431,0.002941322887880248,0.002941322887880248
26.432000000000002,0.0021776328152980067,0.0021776328152980067
26.433000000000003,0.0009548076480752915,0.0009548076480752915
26.434,0.0003986609807389889,-0.0003986609807389889
26.435000000000002,0.0014804495348770986,-0.0014804495348770986
26.436000000000003,0.0019677923508178256,-0.0019677923508178256
26.437,0.0017411997498817243,-0.0017411997498817243
26.438000000000002,0.0009340138130531468,-0.0009340138130531468
26.439,0.00010912326462472805,0.00010912326462472805
26.44,0.0009489767266943737,0.0009489767266943737
26.441000000000003,0.0012013482267170797,0.0012013482267170797
26.442,0.0006666834751167719,0.0006666834751167719
26.443,0.0006049448690625977,-0.0006049448690625977
26.444000000000003,0.0023341878326381756,-0.0023341878326381756
26.445,0.004108277317715818,-0.004108277317715818
26.446,0.005516431914075155,-0.005516431914075155
26.447000000000003,0.00627630989844854,-0.00627630989844854
26.448,0.006308135379971831,-0.006308135379971831
26.449,0.005733570378367683,-0.005733570378367683
26.450000000000003,0.004804386690631126,-0.004804386690631126
26.451,0.003791214728966349,-0.003791214728966349
26.452,0.0028760723808468293,-0.0028760723808468293
26.453000000000003,0.0020894404647689886,-0.0020894404647689886
26.454,0.0013148029873920513,-0.0013148029873920513
26.455000000000002,0.00035761916352708856,-0.00035761916352708856
26.456000000000003,0.0009487601224444185,0.0009487601224444185
26.457,0.002641797617560653,0.002641797617560653
26.458000000000002,0.004573383344686094,0.004573383344686094
26.459000000000003,0.006422623047409752,0.006422623047409752
26.46,0.0077771895508653545,0.0077771895508653545
26.461000000000002,0.008257828729240841,0.008257828729240841
26.462000000000003,0.007644657140121563,0.007644657140121563
26.463,0.00596226826154034,0.00596226826154034
26.464000000000002,0.0034937613011195405,0.0034937613011195405
26.465000000000003,0.0007169078123527081,0.0007169078123527081
26.466,0.0018192299389348042,-0.0018192299389348042
26.467000000000002,0.003640234824300255,-0.003640234824300255
26.468000000000004,0.004471489308213363,-0.004471489308213363
26.469,0.004306731559988683,-0.004306731559988683
26.470000000000002,0.003402420239972301,-0.003402420239972301
26.471,0.0022027687422716104,-0.0022027687422716104
26.472,0.0012196148142893841,-0.0012196148142893841
26.473000000000003,0.0009017254774988544,-0.0009017254774988544
26.474,0.001527417930148328,-0.001527417930148328
26.475,0.003144095685326871,-0.003144095685326871
26.476000000000003,0.005562953515467314,-0.005562953515467314
26.477,0.008402202053227661,-0.008402202053227661
26.478,0.011162167746288936,-0.011162167746288936
26.479000000000003,0.013312526881715987,-0.013312526881715987
26.48,0.014374918367489819,-0.014374918367489819
26.481,0.013990414162265118,-0.013990414162265118
26.482000000000003,0.011967438578879261,-0.011967438578879261
26.483,0.00830932741050272,-0.00830932741050272
26.484,0.0032213053275506635,-0.0032213053275506635
26.485000000000003,0.002904408960008949,0.002904408960008949
26.486,0.0095270837142349,0.0095270837142349
26.487000000000002,0.016019119678941526,0.016019119678941526
26.488000000000003,0.0217453542574991,0.0217453542574991
26.489,0.026148023640628647,0.026148023640628647
26.490000000000002,0.028820398963887633,0.028820398963887633
26.491000000000003,0.029551661451232596,0.029551661451232596
26.492,0.028331291149179122,0.028331291149179122
26.493000000000002,0.025312318628081743,0.025312318628081743
26.494000000000003,0.02074593694513937,0.02074593694513937
26.495,0.014910419442752029,0.014910419442752029
26.496000000000002,0.008060563193606686,0.008060563193606686
26.497000000000003,0.00041767734041401716,0.00041767734041401716
26.498,0.007794455635606235,-0.007794455635606235
26.499000000000002,0.016280734922761803,-0.016280734922761803
26.5,0.024602030431556947,-0.024602030431556947
26.501,0.032134652891578984,-0.032134652891578984
26.502000000000002,0.03809246381215745,-0.03809246381215745
26.503,0.041624380798796254,-0.041624380798796254
26.504,0.041975139153083166,-0.041975139153083166
26.505000000000003,0.03867303258360217,-0.03867303258360217
26.506,0.0316933584034431,-0.0316933584034431
26.507,0.021546347234411425,-0.021546347234411425
26.508000000000003,0.009254697773243893,-0.009254697773243893
26.509,0.0037856641202905963,0.0037856641202905963
26.51,0.016035673899344884,0.016035673899344884
26.511000000000003,0.026081953452240146,0.026081953452240146
26.512,0.03288047669346261,0.03288047669346261
26.513,0.03591763353054893,0.03591763353054893
26.514000000000003,0.03525403741331952,0.03525403741331952
26.515,0.03144848504470002,0.03144848504470002
26.516000000000002,0.025390928213405432,0.025390928213405432
26.517000000000003,0.018094692034254806,0.018094692034254806
26.518,0.010503505030177189,0.010503505030177189
26.519000000000002,0.0033575801390923993,0.0033575801390923993
26.520000000000003,0.002860244258900919,-0.002860244258900919
26.521,0.007904096579045129,-0.007904096579045129
26.522000000000002,0.011697600288580782,-0.011697600288580782
26.523000000000003,0.014256011694613838,-0.014256011694613838
26.524,0.01563015212508364,-0.01563015212508364
26.525000000000002,0.015888831220443843,-0.015888831220443843
26.526000000000003,0.015136610274731852,-0.015136610274731852
26.527,0.013547324666512685,-0.013547324666512685
26.528000000000002,0.011386842675974432,-0.011386842675974432
26.529000000000003,0.009003320357360367,-0.009003320357360367
26.53,0.006777448101914229,-0.006777448101914229
26.531000000000002,0.0050430776773416905,-0.0050430776773416905
26.532,0.004003081148265411,-0.004003081148265411
26.533,0.0036705963454379477,-0.0036705963454379477
26.534000000000002,0.0038596863735907583,-0.0038596863735907583
26.535,0.004233871280585255,-0.004233871280585255
26.536,0.004401467909540499,-0.004401467909540499
26.537000000000003,0.004030175538536236,-0.004030175538536236
26.538,0.0029458107362529,-0.0029458107362529
26.539,0.0011843113273797923,-0.0011843113273797923
26.540000000000003,0.0010192369987849774,0.0010192369987849774
26.541,0.0033006935759155418,0.0033006935759155418
26.542,0.00527343339292597,0.00527343339292597
26.543000000000003,0.006637548572581254,0.006637548572581254
26.544,0.007257795821517535,0.007257795821517535
26.545,0.007187295392194102,0.007187295392194102
26.546000000000003,0.006631933641102978,0.006631933641102978
26.547,0.005869347991713705,0.005869347991713705
26.548000000000002,0.005150123919748259,0.005150123919748259
26.549000000000003,0.004613228117910315,0.004613228117910315
26.55,0.0042418209794693055,0.0042418209794693055
26.551000000000002,0.0038718916303310644,0.0038718916303310644
26.552000000000003,0.003249445649256279,0.003249445649256279
26.553,0.0021176594226375465,0.0021176594226375465
26.554000000000002,0.00030769483025008175,0.00030769483025008175
26.555000000000003,0.002192526837337439,-0.002192526837337439
26.556,0.005209417107852229,-0.005209417107852229
26.557000000000002,0.008400544003588264,-0.008400544003588264
26.558000000000003,0.011311024177726219,-0.011311024177726219
26.559,0.013454643870540845,-0.013454643870540845
26.560000000000002,0.014401335419145754,-0.014401335419145754
26.561000000000003,0.013854094880992568,-0.013854094880992568
26.562,0.011703215271852203,-0.011703215271852203
26.563000000000002,0.008051570176064827,-0.008051570176064827
26.564,0.003209740090316356,-0.003209740090316356
26.565,0.0023368155717846603,0.0023368155717846603
26.566000000000003,0.007984307445443458,0.007984307445443458
26.567,0.013085076215657002,0.013085076215657002
26.568,0.01703217347318538,0.01703217347318538
26.569000000000003,0.019343738720779886,0.019343738720779886
26.57,0.019734550643790646,0.019734550643790646
26.571,0.01816151168469916,0.01816151168469916
26.572000000000003,0.01483226958921029,0.01483226958921029
26.573,0.010172214571919302,0.010172214571919302
26.574,0.004753856159103629,0.004753856159103629
26.575000000000003,0.0007981394519226623,-0.0007981394519226623
26.576,0.005906120960882113,-0.005906120960882113
26.577,0.010120886814330763,-0.010120886814330763
26.578000000000003,0.013167866149074645,-0.013167866149074645
26.579,0.014950360634495515,-0.014950360634495515
26.580000000000002,0.015514579051634466,-0.015514579051634466
26.581000000000003,0.014992234135238564,-0.014992234135238564
26.582,0.013542360079446583,-0.013542360079446583
26.583000000000002,0.011312554504926815,-0.011312554504926815
26.584000000000003,0.00843133307580546,-0.00843133307580546
26.585,0.00503052278953328,-0.00503052278953328
26.586000000000002,0.0012840898855047723,-0.0012840898855047723
26.587000000000003,0.002557883713018335,0.002557883713018335
26.588,0.006161106700665214,0.006161106700665214
26.589000000000002,0.009137348154230758,0.009137348154230758
26.590000000000003,0.011111356240711405,0.011111356240711405
26.591,0.011807741917317024,0.011807741917317024
26.592000000000002,0.011130860558478064,0.011130860558478064
26.593000000000004,0.009209253629492018,0.009209253629492018
26.594,0.006384798226285612,0.006384798226285612
26.595000000000002,0.0031431132290322726,0.0031431132290322726
26.596,8.546692518486135e-07,8.546692518486135e-07
26.597,0.0026190883995064005,-0.0026190883995064005
26.598000000000003,0.004487308559697819,-0.004487308559697819
26.599,0.005611007815720081,-0.005611007815720081
26.6,0.006205395923616183,-0.006205395923616183
26.601000000000003,0.006600387912400308,-0.006600387912400308
26.602,0.007110606572573909,-0.007110606572573909
26.603,0.007909563539912092,-0.007909563539912092
26.604000000000003,0.00894913263710126,-0.00894913263710126
26.605,0.00995249116401273,-0.00995249116401273
26.606,0.010486305890793076,-0.010486305890793076
26.607000000000003,0.010092963274995715,-0.010092963274995715
26.608,0.00844397150271629,-0.00844397150271629
26.609,0.005467648033199372,-0.005467648033199372
26.610000000000003,0.0014105998116834225,-0.0014105998116834225
26.611,0.003188478517910765,0.003188478517910765
26.612000000000002,0.007608306751469791,0.007608306751469791
26.613000000000003,0.01110871295169349,0.01110871295169349
26.614,0.013103430796906844,0.013103430796906844
26.615000000000002,0.013294531558008704,0.013294531558008704
26.616000000000003,0.011732802135565391,0.011732802135565391
26.617,0.00879045843377077,0.00879045843377077
26.618000000000002,0.0050579539505593045,0.0050579539505593045
26.619000000000003,0.001197439275911124,0.001197439275911124
26.62,0.0022045577707482176,-0.0022045577707482176
26.621000000000002,0.004746030482170777,-0.004746030482170777
26.622000000000003,0.006255775285779822,-0.006255775285779822
26.623,0.006774102337255175,-0.006774102337255175
26.624000000000002,0.0064853026558682235,-0.0064853026558682235
26.625000000000004,0.005631968933496464,-0.005631968933496464
26.626,0.004442756128264397,-0.004442756128264397
26.627000000000002,0.0030955834786344986,-0.0030955834786344986
26.628,0.0017216239099163862,-0.0017216239099163862
26.629,0.0004380356178019915,-0.0004380356178019915
26.630000000000003,0.0006143077185210748,0.0006143077185210748
26.631,0.0012535682023489699,0.0012535682023489699
26.632,0.00127681561173608,0.00127681561173608
26.633000000000003,0.0005175000822971625,0.0005175000822971625
26.634,0.0010764676830833455,-0.0010764676830833455
26.635,0.00337316630290765,-0.00337316630290765
26.636000000000003,0.00602667316008758,-0.00602667316008758
26.637,0.008507900917883733,-0.008507900917883733
26.638,0.010198844098802092,-0.010198844098802092
26.639000000000003,0.010531257696295607,-0.010531257696295607
26.64,0.00913371826981038,-0.00913371826981038
26.641000000000002,0.005944609030391406,-0.005944609030391406
26.642000000000003,0.0012556259956933735,-0.0012556259956933735
26.643,0.004330732504578845,0.004330732504578845
26.644000000000002,0.010021258411659061,0.010021258411659061
26.645000000000003,0.014998140239161609,0.014998140239161609
26.646,0.018585787135731762,0.018585787135731762
26.647000000000002,0.02037337993528761,0.02037337993528761
26.648000000000003,0.020262552233182424,0.020262552233182424
26.649,0.018433456344843425,0.018433456344843425
26.650000000000002,0.01524793654777417,0.01524793654777417
26.651000000000003,0.011127161262759328,0.011127161262759328
26.652,0.006446653427210146,0.006446653427210146
26.653000000000002,0.001482402072671933,0.001482402072671933
26.654000000000003,0.003579078547968575,-0.003579078547968575
26.655,0.00857893487393267,-0.00857893487393267
26.656000000000002,0.01330501041662696,-0.01330501041662696
26.657,0.017432707272325355,-0.017432707272325355
26.658,0.020521680203338232,-0.020521680203338232
26.659000000000002,0.02208212910174857,-0.02208212910174857
26.66,0.021697775604684798,-0.021697775604684798
26.661,0.019168842711400607,-0.019168842711400607
26.662000000000003,0.014626173585422219,-0.014626173585422219
26.663,0.008571968483864805,-0.008571968483864805
26.664,0.0018228569644046738,-0.0018228569644046738
26.665000000000003,0.004639007387030638,0.004639007387030638
26.666,0.009871185142701263,0.009871185142701263
26.667,0.01317701800081977,0.01317701800081977
26.668000000000003,0.014254243109898753,0.014254243109898753
26.669,0.013243604360223411,0.013243604360223411
26.67,0.010664410668402775,0.010664410668402775
26.671000000000003,0.00725784794516042,0.00725784794516042
26.672,0.0037860898366357514,0.0037860898366357514
26.673000000000002,0.000847025956472141,0.000847025956472141
26.674000000000003,0.0012429795323320935,-0.0012429795323320935
26.675,0.002469779324456304,-0.002469779324456304
26.676000000000002,0.003049256965381599,-0.003049256965381599
26.677000000000003,0.0032955424244681367,-0.0032955424244681367
26.678,0.003480078157364845,-0.003480078157364845
26.679000000000002,0.0037312736359801047,-0.0037312736359801047
26.680000000000003,0.004006694660304784,-0.004006694660304784
26.681,0.004141565421872645,-0.004141565421872645
26.682000000000002,0.003949021566911812,-0.003949021566911812
26.683000000000003,0.003329126588414674,-0.003329126588414674
26.684,0.002341554189440289,-0.002341554189440289
26.685000000000002,0.0012115229982746652,-0.0012115229982746652
26.686000000000003,0.0002644735110699029,-0.0002644735110699029
26.687,0.00018748785712800747,0.00018748785712800747
26.688000000000002,3.468181082449859e-05,-3.468181082449859e-05
26.689,0.0008966384541103564,-0.0008966384541103564
26.69,0.002141957723625587,-0.002141957723625587
26.691000000000003,0.0033618522403519443,-0.0033618522403519443
26.692,0.004121749769431756,-0.004121749769431756
26.693,0.004102250241652523,-0.004102250241652523
26.694000000000003,0.003206077074217032,-0.003206077074217032
26.695,0.0015939699351003697,-0.0015939699351003697
26.696,0.0003629990275399059,0.0003629990275399059
26.697000000000003,0.002198269840822578,0.002198269840822578
26.698,0.003492426993511283,0.003492426993511283
26.699,0.00399543228543666,0.00399543228543666
26.700000000000003,0.0036885930502496417,0.0036885930502496417
26.701,0.00276860555659748,0.00276860555659748
26.702,0.001563832709293449,0.001563832709293449
26.703000000000003,0.00041619909649357866,0.00041619909649357866
26.704,0.00042764942314222964,-0.00042764942314222964
26.705000000000002,0.0008783980720801435,-0.0008783980720801435
26.706000000000003,0.0010015666401936682,-0.0010015666401936682
26.707,0.0009582604391499906,-0.0009582604391499906
26.708000000000002,0.0009183818502489809,-0.0009183818502489809
26.709000000000003,0.000984572242422683,-0.000984572242422683
26.71,0.0011585107365258186,-0.0011585107365258186
26.711000000000002,0.001361703496426611,-0.001361703496426611
26.712000000000003,0.0014985250022391487,-0.0014985250022391487
26.713,0.0015300334969717778,-0.0015300334969717778
26.714000000000002,0.001521097766378835,-0.001521097766378835
26.715000000000003,0.001633587338121042,-0.001633587338121042
26.716,0.0020612214822184555,-0.0020612214822184555
26.717000000000002,0.002928237600250686,-0.002928237600250686
26.718000000000004,0.004193417851859873,-0.004193417851859873
26.719,0.005604558434581413,-0.005604558434581413
26.720000000000002,0.006733372183784696,-0.006733372183784696
26.721,0.007091579619065532,-0.007091579619065532
26.722,0.006296052947684141,-0.006296052947684141
26.723000000000003,0.004227082459567515,-0.004227082459567515
26.724,0.0011193253206896049,-0.0011193253206896049
26.725,0.0024567259290860085,0.0024567259290860085
26.726000000000003,0.005728855416403508,0.005728855416403508
26.727,0.007937250411012488,0.007937250411012488
26.728,0.00856103092211947,0.00856103092211947
26.729000000000003,0.0074798690137587555,0.0074798690137587555
26.73,0.005011293341819842,0.005011293341819842
26.731,0.0018051423984916705,0.0018051423984916705
26.732000000000003,0.001373032105895236,-0.001373032105895236
26.733,0.003895897960641289,-0.003895897960641289
26.734,0.005474384278535774,-0.005474384278535774
26.735000000000003,0.006227542966819183,-0.006227542966819183
26.736,0.006590009034690451,-0.006590009034690451
26.737000000000002,0.007083850641719269,-0.007083850641719269
26.738000000000003,0.008034985540530531,-0.008034985540530531
26.739,0.00934220867787128,-0.00934220867787128
26.740000000000002,0.010397227950437179,-0.010397227950437179
26.741000000000003,0.010207623980560455,-0.010207623980560455
26.742,0.007705220083454284,-0.007705220083454284
26.743000000000002,0.0021529157861280086,-0.0021529157861280086
26.744000000000003,0.006481953682363004,0.006481953682363004
26.745,0.017322746357968617,0.017322746357968617
26.746000000000002,0.02863925922828809,0.02863925922828809
26.747000000000003,0.038178834218004415,0.038178834218004415
26.748,0.043699490803022864,0.043699490803022864
26.749000000000002,0.0435615932333446,0.0435615932333446
26.750000000000004,0.037206277846662764,0.037206277846662764
26.751,0.025373555041922066,0.025373555041922066
26.752000000000002,0.009984775771746697,0.009984775771746697
26.753,0.006288382643259372,-0.006288382643259372
26.754,0.02065332274529808,-0.02065332274529808
26.755000000000003,0.03085013023667576,-0.03085013023667576
26.756,0.03564868998568958,-0.03564868998568958
26.757,0.03505683567339515,-0.03505683567339515
26.758000000000003,0.03019459260623588,-0.03019459260623588
26.759,0.02288866042388805,-0.02288866042388805
26.76,0.0151208011041064,-0.0151208011041064
26.761000000000003,0.008499425544544767,-0.008499425544544767
26.762,0.003905668157322149,-0.003905668157322149
26.763,0.001401319855742324,-0.001401319855742324
26.764000000000003,0.0003984000972319683,-0.0003984000972319683
26.765,7.99447518070833e-06,-7.99447518070833e-06
26.766000000000002,0.0005645216462354491,0.0005645216462354491
26.767000000000003,0.0017148280139034262,0.0017148280139034262
26.768,0.003321302990844028,0.003321302990844028
26.769000000000002,0.004838247402745737,0.004838247402745737
26.770000000000003,0.005551371410028286,0.005551371410028286
26.771,0.004892781183828042,0.004892781183828042
26.772000000000002,0.002697413086430769,0.002697413086430769
26.773000000000003,0.0006909693913390944,-0.0006909693913390944
26.774,0.00449942251004866,-0.00449942251004866
26.775000000000002,0.007759987341580784,-0.007759987341580784
26.776000000000003,0.009614476457766136,-0.009614476457766136
26.777,0.00958429450470967,-0.00958429450470967
26.778000000000002,0.007715148720434003,-0.007715148720434003
26.779000000000003,0.004552101642486349,-0.004552101642486349
26.78,0.000959142064427832,-0.000959142064427832
26.781000000000002,0.002151423705928461,0.002151423705928461
26.782,0.004088013400967116,0.004088013400967116
26.783,0.004561432913252458,0.004561432913252458
26.784000000000002,0.003727787149479407,0.003727787149479407
26.785,0.002090680532784254,0.002090680532784254
26.786,0.00030724443954138975,0.00030724443954138975
26.787000000000003,0.001029688625572054,-0.001029688625572054
26.788,0.0015601095084229926,-0.0015601095084229926
26.789,0.0012272331597946273,-0.0012272331597946273
26.790000000000003,0.00023989370593764789,-0.00023989370593764789
26.791,0.0010444183319952758,0.0010444183319952758
26.792,0.002262896949748278,0.002262896949748278
26.793000000000003,0.003161646835132556,0.003161646835132556
26.794,0.003643647228069282,0.003643647228069282
26.795,0.0037438419584956543,0.0037438419584956543
26.796000000000003,0.00355478690137916,0.00355478690137916
26.797,0.0031441498526484897,0.0031441498526484897
26.798000000000002,0.0025047658313401187,0.0025047658313401187
26.799000000000003,0.0015602061440440572,0.0015602061440440572
26.8,0.0002219943312496539,0.0002219943312496539
26.801000000000002,0.0015298537002354164,-0.0015298537002354164
26.802000000000003,0.003583153486157807,-0.003583153486157807
26.803,0.005681240620388121,-0.005681240620388121
26.804000000000002,0.007475497070635827,-0.007475497070635827
26.805000000000003,0.00862830025561259,-0.00862830025561259
26.806,0.008928631938138247,-0.008928631938138247
26.807000000000002,0.008373602929986766,-0.008373602929986766
26.808000000000003,0.007178885482072967,-0.007178885482072967
26.809,0.005706551155277861,-0.005706551155277861
26.810000000000002,0.004330814608095746,-0.004330814608095746
26.811000000000003,0.003288495357959866,-0.003288495357959866
26.812,0.002571112778212786,-0.002571112778212786
26.813000000000002,0.0019046214073119066,-0.0019046214073119066
26.814,0.0008337691097772251,-0.0008337691097772251
26.815,0.0011093267594881326,0.0011093267594881326
26.816000000000003,0.004205314998517407,0.004205314998517407
26.817,0.008385074259100265,0.008385074259100265
26.818,0.013165592219679449,0.013165592219679449
26.819000000000003,0.017716230216998096,0.017716230216998096
26.82,0.021045850500361916,0.021045850500361916
26.821,0.022261114723067903,0.022261114723067903
26.822000000000003,0.02082091546445089,0.02082091546445089
26.823,0.016710046885052083,0.016710046885052083
26.824,0.010477748874092715,0.010477748874092715
26.825000000000003,0.0031265220587900176,0.0031265220587900176
26.826,0.00411911226876102,-0.00411911226876102
26.827,0.01009943016603263,-0.01009943016603263
26.828000000000003,0.013982720863873381,-0.013982720863873381
26.829,0.015435017050253467,-0.015435017050253467
26.830000000000002,0.014655916792920167,-0.014655916792920167
26.831000000000003,0.012279720658514504,-0.012279720658514504
26.832,0.009178359694294667,-0.009178359694294667
26.833000000000002,0.00622645911037843,-0.00622645911037843
26.834000000000003,0.004093372007583888,-0.004093372007583888
26.835,0.0031126386619419284,-0.0031126386619419284
26.836000000000002,0.003252355549453827,-0.003252355549453827
26.837000000000003,0.004179839441735967,-0.004179839441735967
26.838,0.005390020332191949,-0.005390020332191949
26.839000000000002,0.006355318308892398,-0.006355318308892398
26.840000000000003,0.006656763767251127,-0.006656763767251127
26.841,0.006068721281833924,-0.006068721281833924
26.842000000000002,0.004586918379173169,-0.004586918379173169
26.843000000000004,0.0024053735312188186,-0.0024053735312188186
26.844,0.00014207384530721352,0.00014207384530721352
26.845000000000002,0.002656935193668037,0.002656935193668037
26.846,0.004751864798587236,0.004751864798587236
26.847,0.0061161134865399345,0.0061161134865399345
26.848000000000003,0.006564300318396778,0.006564300318396778
26.849,0.0060646788834730365,0.0060646788834730365
26.85,0.004743821318563479,0.004743821318563479
26.851000000000003,0.002865317767199815,0.002865317767199815
26.852,0.0007825709164577695,0.0007825709164577695
26.853,0.001129159341378732,-0.001129159341378732
26.854000000000003,0.00254965385815049,-0.00254965385815049
26.855,0.0032821405039838375,-0.0032821405039838375
26.856,0.0032942707353073963,-0.0032942707353073963
26.857000000000003,0.002717440027923275,-0.002717440027923275
26.858,0.0018009950168671027,-0.0018009950168671027
26.859,0.000831902987755042,-0.000831902987755042
26.860000000000003,4.3059733585675416e-05,-4.3059733585675416e-05
26.861,0.0004603622851276555,0.0004603622851276555
26.862000000000002,0.0007304896522946637,0.0007304896522946637
26.863000000000003,0.0009491627033204269,0.0009491627033204269
26.864,0.0013490302523798887,0.0013490302523798887
26.865000000000002,0.002107847137059713,0.002107847137059713
26.866000000000003,0.0032521946307130815,0.0032521946307130815
26.867,0.0046067544747938815,0.0046067544747938815
26.868000000000002,0.005812448606330121,0.005812448606330121
26.869000000000003,0.006414749726875601,0.006414749726875601
26.87,0.005999318023908827,0.005999318023908827
26.871000000000002,0.004334067927879726,0.004334067927879726
26.872000000000003,0.0014713960176575384,0.0014713960176575384
26.873,0.002225867898257195,-0.002225867898257195
26.874000000000002,0.006148773297706781,-0.006148773297706781
26.875000000000004,0.00958272484509323,-0.00958272484509323
26.876,0.011885418523526052,-0.011885418523526052
26.877000000000002,0.012650609644230114,-0.012650609644230114
26.878,0.011809305109252382,-0.011809305109252382
26.879,0.00963852257836077,-0.00963852257836077
26.880000000000003,0.0066757691750217365,-0.0066757691750217365
26.881,0.0035658859719100177,-0.0035658859719100177
26.882,0.0008867912748894678,-0.0008867912748894678
26.883000000000003,0.0009942619788528553,0.0009942619788528553
26.884,0.0019933277320212067,0.0019933277320212067
26.885,0.002293944572112784,0.002293944572112784
26.886000000000003,0.002253187040772945,0.002253187040772945
26.887,0.0022632133254234924,0.0022632133254234924
26.888,0.0026136761733282937,0.0026136761733282937
26.889000000000003,0.003397437812673418,0.003397437812673418
26.89,0.004486125207146636,0.004486125207146636
26.891000000000002,0.005578891970681561,0.005578891970681561
26.892000000000003,0.006304984111769844,0.006304984111769844
26.893,0.006345382123551035,0.006345382123551035
26.894000000000002,0.005535132511136344,0.005535132511136344
26.895000000000003,0.003916259586001673,0.003916259586001673
26.896,0.0017279209563060387,0.0017279209563060387
26.897000000000002,0.0006600168039486749,-0.0006600168039486749
26.898000000000003,0.0028476151797144854,-0.0028476151797144854
26.899,0.004508956083404607,-0.004508956083404607
26.900000000000002,0.005470051925809915,-0.005470051925809915
26.901000000000003,0.005740325648134056,-0.005740325648134056
26.902,0.0054916285033157096,-0.0054916285033157096
26.903000000000002,0.004993450915952196,-0.004993450915952196
26.904000000000003,0.00452422783777871,-0.00452422783777871
26.905,0.004283946176843779,-0.004283946176843779
26.906000000000002,0.00433192719571398,-0.00433192719571398
26.907,0.004566598452424871,-0.004566598452424871
26.908,0.004753295297286569,-0.004753295297286569
26.909000000000002,0.0045941316315126456,-0.0045941316315126456
26.91,0.0038232391800586706,-0.0038232391800586706
26.911,0.00230336336134033,-0.00230336336134033
26.912000000000003,9.757096797649342e-05,-9.757096797649342e-05
26.913,0.0025064135072109697,0.0025064135072109697
26.914,0.005032065177126984,0.005032065177126984
26.915000000000003,0.006908757164873988,0.006908757164873988
26.916,0.007608031935043709,0.007608031935043709
26.917,0.006790388837892989,0.006790388837892989
26.918000000000003,0.004424039196397286,0.004424039196397286
26.919,0.0008391585874741094,0.0008391585874741094
26.92,0.003306081250450795,-0.003306081250450795
26.921000000000003,0.007149931318461204,-0.007149931318461204
26.922,0.009818955818631766,-0.009818955818631766
26.923000000000002,0.01064252579860131,-0.01064252579860131
26.924000000000003,0.009333596061070634,-0.009333596061070634
26.925,0.006083283747790286,-0.006083283747790286
26.926000000000002,0.0015365411138395643,-0.0015365411138395643
26.927000000000003,0.0033524213077066947,0.0033524213077066947
26.928,0.007551873728828414,0.007551873728828414
26.929000000000002,0.010211239727429888,0.010211239727429888
26.930000000000003,0.010875590980048271,0.010875590980048271
26.931,0.009594727225382047,0.009594727225382047
26.932000000000002,0.006894417728644202,0.006894417728644202
26.933000000000003,0.003617127550577234,0.003617127550577234
26.934,0.0006782724554244471,0.0006782724554244471
26.935000000000002,0.0011904622037476104,-0.0011904622037476104
26.936000000000003,0.001635367824323866,-0.001635367824323866
26.937,0.0007566678072272529,-0.0007566678072272529
26.938000000000002,0.0009526715987637357,0.0009526715987637357
26.939,0.002781352402389466,0.002781352402389466
26.94,0.0040287266423650065,0.0040287266423650065
26.941000000000003,0.004214351614621918,0.004214351614621918
26.942,0.0032031391414845335,0.0032031391414845335
26.943,0.001211334173316315,0.001211334173316315
26.944000000000003,0.001300377293189981,-0.001300377293189981
26.945,0.003802479914891698,-0.003802479914891698
26.946,0.005875140436679651,-0.005875140436679651
26.947000000000003,0.007325677998264359,-0.007325677998264359
26.948,0.008205622766835693,-0.008205622766835693
26.949,0.008726401355749846,-0.008726401355749846
26.950000000000003,0.009111129925879929,-0.009111129925879929
26.951,0.009444550101556192,-0.009444550101556192
26.952,0.009584720737717727,-0.009584720737717727
26.953000000000003,0.009177737562156256,-0.009177737562156256
26.954,0.007778167112829605,-0.007778167112829605
26.955000000000002,0.005036756552643784,-0.005036756552643784
26.956000000000003,0.0008882745655809161,-0.0008882745655809161
26.957,0.004333053694705263,0.004333053694705263
26.958000000000002,0.009902274235577355,0.009902274235577355
26.959000000000003,0.01484778194582372,0.01484778194582372
26.96,0.018195166274503682,0.018195166274503682
26.961000000000002,0.01923844901785753,0.01923844901785753
26.962000000000003,0.0177526748980388,0.0177526748980388
26.963,0.014076764204684417,0.014076764204684417
26.964000000000002,0.009034856521147078,0.009034856521147078
26.965000000000003,0.0037153985433268006,0.0037153985433268006
26.966,0.000826908886183211,-0.000826908886183211
26.967000000000002,0.0038558389217585687,-0.0038558389217585687
26.968000000000004,0.005138334331310535,-0.005138334331310535
26.969,0.004974223598820782,-0.004974223598820782
26.970000000000002,0.004065323155807852,-0.004065323155807852
26.971,0.0032688982713852876,-0.0032688982713852876
26.972,0.0033157895047665658,-0.0033157895047665658
26.973000000000003,0.004582262553706665,-0.004582262553706665
26.974,0.006984482392833934,-0.006984482392833934
26.975,0.010022752694618192,-0.010022752694618192
26.976000000000003,0.012953608872615773,-0.012953608872615773
26.977,0.015027876466804809,-0.015027876466804809
26.978,0.01571478955657509,-0.01571478955657509
26.979000000000003,0.014841363440542928,-0.014841363440542928
26.98,0.012608339605052147,-0.012608339605052147
26.981,0.00948747767059142,-0.00948747767059142
26.982000000000003,0.006044649810274192,-0.006044649810274192
26.983,0.0027557929697224447,-0.0027557929697224447
26.984,0.0001187549266173815,0.0001187549266173815
26.985000000000003,0.002560264846589633,0.002560264846589633
26.986,0.00471457814625329,0.00471457814625329
26.987000000000002,0.006746639398055627,0.006746639398055627
26.988000000000003,0.008686224972851974,0.008686224972851974
26.989,0.010328107458083729,0.010328107458083729
26.990000000000002,0.011231190454326143,0.011231190454326143
26.991000000000003,0.010826724275984568,0.010826724275984568
26.992,0.008607279203482771,0.008607279203482771
26.993000000000002,0.004338496168126159,0.004338496168126159
26.994000000000003,0.001775596538360742,-0.001775596538360742
26.995,0.009032214853964875,-0.009032214853964875
26.996000000000002,0.01630380690545428,-0.01630380690545428
26.997000000000003,0.022237416086301653,-0.022237416086301653
26.998,0.025534392654905435,-0.025534392654905435
26.999000000000002,0.025242166488065883,-0.025242166488065883
27.000000000000004,0.02098551369427533,-0.02098551369427533
27.001,0.013079877982316477,-0.013079877982316477
27.002000000000002,0.002498839025565572,-0.002498839025565572
27.003,0.009296781798308658,0.009296781798308658
27.004,0.02062878149319391,0.02062878149319391
27.005000000000003,0.029910164604453858,0.029910164604453858
27.006,0.03592648903635047,0.03592648903635047
27.007,0.038033332367144096,0.038033332367144096
27.008000000000003,0.036234163156317875,0.036234163156317875
27.009,0.031129821962521894,0.031129821962521894
27.01,0.023757619784020346,0.023757619784020346
27.011000000000003,0.015359417064550338,0.015359417064550338
27.012,0.00713024381821935,0.00713024381821935
27.013,3.1523431239912946e-07,3.1523431239912946e-07
27.014000000000003,0.0055060901449661675,-0.0055060901449661675
27.015,0.009309473795360106,-0.009309473795360106
27.016000000000002,0.011709443595968821,-0.011709443595968821
27.017000000000003,0.013235945880449199,-0.013235945880449199
27.018,0.014457883941005889,-0.014457883941005889
27.019000000000002,0.01579947950902969,-0.01579947950902969
27.020000000000003,0.017412493909266517,-0.017412493909266517
27.021,0.01913781928697705,-0.01913781928697705
27.022000000000002,0.02056594401811095,-0.02056594401811095
27.023000000000003,0.021178258530899833,-0.021178258530899833
27.024,0.02052758062441249,-0.02052758062441249
27.025000000000002,0.018403702104221,-0.018403702104221
27.026000000000003,0.014932600082269026,-0.014932600082269026
27.027,0.01057629878606428,-0.01057629878606428
27.028000000000002,0.006029505393131874,-0.006029505393131874
27.029000000000003,0.002040658373652011,-0.002040658373652011
27.03,0.0007907890123341378,0.0007907890123341378
27.031000000000002,0.0021801019962141006,0.0021801019962141006
27.032,0.002235031061826949,0.002235031061826949
27.033,0.0014206267751345955,0.0014206267751345955
27.034000000000002,0.00042051564655962056,0.00042051564655962056
27.035,6.399334863130818e-05,-6.399334863130818e-05
27.036,0.0004835677888631467,0.0004835677888631467
27.037000000000003,0.0022512342279962195,0.0022512342279962195
27.038,0.0050552607598502285,0.0050552607598502285
27.039,0.00840610650668558,0.00840610650668558
27.040000000000003,0.01165832411300976,0.01165832411300976
27.041,0.014193597335772412,0.014193597335772412
27.042,0.015578359333314692,0.015578359333314692
27.043000000000003,0.01564940463221175,0.01564940463221175
27.044,0.014508087923941322,0.014508087923941322
27.045,0.012436226345823037,0.012436226345823037
27.046000000000003,0.009773062146170481,0.009773062146170481
27.047,0.006803359583973192,0.006803359583973192
27.048000000000002,0.003698382333600702,0.003698382333600702
27.049000000000003,0.0005276121110549101,0.0005276121110549101
27.05,0.002671132678319133,-0.002671132678319133
27.051000000000002,0.005800416529274818,-0.005800416529274818
27.052000000000003,0.008637869854689097,-0.008637869854689097
27.053,0.01083470158612024,-0.01083470158612024
27.054000000000002,0.011990590712188871,-0.011990590712188871
27.055000000000003,0.011785450139766862,-0.011785450139766862
27.056,0.010121978811452687,-0.010121978811452687
27.057000000000002,0.0072224436564667415,-0.0072224436564667415
27.058000000000003,0.0036337688170569662,-0.0036337688170569662
27.059,0.0001240818545017796,-0.0001240818545017796
27.060000000000002,0.002508274925648517,0.002508274925648517
27.061000000000003,0.003658957297995112,0.003658957297995112
27.062,0.0031043022632979505,0.0031043022632979505
27.063000000000002,0.0010869192293206822,0.0010869192293206822
27.064,0.0017339171684111073,-0.0017339171684111073
27.065,0.004458731905986006,-0.004458731905986006
27.066000000000003,0.0062014962276117575,-0.0062014962276117575
27.067,0.006344636968237138,-0.006344636968237138
27.068,0.004717766299676395,-0.004717766299676395
27.069000000000003,0.0016459146122352187,-0.0016459146122352187
27.07,0.0021459486966284944,0.0021459486966284944
27.071,0.005740397052928364,0.005740397052928364
27.072000000000003,0.008281395499676733,0.008281395499676733
27.073,0.009196987231643227,0.009196987231643227
27.074,0.008326806544237914,0.008326806544237914
27.075000000000003,0.005924003902633566,0.005924003902633566
27.076,0.002542812830338149,0.002542812830338149
27.077,0.0011417165461161047,-0.0011417165461161047
27.078000000000003,0.0045180131318586685,-0.0045180131318586685
27.079,0.007168157313086756,-0.007168157313086756
27.080000000000002,0.008910994538248944,-0.008910994538248944
27.081000000000003,0.009759859804836691,-0.009759859804836691
27.082,0.009827481862292934,-0.009827481862292934
27.083000000000002,0.009226671078989973,-0.009226671078989973
27.084000000000003,0.008011382486907585,-0.008011382486907585
27.085,0.006181225943703811,-0.006181225943703811
27.086000000000002,0.0037425880052092465,-0.0037425880052092465
27.087000000000003,0.0007933553915882387,-0.0007933553915882387
27.088,0.0024137442460276364,0.0024137442460276364
27.089000000000002,0.005467111009265542,0.005467111009265542
27.090000000000003,0.007866022950208086,0.007866022950208086
27.091,0.009147884900257473,0.009147884900257473
27.092000000000002,0.009030741130819695,0.009030741130819695
27.093000000000004,0.007518164229747983,0.007518164229747983
27.094,0.004923124728157664,0.004923124728157664
27.095000000000002,0.0017943268391604522,0.0017943268391604522
27.096,0.001236706749687139,-0.001236706749687139
27.097,0.003639571382571431,-0.003639571382571431
27.098000000000003,0.0051379711593440595,-0.0051379711593440595
27.099,0.005777961427189477,-0.005777961427189477
27.1,0.005885506928218484,-0.005885506928218484
27.101000000000003,0.0059255386657716454,-0.0059255386657716454
27.102,0.006309676585390636,-0.006309676585390636
27.103,0.0072190948263744,-0.0072190948263744
27.104000000000003,0.008505483568140277,-0.008505483568140277
27.105,0.009707558128580887,-0.009707558128580887
27.106,0.01018170709295131,-0.01018170709295131
27.107000000000003,0.00930653124980736,-0.00930653124980736
27.108,0.006695602939483321,-0.006695602939483321
27.109,0.002349469511893204,-0.002349469511893204
27.110000000000003,0.003302298238936213,0.003302298238936213
27.111,0.009482379130464687,0.009482379130464687
27.112000000000002,0.015244222077662422,0.015244222077662422
27.113000000000003,0.019692101537150467,0.019692101537150467
27.114,0.022176811812804596,0.022176811812804596
27.115000000000002,0.022412983424783282,0.022412983424783282
27.116000000000003,0.020492807618817586,0.020492807618817586
27.117,0.016805874599832276,0.016805874599832276
27.118000000000002,0.011903442281474115,0.011903442281474115
27.119000000000003,0.006358218941651903,0.006358218941651903
27.12,0.0006643325578395031,0.0006643325578395031
27.121000000000002,0.004799612157308979,-0.004799612157308979
27.122000000000003,0.009749365310441736,-0.009749365310441736
27.123,0.01394367981090469,-0.01394367981090469
27.124000000000002,0.017140132577877512,-0.017140132577877512
27.125000000000004,0.01908839328941813,-0.01908839328941813
27.126,0.01957120990450063,-0.01957120990450063
27.127000000000002,0.018479062856977056,-0.018479062856977056
27.128,0.015885992445703823,-0.015885992445703823
27.129,0.012089275216532122,-0.012089275216532122
27.130000000000003,0.007586702797579645,-0.007586702797579645
27.131,0.0029881280247767766,-0.0029881280247767766
27.132,0.001116181121427022,0.001116181121427022
27.133000000000003,0.004289240512510781,0.004289240512510781
27.134,0.006338276784048437,0.006338276784048437
27.135,0.007331305744801424,0.007331305744801424
27.136000000000003,0.007533490191773604,0.007533490191773604
27.137,0.0072861802271379904,0.0072861802271379904
27.138,0.0068725844374561825,0.0068725844374561825
27.139000000000003,0.006419201288455689,0.006419201288455689
27.14,0.005869124557816939,0.005869124557816939
27.141000000000002,0.005036588043659914,0.005036588043659914
27.142000000000003,0.0037213431833664295,0.0037213431833664295
27.143,0.0018380830641362839,0.0018380830641362839
27.144000000000002,0.0004909770297789516,-0.0004909770297789516
27.145000000000003,0.002920074884585244,-0.002920074884585244
27.146,0.004952775466188022,-0.004952775466188022
27.147000000000002,0.006083304395531363,-0.006083304395531363
27.148000000000003,0.005959647639914946,-0.005959647639914946
27.149,0.004511738993281375,-0.004511738993281375
27.150000000000002,0.0019982760004122594,-0.0019982760004122594
27.151000000000003,0.001047242192715223,0.001047242192715223
27.152,0.003956288282089713,0.003956288282089713
27.153000000000002,0.00610646632343504,0.00610646632343504
27.154000000000003,0.007085611222377191,0.007085611222377191
27.155,0.006786781079551234,0.006786781079551234
27.156000000000002,0.005406539639995574,0.005406539639995574
27.157,0.003352550047314162,0.003352550047314162
27.158,0.0010971830412059554,0.0010971830412059554
27.159000000000002,0.0009693714321819387,-0.0009693714321819387
27.16,0.0026359062424586477,-0.0026359062424586477
27.161,0.003887470595575595,-0.003887470595575595
27.162000000000003,0.004844910396461244,-0.004844910396461244
27.163,0.0056580147232763315,-0.0056580147232763315
27.164,0.006400389812003885,-0.006400389812003885
27.165000000000003,0.007011965589847762,-0.007011965589847762
27.166,0.007314748525550921,-0.007314748525550921
27.167,0.0070968339528798335,-0.0070968339528798335
27.168000000000003,0.006230527787828852,-0.006230527787828852
27.169,0.004774066644853709,-0.004774066644853709
27.17,0.00300958392571727,-0.00300958392571727
27.171000000000003,0.0013921220902314213,-0.0013921220902314213
27.172,0.00041791964015752307,-0.00041791964015752307
27.173000000000002,0.0004527008918854289,-0.0004527008918854289
27.174000000000003,0.0015799828020188634,-0.0015799828020188634
27.175,0.003527639669662732,-0.003527639669662732
27.176000000000002,0.00570771350209942,-0.00570771350209942
27.177000000000003,0.007367084844134196,-0.007367084844134196
27.178,0.007807820389051392,-0.007807820389051392
27.179000000000002,0.006609417599774823,-0.006609417599774823
27.180000000000003,0.0037805255681329746,-0.0037805255681329746
27.181,0.00021259760316494453,0.00021259760316494453
27.182000000000002,0.004555605210730752,0.004555605210730752
27.183000000000003,0.008304279269063226,0.008304279269063226
27.184,0.01064678448338033,0.01064678448338033
27.185000000000002,0.011130363053981948,0.011130363053981948
27.186000000000003,0.009783426904426403,0.009783426904426403
27.187,0.007096609780665541,0.007096609780665541
27.188000000000002,0.003870291809494093,0.003870291809494093
27.189,0.0009770799698595805,0.0009770799698595805
27.19,0.0008873886654709594,-0.0008873886654709594
27.191000000000003,0.0013907209270664117,-0.0013907209270664117
27.192,0.0006345882999572734,-0.0006345882999572734
27.193,0.0009049657732884303,0.0009049657732884303
27.194000000000003,0.0025424983276626234,0.0025424983276626234
27.195,0.003597978453919718,0.003597978453919718
27.196,0.0035948460705747956,0.0035948460705747956
27.197000000000003,0.0023848993834345855,0.0023848993834345855
27.198,0.00017029579339167925,0.00017029579339167925
27.199,0.002573636821877126,-0.002573636821877126
27.200000000000003,0.005242187634275804,-0.005242187634275804
27.201,0.007263448342675581,-0.007263448342675581
27.202,0.00823191193171146,-0.00823191193171146
27.203000000000003,0.007982102589893191,-0.007982102589893191
27.204,0.006593806230348183,-0.006593806230348183
27.205000000000002,0.004342035988522233,-0.004342035988522233
27.206000000000003,0.001617886796696427,-0.001617886796696427
27.207,0.0011522343667612477,0.0011522343667612477
27.208000000000002,0.0035702344123948616,0.0035702344123948616
27.209000000000003,0.005307498362115389,0.005307498362115389
27.21,0.006129885252092885,0.006129885252092885
27.211000000000002,0.00591756587103544,0.00591756587103544
27.212000000000003,0.004687008422987856,0.004687008422987856
27.213,0.0026127948174213965,0.0026127948174213965
27.214000000000002,3.6762359420606624e-05,3.6762359420606624e-05
27.215000000000003,0.0025529315598994164,-0.0025529315598994164
27.216,0.004586057681461014,-0.004586057681461014
27.217000000000002,0.005517970025253593,-0.005517970025253593
27.218000000000004,0.004962843732685533,-0.004962843732685533
27.219,0.002818867759881344,-0.002818867759881344
27.220000000000002,0.000654926052609568,0.000654926052609568
27.221,0.004843778530203403,0.004843778530203403
27.222,0.008877981011448361,0.008877981011448361
27.223000000000003,0.011815271862137976,0.011815271862137976
27.224,0.01286379698889685,0.01286379698889685
27.225,0.011587542536898527,0.011587542536898527
27.226000000000003,0.008035672356161296,0.008035672356161296
27.227,0.002754793878583123,0.002754793878583123
27.228,0.003325538263182812,-0.003325538263182812
27.229000000000003,0.009107856430021407,-0.009107856430021407
27.23,0.013586533510289286,-0.013586533510289286
27.231,0.01608248657351513,-0.01608248657351513
27.232000000000003,0.016389396919972304,-0.016389396919972304
27.233,0.01479303015966801,-0.01479303015966801
27.234,0.011961528615764876,-0.011961528615764876
27.235000000000003,0.00874120045914099,-0.00874120045914099
27.236,0.00591836089765491,-0.00591836089765491
27.237000000000002,0.004015549347172752,-0.004015549347172752
27.238000000000003,0.003177980148990425,-0.003177980148990425
27.239,0.0031775879943801108,-0.0031775879943801108
27.240000000000002,0.0035264577357743106,-0.0035264577357743106
27.241000000000003,0.003659622785535537,-0.003659622785535537
27.242,0.003128543455455261,-0.003128543455455261
27.243000000000002,0.0017461337607577393,-0.0017461337607577393
27.244000000000003,0.00035856590163921656,0.00035856590163921656
27.245,0.0027888974177406513,0.0027888974177406513
27.246000000000002,0.005013308432983153,0.005013308432983153
27.247000000000003,0.006538377190824644,0.006538377190824644
27.248,0.007067270808647098,0.007067270808647098
27.249000000000002,0.006594539063814152,0.006594539063814152
27.250000000000004,0.0054083677541081916,0.0054083677541081916
27.251,0.003999711837154571,0.003999711837154571
27.252000000000002,0.0029056475728210782,0.0029056475728210782
27.253,0.0025338053593547336,0.0025338053593547336
27.254,0.003020518773791215,0.003020518773791215
27.255000000000003,0.004166025986916443,0.004166025986916443
27.256,0.005468565102908894,0.005468565102908894
27.257,0.00625162562279853,0.00625162562279853
27.258000000000003,0.005852526278059328,0.005852526278059328
27.259,0.0038228669221133807,0.0038228669221133807
27.26,8.685220733664185e-05,8.685220733664185e-05
27.261000000000003,0.004986865511409662,-0.004986865511409662
27.262,0.010622858892022252,-0.010622858892022252
27.263,0.015781630959513973,-0.015781630959513973
27.264000000000003,0.019376143821079238,-0.019376143821079238
27.265,0.020511795163094197,-0.020511795163094197
27.266000000000002,0.01869273691427539,-0.01869273691427539
27.267000000000003,0.013944913849321911,-0.013944913849321911
27.268,0.006826111315946377,-0.006826111315946377
27.269000000000002,0.0016793061662073135,0.0016793061662073135
27.270000000000003,0.010355323263546875,0.010355323263546875
27.271,0.017991850180345225,0.017991850180345225
27.272000000000002,0.02360867118217749,0.02360867118217749
27.273000000000003,0.026614767003099938,0.026614767003099938
27.274,0.02687037906967708,0.02687037906967708
27.275000000000002,0.0246456141843953,0.0246456141843953
27.276000000000003,0.020496572998859517,0.020496572998859517
27.277,0.015100330799459964,0.015100330799459964
27.278000000000002,0.009097908727066556,0.009097908727066556
27.279000000000003,0.0029875727191373005,0.0029875727191373005
27.28,0.0029083479750016523,-0.0029083479750016523
27.281000000000002,0.008405382031811327,-0.008405382031811327
27.282,0.01337353835284579,-0.01337353835284579
27.283,0.017648937881176642,-0.017648937881176642
27.284000000000002,0.020981031575562772,-0.020981031575562772
27.285,0.02304194517447642,-0.02304194517447642
27.286,0.023500658729195954,-0.023500658729195954
27.287000000000003,0.02213903799974779,-0.02213903799974779
27.288,0.018968061096849446,-0.018968061096849446
27.289,0.014297812981094565,-0.014297812981094565
27.290000000000003,0.008726437345696668,-0.008726437345696668
27.291,0.0030382589962415817,-0.0030382589962415817
27.292,0.001968016098454952,0.001968016098454952
27.293000000000003,0.005673898471969988,0.005673898471969988
27.294,0.007798921907489899,0.007798921907489899
27.295,0.008468596693389577,0.008468596693389577
27.296000000000003,0.008164167250375103,0.008164167250375103
27.297,0.007561830964729306,0.007561830964729306
27.298000000000002,0.007305260243950669,0.007305260243950669
27.299000000000003,0.00777980299216945,0.00777980299216945
27.3,0.008960886576543415,0.008960886576543415
27.301000000000002,0.010390314609853794,0.010390314609853794
27.302000000000003,0.011297010512977372,0.011297010512977372
27.303,0.010834137795824433,0.010834137795824433
27.304000000000002,0.008366150105943194,0.008366150105943194
27.305000000000003,0.0037195819571943537,0.0037195819571943537
27.306,0.002682676046340457,-0.002682676046340457
27.307000000000002,0.009852998382118524,-0.009852998382118524
27.308000000000003,0.01643863681287108,-0.01643863681287108
27.309,0.0210416057083203,-0.0210416057083203
27.310000000000002,0.02257382755159377,-0.02257382755159377
27.311000000000003,0.020549306903767692,-0.020549306903767692
27.312,0.015230401016939699,-0.015230401016939699
27.313000000000002,0.00758494133558538,-0.00758494133558538
27.314,0.0009364830848786477,0.0009364830848786477
27.315,0.008743756142468575,0.008743756142468575
27.316000000000003,0.014478810185964905,0.014478810185964905
27.317,0.017317106551937335,0.017317106551937335
27.318,0.017122282108288155,0.017122282108288155
27.319000000000003,0.014419984016917837,0.014419984016917837
27.32,0.010207763984453172,0.010207763984453172
27.321,0.005661859757872878,0.005661859757872878
27.322000000000003,0.0018263313003626118,0.0018263313003626118
27.323,0.0006308785821394945,-0.0006308785821394945
27.324,0.0015352129913327312,-0.0015352129913327312
27.325000000000003,0.0011764875725718787,-0.0011764875725718787
27.326,0.0001567482637609535,-0.0001567482637609535
27.327,0.0008291512472643331,0.0008291512472643331
27.328000000000003,0.0012106455183265572,0.0012106455183265572
27.329,0.0006943736643702064,0.0006943736643702064
27.330000000000002,0.0006837643833847443,-0.0006837643833847443
27.331000000000003,0.002610545398347799,-0.002610545398347799
27.332,0.004623419666613433,-0.004623419666613433
27.333000000000002,0.006267206981621,-0.006267206981621
27.334000000000003,0.007229109934267095,-0.007229109934267095
27.335,0.00741428087948135,-0.00741428087948135
27.336000000000002,0.006946868387892723,-0.006946868387892723
27.337000000000003,0.006106053392785294,-0.006106053392785294
27.338,0.0052251361015990165,-0.0052251361015990165
27.339000000000002,0.004589102663493458,-0.004589102663493458
27.340000000000003,0.004361317276670856,-0.004361317276670856
27.341,0.004556161646482474,-0.004556161646482474
27.342000000000002,0.005057317731462389,-0.005057317731462389
27.343000000000004,0.00566712358994481,-0.00566712358994481
27.344,0.006165465062948246,-0.006165465062948246
27.345000000000002,0.006358356317569412,-0.006358356317569412
27.346,0.006104825779774997,-0.006104825779774997
27.347,0.005321832700158665,-0.005321832700158665
27.348000000000003,0.003976040380552664,-0.003976040380552664
27.349,0.002074960123459267,-0.002074960123459267
27.35,0.00033271606622044877,0.00033271606622044877
27.351000000000003,0.003145190925318439,0.003145190925318439
27.352,0.006190271563868173,0.006190271563868173
27.353,0.009214889767463987,0.009214889767463987
27.354000000000003,0.011894138223627837,0.011894138223627837
27.355,0.013867092784908051,0.013867092784908051
27.356,0.014797140685927499,0.014797140685927499
27.357000000000003,0.014444394929322885,0.014444394929322885
27.358,0.01273091736617154,0.01273091736617154
27.359,0.009778672668900718,0.009778672668900718
27.360000000000003,0.005906048845480556,0.005906048845480556
27.361,0.0015797043492172234,0.0015797043492172234
27.362000000000002,0.0026690140051311806,-0.0026690140051311806
27.363000000000003,0.006343773288715299,-0.006343773288715299
27.364,0.009075253726810447,-0.009075253726810447
27.365000000000002,0.010683907188599307,-0.010683907188599307
27.366000000000003,0.011200049373462327,-0.011200049373462327
27.367,0.010839053715818673,-0.010839053715818673
27.368000000000002,0.009940207679343832,-0.009940207679343832
27.369000000000003,0.008885186306245145,-0.008885186306245145
27.37,0.008014533509829377,-0.008014533509829377
27.371000000000002,0.007558249293197527,-0.007558249293197527
27.372000000000003,0.007591246696163456,-0.007591246696163456
27.373,0.008018360551807041,-0.008018360551807041
27.374000000000002,0.008588676180535314,-0.008588676180535314
27.375000000000004,0.008936014663222741,-0.008936014663222741
27.376,0.008641011293371033,-0.008641011293371033
27.377000000000002,0.007309079461564737,-0.007309079461564737
27.378,0.004656403313164824,-0.004656403313164824
27.379,0.0005925605724371037,-0.0005925605724371037
27.380000000000003,0.00471560687988901,0.00471560687988901
27.381,0.010816569982055662,0.010816569982055662
27.382,0.01699901793349234,0.01699901793349234
27.383000000000003,0.022377403674036105,0.022377403674036105
27.384,0.026033374309060216,0.026033374309060216
27.385,0.027192372411366503,0.027192372411366503
27.386000000000003,0.025400367883351798,0.025400367883351798
27.387,0.020658140394729504,0.020658140394729504
27.388,0.01347377654315258,0.01347377654315258
27.389000000000003,0.004809243022717455,0.004809243022717455
27.39,0.0040785275943113295,-0.0040785275943113295
27.391000000000002,0.01187368931207053,-0.01187368931207053
27.392000000000003,0.01746305579955937,-0.01746305579955937
27.393,0.02016048784803795,-0.02016048784803795
27.394000000000002,0.019837055855291295,-0.019837055855291295
27.395000000000003,0.016922181806106235,-0.016922181806106235
27.396,0.012274454891589359,-0.012274454891589359
27.397000000000002,0.0069563235914728025,-0.0069563235914728025
27.398000000000003,0.0019739003813725223,-0.0019739003813725223
27.399,0.0019468536770978805,0.0019468536770978805
27.400000000000002,0.004487007675230434,0.004487007675230434
27.401000000000003,0.005732994770711649,0.005732994770711649
27.402,0.006053699941752187,0.006053699941752187
27.403000000000002,0.005900751077746315,0.005900751077746315
27.404000000000003,0.005600264709844047,0.005600264709844047
27.405,0.00520695425406046,0.00520695425406046
27.406000000000002,0.004471634789527051,0.004471634789527051
27.407,0.002936446312461278,0.002936446312461278
27.408,0.0001297663732432968,0.0001297663732432968
27.409000000000002,0.004201881721401866,-0.004201881721401866
27.41,0.009903311860700596,-0.009903311860700596
27.411,0.016331049606743257,-0.016331049606743257
27.412000000000003,0.02242263467486763,-0.02242263467486763
27.413,0.026908019539337566,-0.026908019539337566
27.414,0.028611581395764283,-0.028611581395764283
27.415000000000003,0.026762714220361566,-0.026762714220361566
27.416,0.02122631342751037,-0.02122631342751037
27.417,0.012584286894482303,-0.012584286894482303
27.418000000000003,0.002039984106741492,-0.002039984106741492
27.419,0.008832889828471892,0.008832889828471892
27.42,0.018431537676801737,0.018431537676801737
27.421000000000003,0.0254653580612712,0.0254653580612712
27.422,0.02920850387280609,0.02920850387280609
27.423000000000002,0.029601831224781803,0.029601831224781803
27.424000000000003,0.027186273129891116,0.027186273129891116
27.425,0.02289719354705438,0.02289719354705438
27.426000000000002,0.017786200600325944,0.017786200600325944
27.427000000000003,0.012752640805658716,0.012752640805658716
27.428,0.008357778939233326,0.008357778939233326
27.429000000000002,0.004764485166622879,0.004764485166622879
27.430000000000003,0.0018043738705550306,0.0018043738705550306
27.431,0.0008641199754122012,-0.0008641199754122012
27.432000000000002,0.0035675575663616727,-0.0035675575663616727
27.433000000000003,0.006463525153969777,-0.006463525153969777
27.434,0.009468113782099778,-0.009468113782099778
27.435000000000002,0.012281249086909704,-0.012281249086909704
27.436000000000003,0.014492530541213354,-0.014492530541213354
27.437,0.01572478674999943,-0.01572478674999943
27.438000000000002,0.01576322253125763,-0.01576322253125763
27.439,0.014626878643654567,-0.014626878643654567
27.44,0.012562008126177316,-0.012562008126177316
27.441000000000003,0.009965240256815142,-0.009965240256815142
27.442,0.007268017408746518,-0.007268017408746518
27.443,0.004824818935078288,-0.004824818935078288
27.444000000000003,0.0028429463107760107,-0.0028429463107760107
27.445,0.0013736253686708732,-0.0013736253686708732
27.446,0.0003599802534891304,-0.0003599802534891304
27.447000000000003,0.0002838923433097141,0.0002838923433097141
27.448,0.0005992170292691211,0.0005992170292691211
27.449,0.0005470268937944566,0.0005470268937944566
27.450000000000003,2.728046654817799e-05,2.728046654817799e-05
27.451,0.001053828442710733,-0.001053828442710733
27.452,0.00269552928881008,-0.00269552928881008
27.453000000000003,0.004730962127439552,-0.004730962127439552
27.454,0.0068067640266486484,-0.0068067640266486484
27.455000000000002,0.00843106457802294,-0.00843106457802294
27.456000000000003,0.00908270100181428,-0.00908270100181428
27.457,0.008351141066269562,-0.008351141066269562
27.458000000000002,0.006062982474960171,-0.006062982474960171
27.459000000000003,0.0023522640829101715,-0.0023522640829101715
27.46,0.002351730423601879,0.002351730423601879
27.461000000000002,0.007419219343504117,0.007419219343504117
27.462000000000003,0.012170013372866526,0.012170013372866526
27.463,0.016032957663716055,0.016032957663716055
27.464000000000002,0.018665140742751402,0.018665140742751402
27.465000000000003,0.019994491675030385,0.019994491675030385
27.466,0.02017520395734787,0.02017520395734787
27.467000000000002,0.01947519559948416,0.01947519559948416
27.468000000000004,0.018138316388159093,0.018138316388159093
27.469,0.016272960444686672,0.016272960444686672
27.470000000000002,0.013809696208702354,0.013809696208702354
27.471,0.010546192796997984,0.010546192796997984
27.472,0.006266163085393514,0.006266163085393514
27.473000000000003,0.000891032330164138,0.000891032330164138
27.474,0.005391571906165723,-0.005391571906165723
27.475,0.01207409322740913,-0.01207409322740913
27.476000000000003,0.018379196826505653,-0.018379196826505653
27.477,0.023409276170875945,-0.023409276170875945
27.478,0.026356977797485824,-0.026356977797485824
27.479000000000003,0.026715763302226556,-0.026715763302226556
27.48,0.024425981529733735,-0.024425981529733735
27.481,0.019909229016637307,-0.019909229016637307
27.482000000000003,0.013976808363801108,-0.013976808363801108
27.483,0.007636428673876834,-0.007636428673876834
27.484,0.0018525818774310897,-0.0018525818774310897
27.485000000000003,0.00266993253971346,0.00266993253971346
27.486,0.005617734932434657,0.005617734932434657
27.487000000000002,0.007081548178157451,0.007081548178157451
27.488000000000003,0.007453408598185192,0.007453408598185192
27.489,0.007248063428149812,0.007248063428149812
27.490000000000002,0.006910747114120181,0.006910747114120181
27.491000000000003,0.006675234734686163,0.006675234734686163
27.492,0.006516594434463446,0.006516594434463446
27.493000000000002,0.006209103651259008,0.006209103651259008
27.494000000000003,0.005462890369187099,0.005462890369187099
27.495,0.00408552466984847,0.00408552466984847
27.496000000000002,0.0021063100326504445,0.0021063100326504445
27.497000000000003,0.0001856640321281925,-0.0001856640321281925
27.498,0.0023080064735682094,-0.0023080064735682094
27.499000000000002,0.003736769729719967,-0.003736769729719967
27.500000000000004,0.004092530723835607,-0.004092530723835607
27.501,0.003295170579283035,-0.003295170579283035
27.502000000000002,0.001629354589426205,-0.001629354589426205
27.503,0.0003093655195571494,0.0003093655195571494
27.504,0.0017786574758947664,0.0017786574758947664
27.505000000000003,0.0021169035701694146,0.0021169035701694146
27.506,0.0009638395013842239,0.0009638395013842239
27.507,0.001596998412558426,-0.001596998412558426
27.508000000000003,0.005023247874880702,-0.005023247874880702
27.509,0.008436800271120213,-0.008436800271120213
27.51,0.01085288198888085,-0.01085288198888085
27.511000000000003,0.011449687990375431,-0.011449687990375431
27.512,0.009799902331355725,-0.009799902331355725
27.513,0.005996568879998415,-0.005996568879998415
27.514000000000003,0.0006376365720968574,-0.0006376365720968574
27.515,0.0053241188992252525,0.0053241188992252525
27.516000000000002,0.010819644218502372,0.010819644218502372
27.517000000000003,0.014920222784236842,0.014920222784236842
27.518,0.017039836332099625,0.017039836332099625
27.519000000000002,0.017031188187442852,0.017031188187442852
27.520000000000003,0.01515838872422866,0.01515838872422866
27.521,0.011967435911566656,0.011967435911566656
27.522000000000002,0.008104486342316315,0.008104486342316315
27.523000000000003,0.00414275460580864,0.00414275460580864
27.524,0.00046928723916290333,0.00046928723916290333
27.525000000000002,0.002742681371653336,-0.002742681371653336
27.526000000000003,0.005481961633707043,-0.005481961633707043
27.527,0.007801349198648304,-0.007801349198648304
27.528000000000002,0.009719403566766111,-0.009719403566766111
27.529000000000003,0.01116353948190431,-0.01116353948190431
27.53,0.011976234175610348,-0.011976234175610348
27.531000000000002,0.011979342122705367,-0.011979342122705367
27.532,0.011067703878976076,-0.011067703878976076
27.533,0.009291173134771213,-0.009291173134771213
27.534000000000002,0.006888099309609735,-0.006888099309609735
27.535,0.004251497101987613,-0.004251497101987613
27.536,0.001834708526710792,-0.001834708526710792
27.537000000000003,2.678666958651012e-05,-2.678666958651012e-05
27.538,0.0009595715243920387,0.0009595715243920387
27.539,0.0011476296823721495,0.0011476296823721495
27.540000000000003,0.0007812991323689491,0.0007812991323689491
27.541,0.00023823105270995808,0.00023823105270995808
27.542,0.00010047699641237793,-0.00010047699641237793
27.543000000000003,1.9395428954723036e-05,1.9395428954723036e-05
27.544,0.0006382815055528967,0.0006382815055528967
27.545,0.0015678916737400831,0.0015678916737400831
27.546000000000003,0.0024523610605645015,0.0024523610605645015
27.547,0.0028842615266929435,0.0028842615266929435
27.548000000000002,0.002536880238704111,0.002536880238704111
27.549000000000003,0.0012705024582525025,0.0012705024582525025
27.55,0.0008188050079563487,-0.0008188050079563487
27.551000000000002,0.0034187093977989624,-0.0034187093977989624
27.552000000000003,0.0060764534833333776,-0.0060764534833333776
27.553,0.008302470078737346,-0.008302470078737346
27.554000000000002,0.00966837970808441,-0.00966837970808441
27.555000000000003,0.00987370889386878,-0.00987370889386878
27.556,0.008771878074073288,-0.008771878074073288
27.557000000000002,0.006363452150218929,-0.006363452150218929
27.558000000000003,0.002775865484460278,-0.002775865484460278
27.559,0.0017507859659147609,0.0017507859659147609
27.560000000000002,0.006862584530524054,0.006862584530524054
27.561000000000003,0.012081960101726772,0.012081960101726772
27.562,0.016809776319055513,0.016809776319055513
27.563000000000002,0.0203642610936501,0.0203642610936501
27.564,0.022072680184924975,0.022072680184924975
27.565,0.021411035864210844,0.021411035864210844
27.566000000000003,0.018162072927139283,0.018162072927139283
27.567,0.01254271344211371,0.01254271344211371
27.568,0.005248104457868656,0.005248104457868656
27.569000000000003,0.0026246045873188216,-0.0026246045873188216
27.57,0.009776360929771513,-0.009776360929771513
27.571,0.014992763621858305,-0.014992763621858305
27.572000000000003,0.01744472884426773,-0.01744472884426773
27.573,0.016915502543592618,-0.016915502543592618
27.574,0.013878326238623288,-0.013878326238623288
27.575000000000003,0.009387706044463437,-0.009387706044463437
27.576,0.004802119771804079,-0.004802119771804079
27.577,0.0014101655695033975,-0.0014101655695033975
27.578000000000003,6.741351205447303e-05,-6.741351205447303e-05
27.579,0.0009543644808178322,-0.0009543644808178322
27.580000000000002,0.0035336565252498406,-0.0035336565252498406
27.581000000000003,0.00672540728590375,-0.00672540728590375
27.582,0.009251331418019877,-0.009251331418019877
27.583000000000002,0.010043020490312436,-0.010043020490312436
27.584000000000003,0.008586283901030825,-0.008586283901030825
27.585,0.0050907569023546356,-0.0050907569023546356
27.586000000000002,0.0004279034531274718,-0.0004279034531274718
27.587000000000003,0.004145464332787186,0.004145464332787186
27.588,0.007390775732088225,0.007390775732088225
27.589000000000002,0.00848785703308728,0.00848785703308728
27.590000000000003,0.00730004256591741,0.00730004256591741
27.591,0.004415057953354349,0.004415057953354349
27.592000000000002,0.0009453317236050729,0.0009453317236050729
27.593000000000004,0.001848912839861514,-0.001848912839861514
27.594,0.0029902676986182605,-0.0029902676986182605
27.595000000000002,0.0021247340695650374,-0.0021247340695650374
27.596,0.00034413877738462896,0.00034413877738462896
27.597,0.0033774348461227694,0.0033774348461227694
27.598000000000003,0.005644795261587492,0.005644795261587492
27.599,0.005980929179577623,0.005980929179577623
27.6,0.003805720346204345,0.003805720346204345
27.601000000000003,0.000632464096812738,-0.000632464096812738
27.602,0.006275802743472367,-0.006275802743472367
27.603,0.01154029709433698,-0.01154029709433698
27.604000000000003,0.014779896697331023,-0.014779896697331023
27.605,0.014788878289864523,-0.014788878289864523
27.606,0.011186121648383255,-0.011186121648383255
27.607000000000003,0.0045610540340663384,-0.0045610540340663384
27.608,0.0036647606043137613,0.0036647606043137613
27.609,0.011618246835103449,0.011618246835103449
27.610000000000003,0.01748176979541553,0.01748176979541553
27.611,0.019974470958707035,0.019974470958707035
27.612000000000002,0.018668292111923362,0.018668292111923362
27.613000000000003,0.014054258922461113,0.014054258922461113
27.614,0.007353809633919769,0.007353809633919769
27.615000000000002,0.0001469077085720583,0.0001469077085720583
27.616000000000003,0.006061105198683886,-0.006061105198683886
27.617,0.010203172429294551,-0.010203172429294551
27.618000000000002,0.011846995886876816,-0.011846995886876816
27.619000000000003,0.011188022344799835,-0.011188022344799835
27.62,0.00887025410730722,-0.00887025410730722
27.621000000000002,0.005717044269679908,-0.005717044269679908
27.622000000000003,0.0024722691077401593,-0.0024722691077401593
27.623,0.0003657270101271487,0.0003657270101271487
27.624000000000002,0.0025799493722986023,0.0025799493722986023
27.625000000000004,0.004156432340210802,0.004156432340210802
27.626,0.005149735721006215,0.005149735721006215
27.627000000000002,0.005565440189439287,0.005565440189439287
27.628,0.005317186248882843,0.005317186248882843
27.629,0.00427697562799916,0.00427697562799916
27.630000000000003,0.0023918410076277964,0.0023918410076277964
27.631,0.00019365302623902613,-0.00019365302623902613
27.632,0.0030773494949369045,-0.0030773494949369045
27.633000000000003,0.005648193800108157,-0.005648193800108157
27.634,0.007246253265504756,-0.007246253265504756
27.635,0.007387837485818097,-0.007387837485818097
27.636000000000003,0.005975027072321142,-0.005975027072321142
27.637,0.0034034780740653937,-0.0034034780740653937
27.638,0.0005102639867270985,-0.0005102639867270985
27.639000000000003,0.0016433613613388374,0.0016433613613388374
27.64,0.00209907102377939,0.00209907102377939
27.641000000000002,0.0003374310707539958,0.0003374310707539958
27.642000000000003,0.0034918857593160056,-0.0034918857593160056
27.643,0.008534568185934094,-0.008534568185934094
27.644000000000002,0.013421270169996048,-0.013421270169996048
27.645000000000003,0.01663984779079929,-0.01663984779079929
27.646,0.016984468535741416,-0.016984468535741416
27.647000000000002,0.013944148994619321,-0.013944148994619321
27.648000000000003,0.007905159252242881,-0.007905159252242881
27.649,9.492520640774081e-05,-9.492520640774081e-05
27.650000000000002,0.007726523446776834,0.007726523446776834
27.651000000000003,0.013742680608188782,0.013742680608188782
27.652,0.01658555445297383,0.01658555445297383
27.653000000000002,0.01571959013276282,0.01571959013276282
27.654000000000003,0.011589953216001665,0.011589953216001665
27.655,0.005491516831405506,0.005491516831405506
27.656000000000002,0.0008010359117274386,-0.0008010359117274386
27.657,0.005530795691885996,-0.005530795691885996
27.658,0.0074370718289419645,-0.0074370718289419645
27.659000000000002,0.0060777429259558004,-0.0060777429259558004
27.66,0.0019096241885279365,-0.0019096241885279365
27.661,0.00388396540714962,0.00388396540714962
27.662000000000003,0.009754355606452313,0.009754355606452313
27.663,0.01422176525003129,0.01422176525003129
27.664,0.01625355124327667,0.01625355124327667
27.665000000000003,0.015484003270538707,0.015484003270538707
27.666,0.012229038033529446,0.012229038033529446
27.667,0.007314646741546616,0.007314646741546616
27.668000000000003,0.001791773587306087,0.001791773587306087
27.669,0.0033636796857559304,-0.0033636796857559304
27.67,0.007474756838305946,-0.007474756838305946
27.671000000000003,0.01025621725565733,-0.01025621725565733
27.672,0.01177083352008668,-0.01177083352008668
27.673000000000002,0.012289501228327457,-0.012289501228327457
27.674000000000003,0.012121983099385019,-0.012121983099385019
27.675,0.011485306991274818,-0.011485306991274818
27.676000000000002,0.010453152336549922,-0.010453152336549922
27.677000000000003,0.008992633619795593,-0.008992633619795593
27.678,0.007059266020426568,-0.007059266020426568
27.679000000000002,0.004699619336291299,-0.004699619336291299
27.680000000000003,0.0021112033662455108,-0.0021112033662455108
27.681,0.00037078681239255433,0.00037078681239255433
27.682000000000002,0.00235872772425627,0.00235872772425627
27.683000000000003,0.0035382528574002935,0.0035382528574002935
27.684,0.003785075820319388,0.003785075820319388
27.685000000000002,0.00322522095695964,0.00322522095695964
27.686000000000003,0.002210997426153606,0.002210997426153606
27.687,0.0012160018783942434,0.0012160018783942434
27.688000000000002,0.0006827298717650477,0.0006827298717650477
27.689,0.0008748369881959402,0.0008748369881959402
27.69,0.001785932478130282,0.001785932478130282
27.691000000000003,0.003137995107568366,0.003137995107568366
27.692,0.004471733845222543,0.004471733845222543
27.693,0.005299352276439369,0.005299352276439369
27.694000000000003,0.005268405556658874,0.005268405556658874
27.695,0.004281329958777267,0.004281329958777267
27.696,0.002530133214081552,0.002530133214081552
27.697000000000003,0.0004344294920674807,0.0004344294920674807
27.698,0.0014964123199402743,-0.0014964123199402743
27.699,0.0028308500893588027,-0.0028308500893588027
27.700000000000003,0.003356599154919116,-0.003356599154919116
27.701,0.003149009220875175,-0.003149009220875175
27.702,0.002543873485838188,-0.002543873485838188
27.703000000000003,0.002023610719191824,-0.002023610719191824
27.704,0.0020538062973088898,-0.0020538062973088898
27.705000000000002,0.002922671476212357,-0.002922671476212357
27.706000000000003,0.004634373439035033,-0.004634373439035033
27.707,0.0068894341649937225,-0.0068894341649937225
27.708000000000002,0.009157701274274286,-0.009157701274274286
27.709000000000003,0.01082090211911753,-0.01082090211911753
27.71,0.011341490469648201,-0.011341490469648201
27.711000000000002,0.010408328851541186,-0.010408328851541186
27.712000000000003,0.008018880753878417,-0.008018880753878417
27.713,0.004478297658471265,-0.004478297658471265
27.714000000000002,0.00032096211453092716,-0.00032096211453092716
27.715000000000003,0.003818338428720605,0.003818338428720605
27.716,0.007344714001616227,0.007344714001616227
27.717000000000002,0.00981698560434271,0.00981698560434271
27.718000000000004,0.011009185972597993,0.011009185972597993
27.719,0.010912442919506039,0.010912442919506039
27.720000000000002,0.009688410845393968,0.009688410845393968
27.721,0.007598000780819275,0.007598000780819275
27.722,0.004932435143156359,0.004932435143156359
27.723000000000003,0.0019675188925290616,0.0019675188925290616
27.724,0.0010505308600293258,-0.0010505308600293258
27.725,0.0038934297085775667,-0.0038934297085775667
27.726000000000003,0.006329618051812374,-0.006329618051812374
27.727,0.008113210738096377,-0.008113210738096377
27.728,0.008998161475638861,-0.008998161475638861
27.729000000000003,0.008781754164188539,-0.008781754164188539
27.73,0.007368202421768789,-0.007368202421768789
27.731,0.004832127470938011,-0.004832127470938011
27.732000000000003,0.0014569885764092348,-0.0014569885764092348
27.733,0.002272808665969437,0.002272808665969437
27.734,0.005735974360340397,0.005735974360340397
27.735000000000003,0.008288251160660415,0.008288251160660415
27.736,0.009403618893668551,0.009403618893668551
27.737000000000002,0.008808817654367536,0.008808817654367536
27.738000000000003,0.0065744696553986055,0.0065744696553986055
27.739,0.0031335145408160946,0.0031335145408160946
27.740000000000002,0.0007859824205902544,-0.0007859824205902544
27.741000000000003,0.004305201260524919,-0.004305201260524919
27.742,0.006586759905525435,-0.006586759905525435
27.743000000000002,0.007030687180949622,-0.007030687180949622
27.744000000000003,0.005426076711921992,-0.005426076711921992
27.745,0.002018652943511804,-0.002018652943511804
27.746000000000002,0.002526313728535469,0.002526313728535469
27.747000000000003,0.007260789467594412,0.007260789467594412
27.748,0.011160202319616274,0.011160202319616274
27.749000000000002,0.013350548675984335,0.013350548675984335
27.750000000000004,0.013301663467885026,0.013301663467885026
27.751,0.010939941692904256,0.010939941692904256
27.752000000000002,0.006654124962045459,0.006654124962045459
27.753,0.0011950992500726046,0.0011950992500726046
27.754,0.004502398371859951,-0.004502398371859951
27.755000000000003,0.009529088651054805,-0.009529088651054805
27.756,0.013188252735393435,-0.013188252735393435
27.757,0.015115840571680085,-0.015115840571680085
27.758000000000003,0.015309156099088922,-0.015309156099088922
27.759,0.014065874725576761,-0.014065874725576761
27.76,0.011859439690303482,-0.011859439690303482
27.761000000000003,0.009192280513291221,-0.009192280513291221
27.762,0.006470642470238962,-0.006470642470238962
27.763,0.00393403827115788,-0.00393403827115788
27.764000000000003,0.001652390861164399,-0.001652390861164399
27.765,0.00041851170338048075,0.00041851170338048075
27.766000000000002,0.0023504036575706095,0.0023504036575706095
27.767000000000003,0.004159643981684547,0.004159643981684547
27.768,0.005758663063226941,0.005758663063226941
27.769000000000002,0.006958255123253273,0.006958255123253273
27.770000000000003,0.00751843827518489,0.00751843827518489
27.771,0.007228696171961684,0.007228696171961684
27.772000000000002,0.0059889517728564726,0.0059889517728564726
27.773000000000003,0.0038633776477914545,0.0038633776477914545
27.774,0.001089265826722055,0.001089265826722055
27.775000000000002,0.0019613548793226184,-0.0019613548793226184
27.776000000000003,0.004854489059504662,-0.004854489059504662
27.777,0.007178766285001837,-0.007178766285001837
27.778000000000002,0.008617983058591612,-0.008617983058591612
27.779000000000003,0.00899453577085016,-0.00899453577085016
27.78,0.008278408123816198,-0.008278408123816198
27.781000000000002,0.006568224567396093,-0.006568224567396093
27.782,0.004058376806649471,-0.004058376806649471
27.783,0.00100691100319184,-0.00100691100319184
27.784000000000002,0.002286838640731772,0.002286838640731772
27.785,0.005494915943482596,0.005494915943482596
27.786,0.008271752766900953,0.008271752766900953
27.787000000000003,0.010274684677935712,0.010274684677935712
27.788,0.011201659595237546,0.011201659595237546
27.789,0.010844955082516457,0.010844955082516457
27.790000000000003,0.00914914476113758,0.00914914476113758
