Czas,AbsSum,Sum
265.105,0.08831502964798532,0.08831502964798532
265.106,0.07297390679891569,0.07297390679891569
265.107,0.04435033400591015,0.04435033400591015
265.108,0.01128625350655943,0.01128625350655943
265.109,0.017315398218744504,-0.017315398218744504
265.11,0.03491675004447681,-0.03491675004447681
265.111,0.038921423037038716,-0.038921423037038716
265.112,0.030990663836047427,-0.030990663836047427
265.113,0.01607580101664685,-0.01607580101664685
265.114,0.0005299599924972753,-0.0005299599924972753
265.115,0.01007006364347407,0.01007006364347407
265.116,0.012692738281619986,0.012692738281619986
265.117,0.007664015183184381,0.007664015183184381
265.118,0.0017023959375382924,-0.0017023959375382924
265.119,0.010491914436713046,-0.010491914436713046
265.12,0.014095928501529853,-0.014095928501529853
265.121,0.009974245860064457,-0.009974245860064457
265.122,0.0013378851023391203,0.0013378851023391203
265.123,0.016331746069701447,0.016331746069701447
265.124,0.029711635864350994,0.029711635864350994
265.125,0.03626759898662346,0.03626759898662346
265.126,0.03279213697995753,0.03279213697995753
265.127,0.019369126481598276,0.019369126481598276
265.128,0.00043738545053362277,-0.00043738545053362277
265.129,0.02060071739421021,-0.02060071739421021
265.13,0.034549032660845636,-0.034549032660845636
265.131,0.037356518866620614,-0.037356518866620614
265.132,0.02746667637169986,-0.02746667637169986
265.133,0.007340918298940902,-0.007340918298940902
265.134,0.017227410806402776,0.017227410806402776
265.135,0.038945961421158026,0.038945961421158026
265.136,0.05141692312179402,0.05141692312179402
265.137,0.051292874918127174,0.051292874918127174
265.138,0.03945029829831137,0.03945029829831137
265.139,0.020746514922486137,0.020746514922486137
265.14,0.0023961279698629934,0.0023961279698629934
265.141,0.008521599836690874,-0.008521599836690874
265.142,0.007594851683149995,-0.007594851683149995
265.143,0.005225051070309794,0.005225051070309794
265.144,0.02538850310036933,0.02538850310036933
265.145,0.04512158255650278,0.04512158255650278
265.146,0.05601155884402975,0.05601155884402975
265.147,0.05197268964100177,0.05197268964100177
265.148,0.031591683909710344,0.031591683909710344
265.149,0.0009847662097898224,-0.0009847662097898224
265.15,0.037004261785649306,-0.037004261785649306
265.15099999999995,0.06568558059873164,-0.06568558059873164
265.152,0.07764337588379244,-0.07764337588379244
265.153,0.06806587849567869,-0.06806587849567869
265.154,0.03858226078582272,-0.03858226078582272
265.155,0.0028581408515622186,0.0028581408515622186
265.156,0.044148172973550004,0.044148172973550004
265.157,0.0726152629578396,0.0726152629578396
265.158,0.07894466162143066,0.07894466162143066
265.159,0.06018959547530067,0.06018959547530067
265.16,0.020879960885276327,0.020879960885276327
265.161,0.0281756357727444,-0.0281756357727444
265.162,0.07307076194770479,-0.07307076194770479
265.16299999999995,0.1010001787039233,-0.1010001787039233
265.164,0.10416879742634577,-0.10416879742634577
265.165,0.08217337610815811,-0.08217337610815811
265.166,0.042089145740265343,-0.042089145740265343
265.167,0.003784308685113702,0.003784308685113702
265.168,0.04181827500079627,0.04181827500079627
265.169,0.06136291073542521,0.06136291073542521
265.17,0.05809977074264072,0.05809977074264072
265.171,0.03536761590959281,0.03536761590959281
265.172,0.003031641567825094,0.003031641567825094
265.173,0.02575188581942034,-0.02575188581942034
265.174,0.03885119965745698,-0.03885119965745698
265.17499999999995,0.029182827644156695,-0.029182827644156695
265.176,0.0028398498171791076,0.0028398498171791076
265.177,0.049220510427786746,0.049220510427786746
265.178,0.09669826360660472,0.09669826360660472
265.179,0.13075570589586105,0.13075570589586105
265.18,0.1400732824412334,0.1400732824412334
265.181,0.12005143175547106,0.12005143175547106
265.182,0.07431908235868723,0.07431908235868723
265.183,0.013777864927314809,0.013777864927314809
265.184,0.046506652141015015,-0.046506652141015015
265.185,0.09160279114489878,-0.09160279114489878
265.186,0.11089385058161383,-0.11089385058161383
265.18699999999995,0.10090467178909013,-0.10090467178909013
265.188,0.06598187313890236,-0.06598187313890236
265.189,0.016710130532688994,-0.016710130532688994
265.19,0.03336742116241531,0.03336742116241531
265.191,0.07167252494764331,0.07167252494764331
265.192,0.08996651160980296,0.08996651160980296
265.193,0.08621639694184258,0.08621639694184258
265.194,0.06450780722539373,0.06450780722539373
265.195,0.033183861268875736,0.033183861268875736
265.196,0.0019201417579342017,0.0019201417579342017
265.197,0.021277783809887985,-0.021277783809887985
265.198,0.032219272948719846,-0.032219272948719846
265.199,0.03122502153118889,-0.03122502153118889
265.2,0.022293802342329916,-0.022293802342329916
265.201,0.011160094549973132,-0.011160094549973132
265.202,0.002994845855878947,-0.002994845855878947
265.203,0.0005646569481573271,-0.0005646569481573271
265.204,0.0034530468720758156,-0.0034530468720758156
265.205,0.008545303532195514,-0.008545303532195514
265.206,0.011528595028187594,-0.011528595028187594
265.207,0.008813818856399203,-0.008813818856399203
265.208,0.0008433789477366727,0.0008433789477366727
265.209,0.0156220303693968,0.0156220303693968
265.21,0.031089122453374474,0.031089122453374474
265.211,0.041685075607084565,0.041685075607084565
265.212,0.042736484501550764,0.042736484501550764
265.213,0.03229992260475645,0.03229992260475645
265.214,0.012182919499353018,0.012182919499353018
265.215,0.01225137176131541,-0.01225137176131541
265.216,0.03349640486537919,-0.03349640486537919
265.217,0.044133444536457844,-0.044133444536457844
265.218,0.039206824835813725,-0.039206824835813725
265.219,0.018000399809800283,-0.018000399809800283
265.22,0.015364992565914504,0.015364992565914504
265.221,0.05274962429860963,0.05274962429860963
265.222,0.08404492476978831,0.08404492476978831
265.223,0.09990149856031394,0.09990149856031394
265.224,0.09437064517376936,0.09437064517376936
265.225,0.06670585761018555,0.06670585761018555
265.226,0.02179911640425658,0.02179911640425658
265.227,0.030894448894878357,-0.030894448894878357
265.228,0.0796699581204785,-0.0796699581204785
265.229,0.1135085777236583,-0.1135085777236583
265.23,0.12485097068932594,-0.12485097068932594
265.231,0.11147237089643058,-0.11147237089643058
265.232,0.07697294299493929,-0.07697294299493929
265.233,0.02977545419205374,-0.02977545419205374
265.234,0.01907705459903486,0.01907705459903486
265.235,0.05871819242596299,0.05871819242596299
265.236,0.08110312155220223,0.08110312155220223
265.237,0.08281954575749162,0.08281954575749162
265.238,0.06563036100690267,0.06563036100690267
265.239,0.03567059507349457,0.03567059507349457
265.24,0.0015860433224608173,0.0015860433224608173
265.241,0.027828006760370116,-0.027828006760370116
265.242,0.04582503910657021,-0.04582503910657021
265.243,0.04916523699898767,-0.04916523699898767
265.244,0.038500159367754416,-0.038500159367754416
265.245,0.01767798700021539,-0.01767798700021539
265.246,0.00772646163352575,0.00772646163352575
265.247,0.032150168231402265,0.032150168231402265
265.248,0.05150411652872822,0.05150411652872822
265.249,0.06394662359074355,0.06394662359074355
265.25,0.06980963468720103,0.06980963468720103
265.251,0.07081136541804334,0.07081136541804334
265.252,0.06892129990277307,0.06892129990277307
265.253,0.06534143551931382,0.06534143551931382
265.254,0.06000001357655349,0.06000001357655349
265.255,0.0517456573139532,0.0517456573139532
265.256,0.03915387206422705,0.03915387206422705
265.257,0.021611664967277067,0.021611664967277067
265.258,0.0002187662070731733,0.0002187662070731733
265.259,0.021914468430714207,-0.021914468430714207
265.26,0.040189843200774455,-0.040189843200774455
265.261,0.04978397966466086,-0.04978397966466086
265.262,0.04727861701062508,-0.04727861701062508
265.263,0.03210712167913343,-0.03210712167913343
265.264,0.007270493197833017,-0.007270493197833017
265.265,0.021024028712047116,0.021024028712047116
265.266,0.04481025778925973,0.04481025778925973
265.267,0.05653600657301583,0.05653600657301583
265.268,0.0513274780855395,0.0513274780855395
265.269,0.028631434665731925,0.028631434665731925
265.27,0.007324956211793965,-0.007324956211793965
265.271,0.04846902773443362,-0.04846902773443362
265.272,0.0849896874038838,-0.0849896874038838
265.273,0.1080128735954432,-0.1080128735954432
265.274,0.11204304232642903,-0.11204304232642903
265.275,0.09642449136428277,-0.09642449136428277
265.27599999999995,0.06537595774709026,-0.06537595774709026
265.277,0.02660145981236739,-0.02660145981236739
265.278,0.011066695048307817,0.011066695048307817
265.279,0.04023134738286882,0.04023134738286882
265.28,0.05688481199639073,0.05688481199639073
265.281,0.0611557529641058,0.0611557529641058
265.282,0.056666540300852386,0.056666540300852386
265.283,0.04879280094180616,0.04879280094180616
265.284,0.042485166970951616,0.042485166970951616
265.285,0.04044793478060771,0.04044793478060771
265.286,0.04232267241764265,0.04232267241764265
265.287,0.045147405856121425,0.045147405856121425
265.28799999999995,0.044886899636975564,0.044886899636975564
265.289,0.03842654957136582,0.03842654957136582
265.29,0.025238514355590214,0.025238514355590214
265.291,0.008035139505727429,0.008035139505727429
265.292,0.007910366592566609,-0.007910366592566609
265.293,0.01659876689157347,-0.01659876689157347
265.294,0.013665962102545781,-0.013665962102545781
265.295,0.0015982772687765934,0.0015982772687765934
265.296,0.025373967202371617,0.025373967202371617
265.297,0.05001132279521925,0.05001132279521925
265.298,0.06619864033065648,0.06619864033065648
265.299,0.06595363632659512,0.06595363632659512
265.29999999999995,0.04545944873053198,0.04545944873053198
265.301,0.006759014127686758,0.006759014127686758
265.302,0.042342157544950965,-0.042342157544950965
265.303,0.09023839936050415,-0.09023839936050415
265.304,0.12479979436504074,-0.12479979436504074
265.305,0.136949881663588,-0.136949881663588
265.306,0.12340175316960222,-0.12340175316960222
265.307,0.08765931995085041,-0.08765931995085041
265.308,0.038945698339608814,-0.038945698339608814
265.309,0.01060268159698663,0.01060268159698663
265.31,0.049567932985126184,0.049567932985126184
265.311,0.07053234564687338,0.07053234564687338
265.31199999999995,0.07196086963065262,0.07196086963065262
265.313,0.05811601680894718,0.05811601680894718
265.314,0.03710646099619064,0.03710646099619064
265.315,0.017799323918499255,0.017799323918499255
265.316,0.006697044822659759,0.006697044822659759
265.317,0.005865200418077032,0.005865200418077032
265.318,0.012604311162133675,0.012604311162133675
265.319,0.02092584315155066,0.02092584315155066
265.32,0.024243975345399793,0.024243975345399793
265.321,0.01825995294299898,0.01825995294299898
265.322,0.002949654482153008,0.002949654482153008
265.323,0.017108153785759583,-0.017108153785759583
265.324,0.03422071002330973,-0.03422071002330973
265.325,0.04037754054356901,-0.04037754054356901
265.326,0.03035297907529666,-0.03035297907529666
265.327,0.003976931639308012,-0.003976931639308012
265.328,0.03329272465940436,0.03329272465940436
265.329,0.07177452801212292,0.07177452801212292
265.33,0.10052342144735227,0.10052342144735227
265.331,0.11086173001265842,0.11086173001265842
265.332,0.09927147169004535,0.09927147169004535
265.333,0.06863630772855567,0.06863630772855567
265.334,0.02737813529665023,0.02737813529665023
265.335,0.013243104662502225,-0.013243104662502225
265.336,0.04276017375097041,-0.04276017375097041
265.337,0.054826707261297125,-0.054826707261297125
265.338,0.049110730193610674,-0.049110730193610674
265.339,0.031117711830975447,-0.031117711830975447
265.34,0.010026683504755884,-0.010026683504755884
265.341,0.004686400005343927,0.004686400005343927
265.342,0.00664476347812748,0.00664476347812748
265.343,0.005206332783103673,-0.005206332783103673
265.344,0.0263218638685212,-0.0263218638685212
265.345,0.04830321316265884,-0.04830321316265884
265.346,0.06202653672021441,-0.06202653672021441
265.347,0.061019321799415605,-0.061019321799415605
265.348,0.04386282003174802,-0.04386282003174802
265.349,0.01474687441725775,-0.01474687441725775
265.35,0.01803234392852371,0.01803234392852371
265.351,0.04509695741360309,0.04509695741360309
265.352,0.05944053774618663,0.05944053774618663
265.353,0.05904388956059181,0.05904388956059181
265.354,0.04766882600154676,0.04766882600154676
265.355,0.03348599134199515,0.03348599134199515
265.356,0.025970339309843382,0.025970339309843382
265.357,0.032138335388893324,0.032138335388893324
265.358,0.053474884704272085,0.053474884704272085
265.359,0.08470153725645169,0.08470153725645169
265.36,0.11493010404685444,0.11493010404685444
265.361,0.13093106246100894,0.13093106246100894
265.362,0.12150247952879889,0.12150247952879889
265.363,0.08151011082072412,0.08151011082072412
265.364,0.014230372192860052,0.014230372192860052
265.365,0.06884873030396044,-0.06884873030396044
265.366,0.15079893716955162,-0.15079893716955162
265.367,0.21378999305315183,-0.21378999305315183
265.368,0.24401106369898562,-0.24401106369898562
265.369,0.2354619355475115,-0.2354619355475115
265.37,0.1914609603384293,-0.1914609603384293
265.371,0.12344506400121491,-0.12344506400121491
265.372,0.047491121017576576,-0.047491121017576576
265.373,0.020312587473177768,0.020312587473177768
265.374,0.06819520824505543,0.06819520824505543
265.375,0.0914347552894268,0.0914347552894268
265.376,0.09275564254031488,0.09275564254031488
265.377,0.08042999021693165,0.08042999021693165
265.378,0.06484777908233119,0.06484777908233119
265.379,0.05476641470633803,0.05476641470633803
265.38,0.05448063059303343,0.05448063059303343
265.381,0.06277800352646001,0.06277800352646001
265.382,0.0739063726847482,0.0739063726847482
265.383,0.08010033214745382,0.08010033214745382
265.384,0.07472053057542549,0.07472053057542549
265.385,0.054904927964066985,0.054904927964066985
265.386,0.0228484905653219,0.0228484905653219
265.387,0.014674833023939127,-0.014674833023939127
265.388,0.04833612551373623,-0.04833612551373623
265.389,0.06911376786389534,-0.06911376786389534
265.39,0.07104863535750527,-0.07104863535750527
265.391,0.05302912966010975,-0.05302912966010975
265.392,0.01909701562276611,-0.01909701562276611
265.393,0.02274299340524033,0.02274299340524033
265.394,0.06276617466785472,0.06276617466785472
265.395,0.09209532879769755,0.09209532879769755
265.396,0.10483262293520212,0.10483262293520212
265.397,0.09920113348152926,0.09920113348152926
265.398,0.07749503740599262,0.07749503740599262
265.399,0.04500992438915996,0.04500992438915996
265.4,0.008395654830127608,0.008395654830127608
265.40099999999995,0.02602899686130311,-0.02602899686130311
265.402,0.053543708909640775,-0.053543708909640775
265.403,0.07162790831707333,-0.07162790831707333
265.404,0.07989269446385894,-0.07989269446385894
265.405,0.0795348357100456,-0.0795348357100456
265.406,0.07259435042122142,-0.07259435042122142
265.407,0.06127457494041255,-0.06127457494041255
265.408,0.047482354637613744,-0.047482354637613744
265.409,0.032622228112547336,-0.032622228112547336
265.41,0.01758490397957657,-0.01758490397957657
265.411,0.0028356274851476515,-0.0028356274851476515
265.412,0.011470948653562463,0.011470948653562463
265.41299999999995,0.02537423548635176,0.02537423548635176
265.414,0.03897457833679696,0.03897457833679696
265.415,0.05226305673768383,0.05226305673768383
265.416,0.06492509687181003,0.06492509687181003
265.417,0.07617645585137556,0.07617645585137556
265.418,0.08472164673284222,0.08472164673284222
265.419,0.08891305593002574,0.08891305593002574
265.42,0.08712715416681593,0.08712715416681593
265.421,0.07828183363504593,0.07828183363504593
265.422,0.062335081349707666,0.062335081349707666
265.423,0.040571880201515365,0.040571880201515365
265.424,0.01552868872189861,0.01552868872189861
265.42499999999995,0.009482124544389903,-0.009482124544389903
265.426,0.03113902788337719,-0.03113902788337719
265.427,0.04693685033961248,-0.04693685033961248
265.428,0.055791625950182056,-0.055791625950182056
265.429,0.058202401050799546,-0.058202401050799546
265.43,0.055896581145137736,-0.055896581145137736
265.431,0.051075258550231095,-0.051075258550231095
265.432,0.045533756797725644,-0.045533756797725644
265.433,0.03999479403020978,-0.03999479403020978
265.434,0.03392512172516293,-0.03392512172516293
265.435,0.025928119174499886,-0.025928119174499886
265.436,0.014577360043028897,-0.014577360043028897
265.43699999999995,0.0006334869349593486,0.0006334869349593486
265.438,0.018622693375726973,0.018622693375726973
265.439,0.03665241971010591,0.03665241971010591
265.44,0.05096452503299642,0.05096452503299642
265.441,0.0579507632984948,0.0579507632984948
265.442,0.05545809400794388,0.05545809400794388
265.443,0.04373703509001925,0.04373703509001925
265.444,0.02563188838171615,0.02563188838171615
265.445,0.005865097091346305,0.005865097091346305
265.446,0.010401392167191159,-0.010401392167191159
265.447,0.019257932388154653,-0.019257932388154653
265.448,0.019391332207716716,-0.019391332207716716
265.449,0.012565985625252685,-0.012565985625252685
265.45,0.003010876546023944,-0.003010876546023944
265.451,0.004129098537210885,0.004129098537210885
265.452,0.004763023054383142,0.004763023054383142
265.453,0.0024574378340123104,-0.0024574378340123104
265.454,0.01537363372687417,-0.01537363372687417
265.455,0.02882313790489377,-0.02882313790489377
265.456,0.036311362434920946,-0.036311362434920946
265.457,0.03232105918637507,-0.03232105918637507
265.458,0.014467111975477454,-0.014467111975477454
265.459,0.015285246384204587,0.015285246384204587
265.46,0.05082825869821561,0.05082825869821561
265.461,0.08355393655247978,0.08355393655247978
265.462,0.10493465618578024,0.10493465618578024
265.463,0.10919759617988367,0.10919759617988367
265.464,0.09518646697101962,0.09518646697101962
265.465,0.06675937407305854,0.06675937407305854
265.466,0.03156279747941082,0.03156279747941082
265.467,0.0014199499670797255,-0.0014199499670797255
265.468,0.02471864079456987,-0.02471864079456987
265.469,0.03465300577874231,-0.03465300577874231
265.47,0.032261523843744144,-0.032261523843744144
265.471,0.02257917897624706,-0.02257917897624706
265.472,0.012543972669741388,-0.012543972669741388
265.473,0.008297962138462345,-0.008297962138462345
265.474,0.012862296528381112,-0.012862296528381112
265.475,0.02502757746117734,-0.02502757746117734
265.476,0.03985764122376789,-0.03985764122376789
265.477,0.050614621150444794,-0.050614621150444794
265.478,0.05138947888816514,-0.05138947888816514
265.479,0.03945719069591358,-0.03945719069591358
265.48,0.01646959648622026,-0.01646959648622026
265.481,0.011978308283143724,0.011978308283143724
265.482,0.03827224430615028,0.03827224430615028
265.483,0.05549685756555767,0.05549685756555767
265.484,0.059941940417835626,0.059941940417835626
265.485,0.05244870026791326,0.05244870026791326
265.486,0.0380615779631972,0.0380615779631972
265.487,0.024074490959692385,0.024074490959692385
265.488,0.01716750947168566,0.01716750947168566
265.489,0.020695060756698025,0.020695060756698025
265.49,0.033167339630858494,0.033167339630858494
265.491,0.04855800522668652,0.04855800522668652
265.492,0.05841191029437365,0.05841191029437365
265.493,0.055051293446714444,0.055051293446714444
265.494,0.03473550371527123,0.03473550371527123
265.495,0.00041101232112605857,-0.00041101232112605857
265.496,0.04249530515774935,-0.04249530515774935
265.497,0.08007123451402798,-0.08007123451402798
265.498,0.1018041431830512,-0.1018041431830512
265.499,0.10036003056666165,-0.10036003056666165
265.5,0.07515375188296958,-0.07515375188296958
265.501,0.032930165700559955,-0.032930165700559955
265.502,0.014132205180022117,0.014132205180022117
265.503,0.0522537117757742,0.0522537117757742
265.504,0.07058812295215389,0.07058812295215389
265.505,0.0649377349417053,0.0649377349417053
265.506,0.0393569402623728,0.0393569402623728
265.507,0.005031465089434306,0.005031465089434306
265.508,0.023274311935786107,-0.023274311935786107
265.509,0.032084541151975676,-0.032084541151975676
265.51,0.013814305437885421,-0.013814305437885421
265.511,0.030409185607722877,0.030409185607722877
265.512,0.09065222383587002,0.09065222383587002
265.513,0.15086428061784285,0.15086428061784285
265.514,0.19350218116632667,0.19350218116632667
265.515,0.20461918559614256,0.20461918559614256
265.516,0.17782225854247735,0.17782225854247735
265.517,0.11590324129255714,0.11590324129255714
265.518,0.029737231246184104,0.029737231246184104
265.519,0.0650598933450861,-0.0650598933450861
265.52,0.15252091492992192,-0.15252091492992192
265.521,0.22029876702772389,-0.22029876702772389
265.522,0.2619952539960064,-0.2619952539960064
265.523,0.277273669538583,-0.277273669538583
265.524,0.2700026946956321,-0.2700026946956321
265.525,0.24537164714891257,-0.24537164714891257
265.52599999999995,0.20723562245073224,-0.20723562245073224
265.527,0.1567854292385097,-0.1567854292385097
265.528,0.09305951130360424,-0.09305951130360424
265.529,0.015041963049494123,-0.015041963049494123
265.53,0.07558743724591532,0.07558743724591532
265.531,0.17231143106367508,0.17231143106367508
265.532,0.2633454978541847,0.2633454978541847
265.533,0.33342909453321057,0.33342909453321057
265.534,0.36751965102102724,0.36751965102102724
265.535,0.35530720095289126,0.35530720095289126
265.536,0.29504890182382204,0.29504890182382204
265.537,0.19531637037917782,0.19531637037917782
265.53799999999995,0.0738454151154242,0.0738454151154242
265.539,0.046408938788431886,-0.046408938788431886
265.54,0.1429814435216299,-0.1429814435216299
265.541,0.19971242613253537,-0.19971242613253537
265.542,0.21090887770576539,-0.21090887770576539
265.543,0.18255632998480165,-0.18255632998480165
265.544,0.1301833358031994,-0.1301833358031994
265.545,0.07401860910904579,-0.07401860910904579
265.546,0.03292346498165544,-0.03292346498165544
265.547,0.018953984341948837,-0.018953984341948837
265.548,0.03418750615101185,-0.03418750615101185
265.549,0.0707103697232836,-0.0707103697232836
265.54999999999995,0.1136516798537599,-0.1136516798537599
265.551,0.14619283267021932,-0.14619283267021932
265.552,0.1548940077191724,-0.1548940077191724
265.553,0.1336417751007244,-0.1336417751007244
265.554,0.0850370079588233,-0.0850370079588233
265.555,0.01892769233591307,-0.01892769233591307
265.556,0.051254443608024225,0.051254443608024225
265.557,0.112990594020008,0.112990594020008
265.558,0.15841885481994233,0.15841885481994233
265.559,0.18606316590911876,0.18606316590911876
265.56,0.20003621773934355,0.20003621773934355
265.561,0.20712225442799825,0.20712225442799825
265.56199999999995,0.21291195402006302,0.21291195402006302
265.563,0.21851318386524232,0.21851318386524232
265.564,0.21917512222001356,0.21917512222001356
265.565,0.20549754357989736,0.20549754357989736
265.566,0.1669730910402334,0.1669730910402334
265.567,0.0967387974858096,0.0967387974858096
265.568,0.004108206312652074,-0.004108206312652074
265.569,0.12426027872330825,-0.12426027872330825
265.57,0.24307779473904356,-0.24307779473904356
265.571,0.33471016789995367,-0.33471016789995367
265.572,0.374532173122492,-0.374532173122492
265.573,0.3461654877723176,-0.3461654877723176
265.574,0.24704994328098706,-0.24704994328098706
265.575,0.09082973069637779,-0.09082973069637779
265.576,0.09434993089180943,0.09434993089180943
265.577,0.2714190335754796,0.2714190335754796
265.578,0.40253069835515887,0.40253069835515887
265.579,0.45774777456020765,0.45774777456020765
265.58,0.42206637618855813,0.42206637618855813
265.581,0.2990117361553901,0.2990117361553901
265.582,0.10995093089215557,0.10995093089215557
265.583,0.11061817351143821,-0.11061817351143821
265.584,0.32253837175734346,-0.32253837175734346
265.585,0.4883398974837996,-0.4883398974837996
265.586,0.5804871588203911,-0.5804871588203911
265.587,0.5859800550963268,-0.5859800550963268
265.588,0.5075559244335015,-0.5075559244335015
265.589,0.36164072995237195,-0.36164072995237195
265.59,0.17395095407687344,-0.17395095407687344
265.591,0.02594133248546049,0.02594133248546049
265.592,0.20976932595085818,0.20976932595085818
265.593,0.35449955451798565,0.35449955451798565
265.594,0.444608460635598,0.444608460635598
265.595,0.47281519687522766,0.47281519687522766
265.596,0.4397214879114115,0.4397214879114115
265.597,0.35288661672617083,0.35288661672617083
265.598,0.22570259366238377,0.22570259366238377
265.599,0.07614765602934104,0.07614765602934104
265.6,0.07475754437764659,-0.07475754437764659
265.601,0.20505282481154208,-0.20505282481154208
265.602,0.29462222374518643,-0.29462222374518643
265.603,0.328456767384233,-0.328456767384233
265.604,0.2998166063869666,-0.2998166063869666
265.605,0.21245010683581855,-0.21245010683581855
265.606,0.08102357110509961,-0.08102357110509961
265.607,0.0707702530550478,0.0707702530550478
265.608,0.214379821188744,0.214379821188744
265.609,0.3221162894502274,0.3221162894502274
265.61,0.373148162508119,0.373148162508119
265.611,0.3582521133009684,0.3582521133009684
265.612,0.2820032133669874,0.2820032133669874
265.613,0.16170314925720564,0.16170314925720564
265.614,0.023215233871491936,0.023215233871491936
265.615,0.10525461014751925,-0.10525461014751925
265.616,0.19979151092963643,-0.19979151092963643
265.617,0.2460478888433537,-0.2460478888433537
265.618,0.2417812147271483,-0.2417812147271483
265.619,0.19607774681465007,-0.19607774681465007
265.62,0.12566236519880025,-0.12566236519880025
265.621,0.04953683832130462,-0.04953683832130462
265.622,0.016367099918410677,0.016367099918410677
265.623,0.06292588302645563,0.06292588302645563
265.624,0.08895274359851424,0.08895274359851424
265.625,0.09961070083092705,0.09961070083092705
265.626,0.10290112069322022,0.10290112069322022
265.627,0.10562109997077651,0.10562109997077651
265.628,0.11029236045995994,0.11029236045995994
265.629,0.11415204158173697,0.11415204158173697
265.63,0.11051129333715481,0.11051129333715481
265.631,0.09190839070435208,0.09190839070435208
265.632,0.05381925033386148,0.05381925033386148
265.633,0.002525378784657306,-0.002525378784657306
265.634,0.06935309939564427,-0.06935309939564427
265.635,0.1339987266400695,-0.1339987266400695
265.636,0.18250320996468172,-0.18250320996468172
265.637,0.20394563835399182,-0.20394563835399182
265.638,0.19398575689191344,-0.19398575689191344
265.639,0.1563327383433183,-0.1563327383433183
265.64,0.10156357871116728,-0.10156357871116728
265.641,0.04364710096449487,-0.04364710096449487
265.642,0.004643006144016137,0.004643006144016137
265.643,0.03582025208152073,0.03582025208152073
265.644,0.049820896180418295,0.049820896180418295
265.645,0.05339486378148606,0.05339486378148606
265.646,0.05693874587296466,0.05693874587296466
265.647,0.06989217392910585,0.06989217392910585
265.648,0.09637686942821833,0.09637686942821833
265.649,0.13272812197457373,0.13272812197457373
265.65,0.16794395952288577,0.16794395952288577
265.65099999999995,0.1870618897461711,0.1870618897461711
265.652,0.1764153449201289,0.1764153449201289
265.653,0.1289951836213823,0.1289951836213823
265.654,0.048012746866651135,0.048012746866651135
265.655,0.052705915143244075,-0.052705915143244075
265.656,0.15183591693495047,-0.15183591693495047
265.657,0.22633853686350291,-0.22633853686350291
265.658,0.2581425809080582,-0.2581425809080582
265.659,0.23959300823433016,-0.23959300823433016
265.66,0.17588918185213354,-0.17588918185213354
265.661,0.0836857747227936,-0.0836857747227936
265.662,0.013735392277176128,0.013735392277176128
265.66299999999995,0.09320827187229241,0.09320827187229241
265.664,0.1382201905892011,0.1382201905892011
265.665,0.1432192412845812,0.1432192412845812
265.666,0.11442447001896272,0.11442447001896272
265.667,0.06702956472585297,0.06702956472585297
265.668,0.01985307390926816,0.01985307390926816
265.669,0.01073477789778754,-0.01073477789778754
265.67,0.01563697528293162,-0.01563697528293162
265.671,0.004845371702296708,0.004845371702296708
265.672,0.042060134857358156,0.042060134857358156
265.673,0.08261076819202184,0.08261076819202184
265.674,0.1130991362019873,0.1130991362019873
265.67499999999995,0.12431304217580097,0.12431304217580097
265.676,0.11350720957110694,0.11350720957110694
265.677,0.08422112445893282,0.08422112445893282
265.678,0.044014037230797554,0.044014037230797554
265.679,0.0012249112219462344,0.0012249112219462344
265.68,0.03787732490482243,-0.03787732490482243
265.681,0.07047503453097304,-0.07047503453097304
265.682,0.09673353224279224,-0.09673353224279224
265.683,0.11791954598385945,-0.11791954598385945
265.684,0.13414963529474078,-0.13414963529474078
265.685,0.14296306780368806,-0.14296306780368806
265.686,0.13954663934383482,-0.13954663934383482
265.68699999999995,0.1186980623535,-0.1186980623535
265.688,0.07779791425192562,-0.07779791425192562
265.689,0.01950524299531664,-0.01950524299531664
265.69,0.04715601739173336,0.04715601739173336
265.691,0.10814021070612334,0.10814021070612334
265.692,0.14806704997467612,0.14806704997467612
265.693,0.1551992693824964,0.1551992693824964
265.694,0.12600468273171983,0.12600468273171983
265.695,0.06753776455756033,0.06753776455756033
265.696,0.0035182867888147173,-0.0035182867888147173
265.697,0.06521313599235101,-0.06521313599235101
265.698,0.0969433962475601,-0.0969433962475601
265.699,0.08626762039090641,-0.08626762039090641
265.7,0.03363041385147281,-0.03363041385147281
265.701,0.04675013608949996,0.04675013608949996
265.702,0.13039382723801607,0.13039382723801607
265.703,0.1895899088185662,0.1895899088185662
265.704,0.20185873355117456,0.20185873355117456
265.705,0.15719470558804383,0.15719470558804383
265.706,0.06174667461208272,0.06174667461208272
265.707,0.06332025759719206,-0.06332025759719206
265.708,0.18751685270703766,-0.18751685270703766
265.709,0.2795598864098129,-0.2795598864098129
265.71,0.3161259575702092,-0.3161259575702092
265.711,0.28816674329428715,-0.28816674329428715
265.712,0.2029363664005941,-0.2029363664005941
265.713,0.08127473842997568,-0.08127473842997568
265.714,0.048808316694822995,0.048808316694822995
265.715,0.1600949870309203,0.1600949870309203
265.716,0.23315409909020168,0.23315409909020168
265.717,0.26033428275887927,0.26033428275887927
265.718,0.2458414018464461,0.2458414018464461
265.719,0.20233492350777604,0.20233492350777604
265.72,0.1455815120154489,0.1455815120154489
265.721,0.08919434630270406,0.08919434630270406
265.722,0.04122881256053845,0.04122881256053845
265.723,0.0035382347432053596,0.0035382347432053596
265.724,0.026329948404032022,-0.026329948404032022
265.725,0.0518658243934903,-0.0518658243934903
265.726,0.07455131942084903,-0.07455131942084903
265.727,0.09239933808250211,-0.09239933808250211
265.728,0.10066718149295084,-0.10066718149295084
265.729,0.09434598123390403,-0.09434598123390403
265.73,0.07122810171474114,-0.07122810171474114
265.731,0.03406718028024125,-0.03406718028024125
265.732,0.009308900489410687,0.009308900489410687
265.733,0.04822473932266269,0.04822473932266269
265.734,0.0730024672499534,0.0730024672499534
265.735,0.07893286480003714,0.07893286480003714
265.736,0.06867943414547328,0.06867943414547328
265.737,0.051905259790976155,0.051905259790976155
265.738,0.04192840755062677,0.04192840755062677
265.739,0.050393342696467114,0.050393342696467114
265.74,0.08184205188053828,0.08184205188053828
265.741,0.130312197849203,0.130312197849203
265.742,0.17954073899176293,0.17954073899176293
265.743,0.2071601013451656,0.2071601013451656
265.744,0.19183795234641976,0.19183795234641976
265.745,0.12114094916185447,0.12114094916185447
265.746,0.0025615370954803485,-0.0025615370954803485
265.747,0.16038663436136424,-0.16038663436136424
265.748,0.3203936064904438,-0.3203936064904438
265.749,0.4455088045624338,-0.4455088045624338
265.75,0.5036980432489608,-0.5036980432489608
265.751,0.4773121160801401,-0.4773121160801401
265.752,0.36866323506603527,-0.36866323506603527
265.753,0.1999913982657906,-0.1999913982657906
265.754,0.007706201505408017,-0.007706201505408017
265.755,0.16741853899368908,0.16741853899368908
265.756,0.29115093057448926,0.29115093057448926
265.757,0.3445327320944589,0.3445327320944589
265.758,0.3278787726954109,0.3278787726954109
265.759,0.2590086113208139,0.2590086113208139
265.76,0.166497926385907,0.166497926385907
265.761,0.08026362656423847,0.08026362656423847
265.762,0.022538120895549962,0.022538120895549962
265.763,0.0020251918362539367,0.0020251918362539367
265.764,0.01287942646821505,0.01287942646821505
265.765,0.03851883036070447,0.03851883036070447
265.766,0.05871693250127907,0.05871693250127907
265.767,0.0574343775671613,0.0574343775671613
265.768,0.02873834922686469,0.02873834922686469
265.769,0.021082204114366454,-0.021082204114366454
265.77,0.07575702830225306,-0.07575702830225306
265.771,0.11472824042337892,-0.11472824042337892
265.772,0.12030781933176793,-0.12030781933176793
265.773,0.08392271099115178,-0.08392271099115178
265.774,0.009468541740311753,-0.009468541740311753
265.775,0.0872035458690199,0.0872035458690199
265.77599999999995,0.18239527534338684,0.18239527534338684
265.777,0.2509167314523646,0.2509167314523646
265.778,0.2727601200083709,0.2727601200083709
265.779,0.238214030832677,0.238214030832677
265.78,0.15014347054633737,0.15014347054633737
265.781,0.0230686179113333,0.0230686179113333
265.782,0.12042636594285616,-0.12042636594285616
265.783,0.25480217472191735,-0.25480217472191735
265.784,0.35683390642902224,-0.35683390642902224
265.785,0.40987836549557877,-0.40987836549557877
265.786,0.4064264784023397,-0.4064264784023397
265.787,0.3487406091421492,-0.3487406091421492
265.78799999999995,0.24778541248523733,-0.24778541248523733
265.789,0.12088508382486818,-0.12088508382486818
265.79,0.011404891747816892,0.011404891747816892
265.791,0.1287563154817022,0.1287563154817022
265.792,0.21443363540735438,0.21443363540735438
265.793,0.25812800364642086,0.25812800364642086
265.794,0.25778565765822337,0.25778565765822337
265.795,0.21997696534394917,0.21997696534394917
265.796,0.15851572002844128,0.15851572002844128
265.797,0.09137921312146191,0.09137921312146191
265.798,0.0364444935948256,0.0364444935948256
265.799,0.007003764748939156,0.007003764748939156
265.79999999999995,0.008269058726637413,0.008269058726637413
265.801,0.03597317998127858,0.03597317998127858
265.802,0.07767718704884885,0.07767718704884885
265.803,0.11660789070200694,0.11660789070200694
265.804,0.13700670812822224,0.13700670812822224
265.805,0.12936793462805785,0.12936793462805785
265.806,0.09382823850811106,0.09382823850811106
265.807,0.040441138604205173,0.040441138604205173
265.808,0.013971438279166692,-0.013971438279166692
265.809,0.05154332472305234,-0.05154332472305234
265.81,0.059854897754614056,-0.059854897754614056
265.811,0.036969826231209146,-0.036969826231209146
265.81199999999995,0.006872282409395858,0.006872282409395858
265.813,0.051781129578268414,0.051781129578268414
265.814,0.07443426345782966,0.07443426345782966
265.815,0.05614390247584278,0.05614390247584278
265.816,0.009851375110049299,-0.009851375110049299
265.817,0.11442552879516543,-0.11442552879516543
265.818,0.2335469583285893,-0.2335469583285893
265.819,0.33426957598788665,-0.33426957598788665
265.82,0.38414253783907415,-0.38414253783907415
265.821,0.3612343475078862,-0.3612343475078862
265.822,0.2616220952980224,-0.2616220952980224
265.823,0.10186850397225045,-0.10186850397225045
265.824,0.0844909104610041,0.0844909104610041
265.825,0.25557204544119894,0.25557204544119894
265.826,0.3723865063180243,0.3723865063180243
265.827,0.40937413832869307,0.40937413832869307
265.828,0.3611022897619136,0.3611022897619136
265.829,0.24320479383749105,0.24320479383749105
265.83,0.08742145730755335,0.08742145730755335
265.831,0.06760346116638738,-0.06760346116638738
265.832,0.1868771208667901,-0.1868771208667901
265.833,0.24780445687108055,-0.24780445687108055
265.834,0.24469379896165877,-0.24469379896165877
265.835,0.18805610699889297,-0.18805610699889297
265.836,0.09941969222598401,-0.09941969222598401
265.837,0.0037261054438079144,-0.0037261054438079144
265.838,0.07805333765289135,0.07805333765289135
265.839,0.13378341159542773,0.13378341159542773
265.84,0.1613014443763816,0.1613014443763816
265.841,0.16601988661870415,0.16601988661870415
265.842,0.15640879091806226,0.15640879091806226
265.843,0.1393832449245913,0.1393832449245913
265.844,0.11744399048956389,0.11744399048956389
265.845,0.08856567406018834,0.08856567406018834
265.846,0.048648124785369395,0.048648124785369395
265.847,0.004702229685703219,-0.004702229685703219
265.848,0.06882066016967836,-0.06882066016967836
265.849,0.13464343257769906,-0.13464343257769906
265.85,0.18815914276635026,-0.18815914276635026
265.851,0.2143250843290374,-0.2143250843290374
265.852,0.20212841685330596,-0.20212841685330596
265.853,0.14896650673191347,-0.14896650673191347
265.854,0.06269018352805478,-0.06269018352805478
265.855,0.039566471407060266,0.039566471407060266
265.856,0.13554275848134512,0.13554275848134512
265.857,0.20374048304180303,0.20374048304180303
265.858,0.2292061087166528,0.2292061087166528
265.859,0.20742002865383347,0.20742002865383347
265.86,0.14516314246580908,0.14516314246580908
265.861,0.05823942277925953,0.05823942277925953
265.862,0.03307143945120927,-0.03307143945120927
265.863,0.10931835633679399,-0.10931835633679399
265.864,0.1563420486854753,-0.1563420486854753
265.865,0.167753484270591,-0.167753484270591
265.866,0.145068809435831,-0.145068809435831
265.867,0.09594260705172852,-0.09594260705172852
265.868,0.0314624682328879,-0.0314624682328879
265.869,0.03645329229205729,0.03645329229205729
265.87,0.09685097456252434,0.09685097456252434
265.871,0.14058783695327226,0.14058783695327226
265.872,0.1605995202482109,0.1605995202482109
265.873,0.15218565548227447,0.15218565548227447
265.874,0.11375565428968493,0.11375565428968493
265.875,0.04802269582353014,0.04802269582353014
265.876,0.03688991653028251,-0.03688991653028251
265.877,0.12728264293016767,-0.12728264293016767
265.878,0.205413627216949,-0.205413627216949
265.879,0.2529583532567662,-0.2529583532567662
265.88,0.2558142407190116,-0.2558142407190116
265.881,0.20890647245986504,-0.20890647245986504
265.882,0.11927581158498768,-0.11927581158498768
265.883,0.0059713478214828974,-0.0059713478214828974
265.884,0.10385977148449443,0.10385977148449443
265.885,0.18203813468150343,0.18203813468150343
265.886,0.20770712680656978,0.20770712680656978
265.887,0.17438973593253393,0.17438973593253393
265.888,0.09326281760777078,0.09326281760777078
265.889,0.008849978533516989,-0.008849978533516989
265.89,0.09665479054488157,-0.09665479054488157
265.891,0.13689082508394956,-0.13689082508394956
265.892,0.1090560819102564,-0.1090560819102564
265.893,0.012930072087376732,-0.012930072087376732
265.894,0.12973566996624286,0.12973566996624286
265.895,0.28027123164726486,0.28027123164726486
265.896,0.3936824500718763,0.3936824500718763
265.897,0.43175254897097526,0.43175254897097526
265.898,0.37469432242465506,0.37469432242465506
265.899,0.22771644494157806,0.22771644494157806
265.9,0.020366925864196084,0.020366925864196084
265.90099999999995,0.20126531279747462,-0.20126531279747462
265.902,0.3871829003552971,-0.3871829003552971
265.903,0.49712800208114427,-0.49712800208114427
265.904,0.5111298904854094,-0.5111298904854094
265.905,0.43385169029622606,-0.43385169029622606
265.906,0.2916301187123298,-0.2916301187123298
265.907,0.12341734804210314,-0.12341734804210314
265.908,0.031289974010539456,0.031289974010539456
265.909,0.14362058211748852,0.14362058211748852
265.91,0.20215274777949488,0.20215274777949488
265.911,0.21352951822949984,0.21352951822949984
265.912,0.1971392818860196,0.1971392818860196
265.91299999999995,0.17609744591053444,0.17609744591053444
265.914,0.1678941280377657,0.1678941280377657
265.915,0.1780110713280585,0.1780110713280585
265.916,0.19861554424206496,0.19861554424206496
265.917,0.21255492517966146,0.21255492517966146
265.918,0.20097536444937658,0.20097536444937658
265.919,0.15163407674070495,0.15163407674070495
265.92,0.06479074371744264,0.06479074371744264
265.921,0.04550973437505479,-0.04550973437505479
265.922,0.15526188397242624,-0.15526188397242624
265.923,0.23808875203714186,-0.23808875203714186
265.924,0.2739109017078002,-0.2739109017078002
265.92499999999995,0.2556357118753483,-0.2556357118753483
265.926,0.1915182646308261,-0.1915182646308261
265.927,0.10237757753200705,-0.10237757753200705
265.928,0.014656408252541886,-0.014656408252541886
265.929,0.04824839077971532,0.04824839077971532
265.93,0.07338560132208993,0.07338560132208993
265.931,0.06186377022688827,0.06186377022688827
265.932,0.027520371767938867,0.027520371767938867
265.933,0.008771431414263842,-0.008771431414263842
265.934,0.027063748929181286,-0.027063748929181286
265.935,0.01571196919201756,-0.01571196919201756
265.936,0.024426783499674976,0.024426783499674976
265.93699999999995,0.08041058357785635,0.08041058357785635
265.938,0.13203279535225376,0.13203279535225376
265.939,0.15928158035448536,0.15928158035448536
265.94,0.14976194500167472,0.14976194500167472
265.941,0.10343967741400606,0.10343967741400606
265.942,0.033027206902534356,0.033027206902534356
265.943,0.040130371335151405,-0.040130371335151405
265.944,0.09323817921274236,-0.09323817921274236
265.945,0.1098123186377642,-0.1098123186377642
265.946,0.08534088656186856,-0.08534088656186856
265.947,0.028907236663971103,-0.028907236663971103
265.948,0.0397649749143314,0.0397649749143314
265.949,0.09682060491393685,0.09682060491393685
265.95,0.12211859791763269,0.12211859791763269
265.951,0.10577775146488633,0.10577775146488633
265.952,0.051267911286360324,0.051267911286360324
265.953,0.025908106943132725,-0.025908106943132725
265.954,0.1034022002097078,-0.1034022002097078
265.955,0.1592635786932397,-0.1592635786932397
265.956,0.1787913732008729,-0.1787913732008729
265.957,0.15876130460070725,-0.15876130460070725
265.958,0.1077424366028139,-0.1077424366028139
265.959,0.042569887995448585,-0.042569887995448585
265.96,0.01768147693708455,0.01768147693708455
265.961,0.05809754560656888,0.05809754560656888
265.962,0.07253871696053404,0.07253871696053404
265.963,0.06499752274870363,0.06499752274870363
265.964,0.04738850425259722,0.04738850425259722
265.965,0.03467439105629988,0.03467439105629988
265.966,0.03909492187558117,0.03909492187558117
265.967,0.06549881546184055,0.06549881546184055
265.968,0.10933406146087976,0.10933406146087976
265.969,0.15790611917370012,0.15790611917370012
265.97,0.1944064020330507,0.1944064020330507
265.971,0.20332068967970618,0.20332068967970618
265.972,0.1754339562602505,0.1754339562602505
265.973,0.11085763312249042,0.11085763312249042
265.974,0.019214113202626004,0.019214113202626004
265.975,0.08294185578424174,-0.08294185578424174
265.976,0.1765292611331487,-0.1765292611331487
265.977,0.24474522366015272,-0.24474522366015272
265.978,0.27684113011558253,-0.27684113011558253
265.979,0.2699012082286719,-0.2699012082286719
265.98,0.22837621512876616,-0.22837621512876616
265.981,0.16184841883712187,-0.16184841883712187
265.982,0.08198792976353575,-0.08198792976353575
265.983,0.00023385013811005884,0.00023385013811005884
265.984,0.07627678790346493,0.07627678790346493
265.985,0.14042413670890963,0.14042413670890963
265.986,0.18909371135043185,0.18909371135043185
265.987,0.21970810567676047,0.21970810567676047
265.988,0.22985346393954886,0.22985346393954886
265.989,0.21724403204015474,0.21724403204015474
265.99,0.18059551882668612,0.18059551882668612
265.991,0.12106232570900954,0.12106232570900954
265.992,0.043584543551765,0.043584543551765
265.993,0.04256408918711041,-0.04256408918711041
265.994,0.12451553518822922,-0.12451553518822922
265.995,0.187903588892251,-0.187903588892251
265.996,0.21991330984691804,-0.21991330984691804
265.997,0.21251287337052982,-0.21251287337052982
265.998,0.16495693374333742,-0.16495693374333742
265.999,0.08478437215637658,-0.08478437215637658
266.0,0.013098784509462558,0.013098784509462558
266.001,0.10916686421800104,0.10916686421800104
266.002,0.18328892393376583,0.18328892393376583
266.003,0.21911078039075216,0.21911078039075216
266.004,0.20779594681876068,0.20779594681876068
266.005,0.15025199333136863,0.15025199333136863
266.006,0.0573058018320709,0.0573058018320709
266.007,0.0522569669832208,-0.0522569669832208
266.008,0.15541070565552517,-0.15541070565552517
266.009,0.22961425811687708,-0.22961425811687708
266.01,0.25757154689918593,-0.25757154689918593
266.011,0.23103809624157146,-0.23103809624157146
266.012,0.15285846142964798,-0.15285846142964798
266.013,0.0367590393532502,-0.0367590393532502
266.014,0.0951352529133136,0.0951352529133136
266.015,0.21662312301337772,0.21662312301337772
266.016,0.3027470710748015,0.3027470710748015
266.017,0.33501950598494834,0.33501950598494834
266.018,0.3054299034034771,0.3054299034034771
266.019,0.21832091000879306,0.21832091000879306
266.02,0.08965402737323247,0.08965402737323247
266.021,0.05624369841898791,-0.05624369841898791
266.022,0.1917777127748762,-0.1917777127748762
266.023,0.29190248895555293,-0.29190248895555293
266.024,0.33933208438009055,-0.33933208438009055
266.025,0.3279416849973883,-0.3279416849973883
266.02599999999995,0.26358298779521583,-0.26358298779521583
266.027,0.16216733520883475,-0.16216733520883475
266.028,0.045545945374990016,-0.045545945374990016
266.029,0.06374315905413752,0.06374315905413752
266.03,0.14753379599048366,0.14753379599048366
266.031,0.1956624728567653,0.1956624728567653
266.032,0.20735620596624682,0.20735620596624682
266.033,0.1901833902568677,0.1901833902568677
266.034,0.1570211409324822,0.1570211409324822
266.035,0.12198509233310562,0.12198509233310562
266.036,0.09647477238509539,0.09647477238509539
266.037,0.08636651877097434,0.08636651877097434
266.03799999999995,0.0909910699097618,0.0909910699097618
266.039,0.10399563632263953,0.10399563632263953
266.04,0.11567432471314265,0.11567432471314265
266.041,0.11600091779481603,0.11600091779481603
266.042,0.09749687179616284,0.09749687179616284
266.043,0.057215471809721086,0.057215471809721086
266.044,0.002553569392163335,-0.002553569392163335
266.045,0.0748733954583849,-0.0748733954583849
266.046,0.14973620049361902,-0.14973620049361902
266.047,0.21613900435901,-0.21613900435901
266.048,0.2641547383059216,-0.2641547383059216
266.049,0.2866067712547523,-0.2866067712547523
266.04999999999995,0.28012802995967967,-0.28012802995967967
266.051,0.24554789940086985,-0.24554789940086985
266.052,0.18765505456323206,-0.18765505456323206
266.053,0.11442577622924965,-0.11442577622924965
266.054,0.035813289537412585,-0.035813289537412585
266.055,0.037793482690022584,0.037793482690022584
266.056,0.09728342008490021,0.09728342008490021
266.057,0.13646514821204736,0.13646514821204736
266.058,0.15330972490129247,0.15330972490129247
266.059,0.15044207848240676,0.15044207848240676
266.06,0.13461570033596382,0.13461570033596382
266.061,0.11511760510914737,0.11511760510914737
266.06199999999995,0.10135103011537105,0.10135103011537105
266.063,0.10014411225622122,0.10014411225622122
266.064,0.11352278026891405,0.11352278026891405
266.065,0.13767144546666432,0.13767144546666432
266.066,0.16354949657704387,0.16354949657704387
266.067,0.17918046191240133,0.17918046191240133
266.068,0.17310706759707917,0.17310706759707917
266.069,0.1380763470928681,0.1380763470928681
266.07,0.07384119131163458,0.07384119131163458
266.071,0.011872239852377953,-0.011872239852377953
266.072,0.10469482371379124,-0.10469482371379124
266.073,0.18702359268463875,-0.18702359268463875
266.074,0.2426195508147665,-0.2426195508147665
266.075,0.2610655838655106,-0.2610655838655106
266.076,0.24071220243574143,-0.24071220243574143
266.077,0.18913341032053543,-0.18913341032053543
266.078,0.12084904586671985,-0.12084904586671985
266.079,0.05292593404425128,-0.05292593404425128
266.08,0.00022353108886230544,0.00022353108886230544
266.081,0.031209007950147916,0.031209007950147916
266.082,0.04175553908245577,0.04175553908245577
266.083,0.04175541718759823,0.04175541718759823
266.084,0.04546820623144887,0.04546820623144887
266.085,0.06600271241148037,0.06600271241148037
266.086,0.10983978721255205,0.10983978721255205
266.087,0.17324315836996673,0.17324315836996673
266.088,0.24190240191381585,0.24190240191381585
266.089,0.29419040816967357,0.29419040816967357
266.09,0.30728200126590965,0.30728200126590965
266.091,0.26442217669593515,0.26442217669593515
266.092,0.16116053347576087,0.16116053347576087
266.093,0.008550222688956888,0.008550222688956888
266.094,0.16788566694321672,-0.16788566694321672
266.095,0.3334143402276134,-0.3334143402276134
266.096,0.45232561304784624,-0.45232561304784624
266.097,0.4969626252010878,-0.4969626252010878
266.098,0.45506998428410184,-0.45506998428410184
266.099,0.3333856619925073,-0.3333856619925073
266.1,0.15641498942886456,-0.15641498942886456
266.101,0.03934836200959424,0.03934836200959424
266.102,0.2142322040648843,0.2142322040648843
266.103,0.3348785566229324,0.3348785566229324
266.104,0.38191092956843775,0.38191092956843775
266.105,0.353809893270872,0.353809893270872
266.106,0.2661083704132594,0.2661083704132594
266.107,0.14631348280134682,0.14631348280134682
266.108,0.026102612594174124,0.026102612594174124
266.109,0.06698896914573216,-0.06698896914573216
266.11,0.1161436871664655,-0.1161436871664655
266.111,0.11844999200605588,-0.11844999200605588
266.112,0.08407460629457397,-0.08407460629457397
266.113,0.031930541794363054,-0.031930541794363054
266.114,0.016713458574783457,0.016713458574783457
266.115,0.044759068497442156,0.044759068497442156
266.116,0.044102487542588165,0.044102487542588165
266.117,0.017508225301412272,0.017508225301412272
266.118,0.022818660393628787,-0.022818660393628787
266.119,0.05937710803803553,-0.05937710803803553
266.12,0.0749320331531097,-0.0749320331531097
266.121,0.057880725727996296,-0.057880725727996296
266.122,0.005953173441671122,-0.005953173441671122
266.123,0.07269890713753435,0.07269890713753435
266.124,0.16123170769411965,0.16123170769411965
266.125,0.23812571397750415,0.23812571397750415
266.126,0.28240708080152443,0.28240708080152443
266.127,0.27875396855978907,0.27875396855978907
266.128,0.22127051160926015,0.22127051160926015
266.129,0.1150955765637891,0.1150955765637891
266.13,0.02444096110612992,-0.02444096110612992
266.131,0.17483835792235547,-0.17483835792235547
266.132,0.31089215390768077,-0.31089215390768077
266.133,0.40962051236175445,-0.40962051236175445
266.134,0.4546291834681627,-0.4546291834681627
266.135,0.4390678707547516,-0.4390678707547516
266.136,0.3666544071193647,-0.3666544071193647
266.137,0.25064284951379123,-0.25064284951379123
266.138,0.11101068153429339,-0.11101068153429339
266.139,0.029529222144530465,0.029529222144530465
266.14,0.1498770799991218,0.1498770799991218
266.141,0.23438603560718652,0.23438603560718652
266.142,0.2754356508633058,0.2754356508633058
266.143,0.2742433995182827,0.2742433995182827
266.144,0.23978797192621326,0.23978797192621326
266.145,0.18612610988268008,0.18612610988268008
266.146,0.12874527118379286,0.12874527118379286
266.147,0.08082176356789716,0.08082176356789716
266.148,0.05028355402089768,0.05028355402089768
266.149,0.03838638978193565,0.03838638978193565
266.15,0.04013384069978576,0.04013384069978576
266.15099999999995,0.04639292627967562,0.04639292627967562
266.152,0.04709982209486063,0.04709982209486063
266.153,0.03464223772425479,0.03464223772425479
266.154,0.006441694478443338,0.006441694478443338
266.155,0.0340283320715683,-0.0340283320715683
266.156,0.07811093090526333,-0.07811093090526333
266.157,0.1144915814770997,-0.1144915814770997
266.158,0.13264850991584332,-0.13264850991584332
266.159,0.1261933052141484,-0.1261933052141484
266.16,0.09506847367415461,-0.09506847367415461
266.161,0.04588518012062115,-0.04588518012062115
266.162,0.009766764568294839,0.009766764568294839
266.16299999999995,0.058582930388789256,0.058582930388789256
266.164,0.0894236696941153,0.0894236696941153
266.165,0.09662423366716788,0.09662423366716788
266.166,0.08168614404864294,0.08168614404864294
266.167,0.05276964843888954,0.05276964843888954
266.168,0.02207727164111528,0.02207727164111528
266.169,0.0018873826684047135,0.0018873826684047135
266.17,0.000453759837558243,0.000453759837558243
266.171,0.01907935838323538,0.01907935838323538
266.172,0.05135513324657648,0.05135513324657648
266.173,0.08491010208371197,0.08491010208371197
266.174,0.1052356062310511,0.1052356062310511
266.17499999999995,0.1004653430833462,0.1004653430833462
266.176,0.06563194318481447,0.06563194318481447
266.177,0.0050082871500094495,0.0050082871500094495
266.178,0.0683297069558978,-0.0683297069558978
266.179,0.13575751968637917,-0.13575751968637917
266.18,0.1783351237243498,-0.1783351237243498
266.181,0.1825201139904481,-0.1825201139904481
266.182,0.14463320919877276,-0.14463320919877276
266.183,0.0726399199533263,-0.0726399199533263
266.184,0.015442914471363922,0.015442914471363922
266.185,0.09621740153600378,0.09621740153600378
266.186,0.1474105506820229,0.1474105506820229
266.18699999999995,0.1543668571026484,0.1543668571026484
266.188,0.11460220067089955,0.11460220067089955
266.189,0.038991789363050255,0.038991789363050255
266.19,0.050892051922973525,-0.050892051922973525
266.191,0.1286557226555215,-0.1286557226555215
266.192,0.17056783911325812,-0.17056783911325812
266.193,0.16251948786152792,-0.16251948786152792
266.194,0.10441865973076714,-0.10441865973076714
266.195,0.010668225515969021,-0.010668225515969021
266.196,0.09351688663664715,0.09351688663664715
266.197,0.1789935690299982,0.1789935690299982
266.198,0.2208661512401695,0.2208661512401695
266.199,0.20563333409746898,0.20563333409746898
266.2,0.13524341127680684,0.13524341127680684
266.201,0.026855579780011407,0.026855579780011407
266.202,0.09167442208548726,-0.09167442208548726
266.203,0.18933886013154577,-0.18933886013154577
266.204,0.24043173495031767,-0.24043173495031767
266.205,0.2315250791321518,-0.2315250791321518
266.206,0.16500580381194307,-0.16500580381194307
266.207,0.058203280587152295,-0.058203280587152295
266.208,0.06159271873410277,0.06159271873410277
266.209,0.16474998921353423,0.16474998921353423
266.21,0.22733934116380672,0.22733934116380672
266.211,0.23731684351747684,0.23731684351747684
266.212,0.19714062007205824,0.19714062007205824
266.213,0.12219745434766005,0.12219745434766005
266.214,0.035654545262614246,0.035654545262614246
266.215,0.038617894330752245,-0.038617894330752245
266.216,0.08289224117696203,-0.08289224117696203
266.217,0.09018219664713778,-0.09018219664713778
266.218,0.06532991341197303,-0.06532991341197303
266.219,0.022430912906224232,-0.022430912906224232
266.22,0.020425012955149535,0.020425012955149535
266.221,0.047324187396317496,0.047324187396317496
266.222,0.04961805470248826,0.04961805470248826
266.223,0.02835042046169378,0.02835042046169378
266.224,0.00665472741937545,-0.00665472741937545
266.225,0.040624344170555715,-0.040624344170555715
266.226,0.05922631645732879,-0.05922631645732879
266.227,0.053676943615559636,-0.053676943615559636
266.228,0.023851695669674045,-0.023851695669674045
266.229,0.021626627348236394,0.021626627348236394
266.23,0.06832762289486438,0.06832762289486438
266.231,0.10096972130067883,0.10096972130067883
266.232,0.10870441677401121,0.10870441677401121
266.233,0.0889242502608707,0.0889242502608707
266.234,0.0482776264153959,0.0482776264153959
266.235,0.000504549377666752,0.000504549377666752
266.236,0.03822340980014416,-0.03822340980014416
266.237,0.05492175417669043,-0.05492175417669043
266.238,0.044480430361820145,-0.044480430361820145
266.239,0.01180177347975997,-0.01180177347975997
266.24,0.02941418757745562,0.02941418757745562
266.241,0.06094330967496675,0.06094330967496675
266.242,0.06605423511933717,0.06605423511933717
266.243,0.035343352228483615,0.035343352228483615
266.244,0.029529020342907053,-0.029529020342907053
266.245,0.11548525132472942,-0.11548525132472942
266.246,0.2012840077690915,-0.2012840077690915
266.247,0.26345645575327037,-0.26345645575327037
266.248,0.2831331933237683,-0.2831331933237683
266.249,0.25166506917350684,-0.25166506917350684
266.25,0.1732994638204184,-0.1732994638204184
266.251,0.06408281117430503,-0.06408281117430503
266.252,0.05266971253219466,0.05266971253219466
266.253,0.15293825046423493,0.15293825046423493
266.254,0.21858599719926963,0.21858599719926963
266.255,0.2419860340966331,0.2419860340966331
266.256,0.22734842163772462,0.22734842163772462
266.257,0.18846025232974362,0.18846025232974362
266.258,0.1436682195329957,0.1436682195329957
266.259,0.10976068810624628,0.10976068810624628
266.26,0.09669006307004335,0.09669006307004335
266.261,0.10474254624714407,0.10474254624714407
266.262,0.12493681480536512,0.12493681480536512
266.263,0.14239464601727025,0.14239464601727025
266.264,0.14151205706166392,0.14151205706166392
266.265,0.11125302963554651,0.11125302963554651
266.266,0.0489301060220253,0.0489301060220253
266.267,0.03861494660651199,-0.03861494660651199
266.268,0.13666417663239894,-0.13666417663239894
266.269,0.22647555725814617,-0.22647555725814617
266.27,0.29009115859684353,-0.29009115859684353
266.271,0.314682162989691,-0.314682162989691
266.272,0.2952858972379516,-0.2952858972379516
266.273,0.2353843896886133,-0.2353843896886133
266.274,0.1454636112338944,-0.1454636112338944
266.275,0.0402429392204906,-0.0402429392204906
266.27599999999995,0.06448720743576408,0.06448720743576408
266.277,0.1545751611925248,0.1545751611925248
266.278,0.21927034640563314,0.21927034640563314
266.279,0.25197977078473843,0.25197977078473843
266.28,0.25030261898176875,0.25030261898176875
266.281,0.21575295675188833,0.21575295675188833
266.282,0.1534712621189953,0.1534712621189953
266.283,0.0719661394045048,0.0719661394045048
266.284,0.017333133140608914,-0.017333133140608914
266.285,0.10104845129581208,-0.10104845129581208
266.286,0.16557623908359542,-0.16557623908359542
266.287,0.19948201100065843,-0.19948201100065843
266.28799999999995,0.1961017612453715,-0.1961017612453715
266.289,0.15559816493894796,-0.15559816493894796
266.29,0.08568104692461798,-0.08568104692461798
266.291,0.00047748624629107006,-0.00047748624629107006
266.292,0.08243039467842661,0.08243039467842661
266.293,0.1461617820454746,0.1461617820454746
266.294,0.17876624809103459,0.17876624809103459
266.295,0.17625458737300104,0.17625458737300104
266.296,0.14343580467239714,0.14343580467239714
266.297,0.09220711024376627,0.09220711024376627
266.298,0.03775628231315009,0.03775628231315009
266.299,0.006155551356848976,-0.006155551356848976
266.29999999999995,0.03131352507912488,-0.03131352507912488
266.301,0.037207896673729146,-0.037207896673729146
266.302,0.03049924534588977,-0.03049924534588977
266.303,0.021966110567947505,-0.021966110567947505
266.304,0.021992916779630223,-0.021992916779630223
266.305,0.036199556084958395,-0.036199556084958395
266.306,0.06281385493760705,-0.06281385493760705
266.307,0.0928219070341838,-0.0928219070341838
266.308,0.11297522201888421,-0.11297522201888421
266.309,0.11070867577946497,-0.11070867577946497
266.31,0.07928734429210482,-0.07928734429210482
266.311,0.021324105411734906,-0.021324105411734906
266.31199999999995,0.050721429496476844,0.050721429496476844
266.313,0.11747519585856692,0.11747519585856692
266.314,0.15825795775138163,0.15825795775138163
266.315,0.15765608528809238,0.15765608528809238
266.316,0.11092018428655726,0.11092018428655726
266.317,0.026344826529458132,0.026344826529458132
266.318,0.07629979536191711,-0.07629979536191711
266.319,0.17095608274292728,-0.17095608274292728
266.32,0.23257457216346222,-0.23257457216346222
266.321,0.24428961202355137,-0.24428961202355137
266.322,0.20224855193318325,-0.20224855193318325
266.323,0.11659276989652201,-0.11659276989652201
266.324,0.008305262710841976,-0.008305262710841976
266.325,0.0970511020272169,0.0970511020272169
266.326,0.17670898462903506,0.17670898462903506
266.327,0.21687434636710456,0.21687434636710456
266.328,0.21583442602418268,0.21583442602418268
266.329,0.18316410984602172,0.18316410984602172
266.33,0.1354877873166851,0.1354877873166851
266.331,0.09035937739902078,0.09035937739902078
266.332,0.06038073063015159,0.06038073063015159
266.333,0.0495127554884891,0.0495127554884891
266.334,0.05271550460280783,0.05271550460280783
266.335,0.058873349545386144,0.058873349545386144
266.336,0.05582723655348398,0.05582723655348398
266.337,0.03563331366448441,0.03563331366448441
266.338,0.0018717819400654312,-0.0018717819400654312
266.339,0.04849166317748388,-0.04849166317748388
266.34,0.09030156179016058,-0.09030156179016058
266.341,0.11257806740556253,-0.11257806740556253
266.342,0.10530006880428755,-0.10530006880428755
266.343,0.06727687470693666,-0.06727687470693666
266.344,0.007410203696009421,-0.007410203696009421
266.345,0.057442418300662546,0.057442418300662546
266.346,0.10739193801143765,0.10739193801143765
266.347,0.12567762520594972,0.12567762520594972
266.348,0.1040832429782863,0.1040832429782863
266.349,0.04585356514707151,0.04585356514707151
266.35,0.034851700834317545,-0.034851700834317545
266.351,0.11683267390359053,-0.11683267390359053
266.352,0.1778770681094599,-0.1778770681094599
266.353,0.20111043016150232,-0.20111043016150232
266.354,0.1797679913269632,-0.1797679913269632
266.355,0.11900592048155556,-0.11900592048155556
266.356,0.03429484790875048,-0.03429484790875048
266.357,0.05303268329226363,0.05303268329226363
266.358,0.1216974144363594,0.1216974144363594
266.359,0.15610926594955443,0.15610926594955443
266.36,0.15015901575538781,0.15015901575538781
266.361,0.1082260226171825,0.1082260226171825
266.362,0.04331754860878778,0.04331754860878778
266.363,0.026930448273255192,-0.026930448273255192
266.364,0.0851240768605106,-0.0851240768605106
266.365,0.11845906084507041,-0.11845906084507041
266.366,0.12142953488950547,-0.12142953488950547
266.367,0.09634673186803999,-0.09634673186803999
266.368,0.05177340827072341,-0.05177340827072341
266.369,0.00046621719267991857,0.00046621719267991857
266.37,0.04873283370429049,0.04873283370429049
266.371,0.08449782895789304,0.08449782895789304
266.372,0.10402606284791993,0.10402606284791993
266.373,0.10850811628186752,0.10850811628186752
266.374,0.10278045309338091,0.10278045309338091
266.375,0.0931319562544668,0.0931319562544668
266.376,0.08489240980367452,0.08489240980367452
266.377,0.08050600881645376,0.08050600881645376
266.378,0.07862962412661179,0.07862962412661179
266.379,0.07451178537438219,0.07451178537438219
266.38,0.06157107604862633,0.06157107604862633
266.381,0.033772969605901704,0.033772969605901704
266.382,0.011831133325547971,-0.011831133325547971
266.383,0.07313456673109098,-0.07313456673109098
266.384,0.1422289201439989,-0.1422289201439989
266.385,0.20627703808790276,-0.20627703808790276
266.386,0.25000564477803267,-0.25000564477803267
266.387,0.2593631994302569,-0.2593631994302569
266.388,0.22549141898041603,-0.22549141898041603
266.389,0.14794238615767663,-0.14794238615767663
266.39,0.036131588137559234,-0.036131588137559234
266.391,0.09162121912811183,0.09162121912811183
266.392,0.21150799379210672,0.21150799379210672
266.393,0.2994524610645677,0.2994524610645677
266.394,0.33689087099096326,0.33689087099096326
266.395,0.31558211204329734,0.31558211204329734
266.396,0.24005515101307395,0.24005515101307395
266.397,0.12687090387989608,0.12687090387989608
266.398,0.0007389845837861841,0.0007389845837861841
266.399,0.11155677491536975,-0.11155677491536975
266.4,0.1877889772371506,-0.1877889772371506
266.40099999999995,0.21561964926026767,-0.21561964926026767
266.402,0.19512194415609507,-0.19512194415609507
266.403,0.13779672372352192,-0.13779672372352192
266.404,0.062448482883187384,-0.062448482883187384
266.405,0.010750164973042597,0.010750164973042597
266.406,0.06612144216754734,0.06612144216754734
266.407,0.0964371414862053,0.0964371414862053
266.408,0.10377942270305263,0.10377942270305263
266.409,0.09716924465185639,0.09716924465185639
266.41,0.0879231923282775,0.0879231923282775
266.411,0.08447701733792412,0.08447701733792412
266.412,0.08859628055820945,0.08859628055820945
266.41299999999995,0.09440512931232048,0.09440512931232048
266.414,0.09065856863271837,0.09065856863271837
266.415,0.06550146500394227,0.06550146500394227
266.416,0.01201099017473295,0.01201099017473295
266.417,0.06754935771124937,-0.06754935771124937
266.418,0.1604762419150264,-0.1604762419150264
266.419,0.24609814554111342,-0.24609814554111342
266.42,0.3014065233283877,-0.3014065233283877
266.421,0.30812974218681144,-0.30812974218681144
266.422,0.25892997438187026,-0.25892997438187026
266.423,0.16057889846156237,-0.16057889846156237
266.424,0.032889722691151424,-0.032889722691151424
266.42499999999995,0.096442315445054,0.096442315445054
266.426,0.1995697101439271,0.1995697101439271
266.427,0.2563770333624047,0.2563770333624047
266.428,0.26000187008896924,0.26000187008896924
266.429,0.21821630300011652,0.21821630300011652
266.43,0.1502424036294514,0.1502424036294514
266.431,0.08008272779765613,0.08008272779765613
266.432,0.028601589372852176,0.028601589372852176
266.433,0.006998126195752574,0.006998126195752574
266.434,0.013823719018681846,0.013823719018681846
266.435,0.0364756269326334,0.0364756269326334
266.436,0.05656052470996076,0.05656052470996076
266.43699999999995,0.05719327128373619,0.05719327128373619
266.438,0.029636182909142494,0.029636182909142494
266.439,0.023077310955598063,-0.023077310955598063
266.44,0.08683281072795512,-0.08683281072795512
266.441,0.14122351190262727,-0.14122351190262727
266.442,0.16677647074005608,-0.16677647074005608
266.443,0.15208185551955467,-0.15208185551955467
266.444,0.09829543968358467,-0.09829543968358467
266.445,0.019372640969217647,-0.019372640969217647
266.446,0.06213900151664031,0.06213900151664031
266.447,0.1223787222546533,0.1223787222546533
266.448,0.14406927456862229,0.14406927456862229
266.449,0.12233294271574269,0.12233294271574269
266.45,0.06641168120720731,0.06641168120720731
266.451,0.0033419289235101513,-0.0033419289235101513
266.452,0.06222791767208158,-0.06222791767208158
266.453,0.0894579454711878,-0.0894579454711878
266.454,0.07513392208050795,-0.07513392208050795
266.455,0.023596247817278093,-0.023596247817278093
266.456,0.04798349986665462,0.04798349986665462
266.457,0.11528588806344842,0.11528588806344842
266.458,0.15488631767154182,0.15488631767154182
266.459,0.15195913147426898,0.15195913147426898
266.46,0.105081389959778,0.105081389959778
266.461,0.026575194142068215,0.026575194142068215
266.462,0.06165507360838407,-0.06165507360838407
266.463,0.1353207092172497,-0.1353207092172497
266.464,0.17551685496684544,-0.17551685496684544
266.465,0.17445126772573738,-0.17445126772573738
266.466,0.13726801980302517,-0.13726801980302517
266.467,0.07946719138934755,-0.07946719138934755
266.468,0.02093589401024587,-0.02093589401024587
266.469,0.02125190531324872,0.02125190531324872
266.47,0.038725280481977764,0.038725280481977764
266.471,0.03435060351763597,0.03435060351763597
266.472,0.020560742570142843,0.020560742570142843
266.473,0.01410826373296481,0.01410826373296481
266.474,0.02912368089085504,0.02912368089085504
266.475,0.07095880993937609,0.07095880993937609
266.476,0.13304113528462658,0.13304113528462658
266.477,0.19794865466405298,0.19794865466405298
266.478,0.24248320109499577,0.24248320109499577
266.479,0.2451569376885221,0.2451569376885221
266.48,0.19366675573811531,0.19366675573811531
266.481,0.0898904941132701,0.0898904941132701
266.482,0.04929463104203424,-0.04929463104203424
266.483,0.19575419308826214,-0.19575419308826214
266.484,0.3173468232619876,-0.3173468232619876
266.485,0.38653771706759843,-0.38653771706759843
266.486,0.38782148784634796,-0.38782148784634796
266.487,0.3217880040049851,-0.3217880040049851
266.488,0.2047063639634683,-0.2047063639634683
266.489,0.06385450509871016,-0.06385450509871016
266.49,0.06994139373485186,0.06994139373485186
266.491,0.17034406759870735,0.17034406759870735
266.492,0.2218457583819875,0.2218457583819875
266.493,0.22275009508837984,0.22275009508837984
266.494,0.18419223536998297,0.18419223536998297
266.495,0.12575855981388528,0.12575855981388528
266.496,0.06918692283320227,0.06918692283320227
266.497,0.03205400911911083,0.03205400911911083
266.498,0.023205420872647098,0.023205420872647098
266.499,0.041051105246716846,0.041051105246716846
266.5,0.07495906243321748,0.07495906243321748
266.501,0.10910977737379302,0.10910977737379302
266.502,0.12756205033798662,0.12756205033798662
266.503,0.11906618173706973,0.11906618173706973
266.504,0.08035385294045372,0.08035385294045372
266.505,0.017134728434935687,0.017134728434935687
266.506,0.05732929869035408,-0.05732929869035408
266.507,0.12559692364520547,-0.12559692364520547
266.508,0.17046231984128057,-0.17046231984128057
266.509,0.17932475874161735,-0.17932475874161735
266.51,0.1474953284587065,-0.1474953284587065
266.511,0.07969776323778044,-0.07969776323778044
266.512,0.010575265489692676,0.010575265489692676
266.513,0.10373736934645494,0.10373736934645494
266.514,0.1782801777495382,0.1782801777495382
266.515,0.21558175425658654,0.21558175425658654
266.516,0.20432077277401572,0.20432077277401572
266.517,0.1434899791562274,0.1434899791562274
266.518,0.04323965460677459,0.04323965460677459
266.519,0.07678885814969105,-0.07678885814969105
266.52,0.19142615176285527,-0.19142615176285527
266.521,0.2754571477768558,-0.2754571477768558
266.522,0.3094116285835006,-0.3094116285835006
266.523,0.28427821850812607,-0.28427821850812607
266.524,0.20392462300712833,-0.20392462300712833
266.525,0.08450993764949921,-0.08450993764949921
266.52599999999995,0.04909063686126869,0.04909063686126869
266.527,0.1690469945966413,0.1690469945966413
266.528,0.2511094768107789,0.2511094768107789
266.529,0.2802546925420706,0.2802546925420706
266.53,0.25397848320016303,0.25397848320016303
266.531,0.18238941860463553,0.18238941860463553
266.532,0.08512531702547843,0.08512531702547843
266.533,0.014011344639295209,-0.014011344639295209
266.534,0.09318397171396331,-0.09318397171396331
266.535,0.13772542882742556,-0.13772542882742556
266.536,0.14304048902777444,-0.14304048902777444
266.537,0.11455004807646108,-0.11455004807646108
266.53799999999995,0.06491260397766041,-0.06491260397766041
266.539,0.009549209194109842,-0.009549209194109842
266.54,0.03805638439160486,0.03805638439160486
266.541,0.06984092546549214,0.06984092546549214
266.542,0.0844687094203429,0.0844687094203429
266.543,0.08626702324146751,0.08626702324146751
266.544,0.08238283944669123,0.08238283944669123
266.545,0.07930649967154313,0.07930649967154313
266.546,0.08005050221569543,0.08005050221569543
266.547,0.08296992545792903,0.08296992545792903
266.548,0.08258240717593357,0.08258240717593357
266.549,0.07201491641663571,0.07201491641663571
266.54999999999995,0.046126296101600905,0.046126296101600905
266.551,0.0041252887553500095,0.0041252887553500095
266.552,0.0493042503206883,-0.0493042503206883
266.553,0.10482076093838699,-0.10482076093838699
266.554,0.1509433997387054,-0.1509433997387054
266.555,0.17742908635489807,-0.17742908635489807
266.556,0.1783640821715302,-0.1783640821715302
266.557,0.15392495413229812,-0.15392495413229812
266.558,0.11022432244970481,-0.11022432244970481
266.559,0.05731477737849844,-0.05731477737849844
266.56,0.006049196097984821,-0.006049196097984821
266.561,0.03512864261860971,0.03512864261860971
266.56199999999995,0.0623894427962266,0.0623894427962266
266.563,0.07701667678540303,0.07701667678540303
266.564,0.08410178890412201,0.08410178890412201
266.565,0.08996982801522568,0.08996982801522568
266.566,0.09930193120299946,0.09930193120299946
266.567,0.11300964391270485,0.11300964391270485
266.568,0.12763397847113045,0.12763397847113045
266.569,0.1364920128618774,0.1364920128618774
266.57,0.13216997512082296,0.13216997512082296
266.571,0.1094815712735071,0.1094815712735071
266.572,0.06783892875388053,0.06783892875388053
266.573,0.012177528391125403,0.012177528391125403
266.574,0.04793400619203958,-0.04793400619203958
266.575,0.10075383950843964,-0.10075383950843964
266.576,0.13562242864398744,-0.13562242864398744
266.577,0.14597495416603545,-0.14597495416603545
266.578,0.13115721577700856,-0.13115721577700856
266.579,0.09649152611582545,-0.09649152611582545
266.58,0.05161311745110697,-0.05161311745110697
266.581,0.007649134781760214,-0.007649134781760214
266.582,0.025842308989002527,0.025842308989002527
266.583,0.04322504060788046,0.04322504060788046
266.584,0.04376478633907577,0.04376478633907577
266.585,0.03106002677427111,0.03106002677427111
266.586,0.01126766893637332,0.01126766893637332
266.587,0.009160086811712986,-0.009160086811712986
266.588,0.025408135564671586,-0.025408135564671586
266.589,0.035270533922201364,-0.035270533922201364
266.59,0.03893622723938972,-0.03893622723938972
266.591,0.03782707568196597,-0.03782707568196597
266.592,0.03308234850789715,-0.03308234850789715
266.593,0.024402706831713417,-0.024402706831713417
266.594,0.009808405241305995,-0.009808405241305995
266.595,0.013509014818134046,0.013509014818134046
266.596,0.04751647221057187,0.04751647221057187
266.597,0.09149082173351131,0.09149082173351131
266.598,0.1407712981727096,0.1407712981727096
266.599,0.18674583041525894,0.18674583041525894
266.6,0.21831360511351305,0.21831360511351305
266.601,0.22455947912055096,0.22455947912055096
266.602,0.1979244941455598,0.1979244941455598
266.603,0.13691810744056587,0.13691810744056587
266.604,0.04748110411710882,0.04748110411710882
266.605,0.05753608508243957,-0.05753608508243957
266.606,0.16077311935504268,-0.16077311935504268
266.607,0.24407193291558782,-0.24407193291558782
266.608,0.29253577974954614,-0.29253577974954614
266.609,0.2978551336762627,-0.2978551336762627
266.61,0.2600274544335215,-0.2600274544335215
266.611,0.18706046939987142,-0.18706046939987142
266.612,0.09282148108437249,-0.09282148108437249
266.613,0.006299132681890196,0.006299132681890196
266.614,0.09495581833583322,0.09495581833583322
266.615,0.16170479636798185,0.16170479636798185
266.616,0.20050014209047706,0.20050014209047706
266.617,0.21064553529628038,0.21064553529628038
266.618,0.1955008850646387,0.1955008850646387
266.619,0.1605855419782629,0.1605855419782629
266.62,0.11181846516718341,0.11181846516718341
266.621,0.05447227103014041,0.05447227103014041
266.622,0.0069364717375319795,-0.0069364717375319795
266.623,0.06800985094987821,-0.06800985094987821
266.624,0.12359117296144484,-0.12359117296144484
266.625,0.1672636076452838,-0.1672636076452838
266.626,0.19170087481769083,-0.19170087481769083
266.627,0.19000476634676888,-0.19000476634676888
266.628,0.15774290202486363,-0.15774290202486363
266.629,0.09505083894243782,-0.09505083894243782
266.63,0.008017397531554948,-0.008017397531554948
266.631,0.09130351629671374,0.09130351629671374
266.632,0.1865420274762688,0.1865420274762688
266.633,0.26010514539750096,0.26010514539750096
266.634,0.2970162296629406,0.2970162296629406
266.635,0.2885076281717516,0.2885076281717516
266.636,0.23436564934138948,0.23436564934138948
266.637,0.1433243587830335,0.1433243587830335
266.638,0.031325699532165796,0.031325699532165796
266.639,0.08194578021475685,-0.08194578021475685
266.64,0.17736355603613718,-0.17736355603613718
266.641,0.240379473703612,-0.240379473703612
266.642,0.26374717569115613,-0.26374717569115613
266.643,0.24832334393112865,-0.24832334393112865
266.644,0.2018825141517948,-0.2018825141517948
266.645,0.13643792579806202,-0.13643792579806202
266.646,0.06494374837045414,-0.06494374837045414
266.647,0.0016480253267046052,0.0016480253267046052
266.648,0.05620764390044042,0.05620764390044042
266.649,0.09578464049022206,0.09578464049022206
266.65,0.12066471040949422,0.12066471040949422
266.65099999999995,0.1326981185293592,0.1326981185293592
266.652,0.13365445911771334,0.13365445911771334
266.653,0.12426430000103528,0.12426430000103528
266.654,0.10428086854140495,0.10428086854140495
266.655,0.07345833059144313,0.07345833059144313
266.656,0.03295730347238246,0.03295730347238246
266.657,0.013506568695212717,-0.013506568695212717
266.658,0.05938682233063031,-0.05938682233063031
266.659,0.09620919198302458,-0.09620919198302458
266.66,0.11551650686629211,-0.11551650686629211
266.661,0.1113003410945772,-0.1113003410945772
266.662,0.08212355471999933,-0.08212355471999933
266.66299999999995,0.03216837125140104,-0.03216837125140104
266.664,0.029252754659213176,0.029252754659213176
266.665,0.08970594071024585,0.08970594071024585
266.666,0.13664789145541478,0.13664789145541478
266.667,0.1605771559769451,0.1605771559769451
266.668,0.15738717853222317,0.15738717853222317
266.669,0.12921618687067138,0.12921618687067138
266.67,0.08355589274923192,0.08355589274923192
266.671,0.03092981249988047,0.03092981249988047
266.672,0.01810004395869047,-0.01810004395869047
266.673,0.055643382452940204,-0.055643382452940204
266.674,0.07807713524604432,-0.07807713524604432
266.67499999999995,0.08609595655203417,-0.08609595655203417
266.676,0.08333016831487694,-0.08333016831487694
266.677,0.07414113517504939,-0.07414113517504939
266.678,0.06148292783511855,-0.06148292783511855
266.679,0.04567945192603273,-0.04567945192603273
266.68,0.024617345581710026,-0.024617345581710026
266.681,0.004685488957064887,0.004685488957064887
266.682,0.04372025454982387,0.04372025454982387
266.683,0.09027498912827592,0.09027498912827592
266.684,0.1373372070739276,0.1373372070739276
266.685,0.17375693586484586,0.17375693586484586
266.686,0.18673644243812149,0.18673644243812149
266.68699999999995,0.16556281866506795,0.16556281866506795
266.688,0.10549685672289333,0.10549685672289333
266.689,0.010554477246661254,0.010554477246661254
266.69,0.105857160672991,-0.105857160672991
266.691,0.22290963643278805,-0.22290963643278805
266.692,0.31662939335244633,-0.31662939335244633
266.693,0.3654677075585864,-0.3654677075585864
266.694,0.35571129329050843,-0.35571129329050843
266.695,0.2852540969178161,-0.2852540969178161
266.696,0.16465648214698603,-0.16465648214698603
266.697,0.015140687298237476,-0.015140687298237476
266.698,0.13600018754536314,0.13600018754536314
266.699,0.26141042930462954,0.26141042930462954
266.7,0.3395707231442706,0.3395707231442706
266.701,0.3591339166069707,0.3591339166069707
266.702,0.3207111234061193,0.3207111234061193
266.703,0.23583503926711313,0.23583503926711313
266.704,0.12357162869992089,0.12357162869992089
266.705,0.005814434924972911,0.005814434924972911
266.706,0.09746821915823667,-0.09746821915823667
266.707,0.1718935228590951,-0.1718935228590951
266.708,0.2105182094699105,-0.2105182094699105
266.709,0.21374118736842362,-0.21374118736842362
266.71,0.18764074455765656,-0.18764074455765656
266.711,0.14147583901219374,-0.14147583901219374
266.712,0.08516082869152941,-0.08516082869152941
266.713,0.027353497221513146,-0.027353497221513146
266.714,0.02553183867846176,0.02553183867846176
266.715,0.06943147442093456,0.06943147442093456
266.716,0.10216983320063289,0.10216983320063289
266.717,0.12283634932909404,0.12283634932909404
266.718,0.13133760751867296,0.13133760751867296
266.719,0.1282714833815417,0.1282714833815417
266.72,0.11505621621017847,0.11505621621017847
266.721,0.09409880580563312,0.09409880580563312
266.722,0.06875917932180897,0.06875917932180897
266.723,0.04296193578462382,0.04296193578462382
266.724,0.020478976756834077,0.020478976756834077
266.725,0.004078066161774085,0.004078066161774085
266.726,0.005169531626541102,-0.005169531626541102
266.727,0.008147932461415208,-0.008147932461415208
266.728,0.007379861039099711,-0.007379861039099711
266.729,0.006189902043539863,-0.006189902043539863
266.73,0.007593243221720392,-0.007593243221720392
266.731,0.013265598948982604,-0.013265598948982604
266.732,0.022937884934534525,-0.022937884934534525
266.733,0.03442637204093568,-0.03442637204093568
266.734,0.04430064046407112,-0.04430064046407112
266.735,0.04897981405433016,-0.04897981405433016
266.736,0.04590538337498962,-0.04590538337498962
266.737,0.03441464532805283,-0.03441464532805283
266.738,0.0160392308603986,-0.0160392308603986
266.739,0.005857715330791269,0.005857715330791269
266.74,0.026979810477604227,0.026979810477604227
266.741,0.043241029592959945,0.043241029592959945
266.742,0.05180084194268164,0.05180084194268164
266.743,0.05169047264301363,0.05169047264301363
266.744,0.04387647338400402,0.04387647338400402
266.745,0.03079369563410972,0.03079369563410972
266.746,0.015540929565033945,0.015540929565033945
266.747,0.0010172867629003601,0.0010172867629003601
266.748,0.010736269557733102,-0.010736269557733102
266.749,0.0188248486674486,-0.0188248486674486
266.75,0.023394403509046646,-0.023394403509046646
266.751,0.025243891344249425,-0.025243891344249425
266.752,0.025343291270897517,-0.025343291270897517
266.753,0.024446622813126373,-0.024446622813126373
266.754,0.022920352239438335,-0.022920352239438335
266.755,0.02080211026065193,-0.02080211026065193
266.756,0.01800637673185468,-0.01800637673185468
266.757,0.014540696770311112,-0.014540696770311112
266.758,0.010606148594953235,-0.010606148594953235
266.759,0.0065214720516063585,-0.0065214720516063585
266.76,0.002502060488047575,-0.002502060488047575
266.761,0.0015961217586657472,0.0015961217586657472
266.762,0.006425030337764204,0.006425030337764204
266.763,0.013071295914292014,0.013071295914292014
266.764,0.022727679480968543,0.022727679480968543
266.765,0.03617889834585508,0.03617889834585508
266.766,0.05325873080722188,0.05325873080722188
266.767,0.07247296350882104,0.07247296350882104
266.768,0.09095450154984674,0.09095450154984674
266.769,0.1048294904444591,0.1048294904444591
266.77,0.1099536592406134,0.1099536592406134
266.771,0.10286403743679595,0.10286403743679595
266.772,0.08171814698838253,0.08171814698838253
266.773,0.046982237551473016,0.046982237551473016
266.774,0.0016835780993667004,0.0016835780993667004
266.775,0.04885828144902482,-0.04885828144902482
266.77599999999995,0.09778919955884635,-0.09778919955884635
266.777,0.1378310606477452,-0.1378310606477452
266.778,0.16254098026522323,-0.16254098026522323
266.779,0.16749129748976044,-0.16749129748976044
266.78,0.15116050854586804,-0.15116050854586804
266.781,0.1153735311068328,-0.1153735311068328
266.782,0.06519598547517835,-0.06519598547517835
266.783,0.008263119189520163,-0.008263119189520163
266.784,0.046394132806331756,0.046394132806331756
266.785,0.08987796966557693,0.08987796966557693
266.786,0.11507663532747503,0.11507663532747503
266.787,0.11814498844794197,0.11814498844794197
266.78799999999995,0.09949025004167278,0.09949025004167278
266.789,0.06397819170732078,0.06397819170732078
266.79,0.02019189923910414,0.02019189923910414
266.791,0.021233627776537478,-0.021233627776537478
266.792,0.049944280629633964,-0.049944280629633964
266.793,0.0583911722421433,-0.0583911722421433
266.794,0.04393482410476235,-0.04393482410476235
266.795,0.009925352226440087,-0.009925352226440087
266.796,0.03466509943546048,0.03466509943546048
266.797,0.07714879513018635,0.07714879513018635
266.798,0.10424533971551031,0.10424533971551031
266.799,0.10571430995462427,0.10571430995462427
266.79999999999995,0.07755466418213275,0.07755466418213275
266.801,0.02383202935548967,0.02383202935548967
266.802,0.04352961523161791,-0.04352961523161791
266.803,0.10715593979272775,-0.10715593979272775
266.804,0.14839184830434837,-0.14839184830434837
266.805,0.15225548584277604,-0.15225548584277604
266.806,0.1118878145323502,-0.1118878145323502
266.807,0.031236523141881634,-0.031236523141881634
266.808,0.07489933109304214,0.07489933109304214
266.809,0.18367438335959596,0.18367438335959596
266.81,0.26929555080157286,0.26929555080157286
266.811,0.30920173908718884,0.30920173908718884
266.81199999999995,0.2897601945963666,0.2897601945963666
266.813,0.20998170353396706,0.20998170353396706
266.814,0.08223942777913562,0.08223942777913562
266.815,0.0702495605549468,-0.0702495605549468
266.816,0.21856783709855665,-0.21856783709855665
266.817,0.33456243983036293,-0.33456243983036293
266.818,0.3969938029339767,-0.3969938029339767
266.819,0.3958503831738751,-0.3958503831738751
266.82,0.3338427727577693,-0.3338427727577693
266.821,0.22487721451204334,-0.22487721451204334
266.822,0.09011615852214527,-0.09011615852214527
266.823,0.04717114777482889,0.04717114777482889
266.824,0.1665462536788096,0.1665462536788096
266.825,0.25390839190334313,0.25390839190334313
266.826,0.30289095677136424,0.30289095677136424
266.827,0.31415753884420794,0.31415753884420794
266.828,0.293223090828052,0.293223090828052
266.829,0.24777736319988386,0.24777736319988386
266.83,0.1854805838095943,0.1854805838095943
266.831,0.11286445118063515,0.11286445118063515
266.832,0.03544426445240756,0.03544426445240756
266.833,0.041369981145662926,-0.041369981145662926
266.834,0.11129473918548638,-0.11129473918548638
266.835,0.1668638607552927,-0.1668638607552927
266.836,0.20022235523678922,-0.20022235523678922
266.837,0.20495694811717824,-0.20495694811717824
266.838,0.17839396653752493,-0.17839396653752493
266.839,0.12348333276351642,-0.12348333276351642
266.84,0.049398912850973864,-0.049398912850973864
266.841,0.029662237217480847,0.029662237217480847
266.842,0.09741253311819387,0.09741253311819387
266.843,0.13944539303279635,0.13944539303279635
266.844,0.1471130369969691,0.1471130369969691
266.845,0.12009129965710885,0.12009129965710885
266.846,0.0667328371993956,0.0667328371993956
266.847,0.0019542762334756603,0.0019542762334756603
266.848,0.056828360378134435,-0.056828360378134435
266.849,0.09455889040716325,-0.09455889040716325
266.85,0.10274034926667341,-0.10274034926667341
266.851,0.0816802309271728,-0.0816802309271728
266.852,0.040069492835541065,-0.040069492835541065
266.853,0.007989375110297736,0.007989375110297736
266.854,0.047580098867996856,0.047580098867996856
266.855,0.06774271140247023,0.06774271140247023
266.856,0.06489324350180392,0.06489324350180392
266.857,0.04379100126383717,0.04379100126383717
266.858,0.015733442317942936,0.015733442317942936
266.859,0.005446625057602628,-0.005446625057602628
266.86,0.008288037809172422,-0.008288037809172422
266.861,0.012089162643152074,0.012089162643152074
266.862,0.05186729884398256,0.05186729884398256
266.863,0.09924581891315976,0.09924581891315976
266.864,0.13782484723024768,0.13782484723024768
266.865,0.1516396846766197,0.1516396846766197
266.866,0.1302916864475996,0.1302916864475996
266.867,0.07257391923679446,0.07257391923679446
266.868,0.012553671798775978,-0.012553671798775978
266.869,0.10797210532899026,-0.10797210532899026
266.87,0.19281623110050528,-0.19281623110050528
266.871,0.24799240915228038,-0.24799240915228038
266.872,0.26118833107377304,-0.26118833107377304
266.873,0.2299472664529182,-0.2299472664529182
266.874,0.16199051415503585,-0.16199051415503585
266.875,0.07280753079281077,-0.07280753079281077
266.876,0.01867218987042607,0.01867218987042607
266.877,0.09499960749666636,0.09499960749666636
266.878,0.1443064829551004,0.1443064829551004
266.879,0.1625139724599356,0.1625139724599356
266.88,0.1532149035884105,0.1532149035884105
266.881,0.1255123363146433,0.1255123363146433
266.882,0.09066755370656532,0.09066755370656532
266.883,0.05867026770049888,0.05867026770049888
266.884,0.03573919771667278,0.03573919771667278
266.885,0.023358914043109635,0.023358914043109635
266.886,0.018914677546820746,0.018914677546820746
266.887,0.01748779306457182,0.01748779306457182
266.888,0.014073767587660768,0.014073767587660768
266.889,0.0054577335156580364,0.0054577335156580364
266.89,0.008797794796372438,-0.008797794796372438
266.891,0.026432314753077946,-0.026432314753077946
266.892,0.043442962306848965,-0.043442962306848965
266.893,0.055474448272162635,-0.055474448272162635
266.894,0.059137174292949735,-0.059137174292949735
266.895,0.05286330096324099,-0.05286330096324099
266.896,0.037136933016606366,-0.037136933016606366
266.897,0.014171899049307268,-0.014171899049307268
266.898,0.012729968836855399,0.012729968836855399
266.899,0.03987113118234831,0.03987113118234831
266.9,0.06370934586382493,0.06370934586382493
266.90099999999995,0.08121014367824086,0.08121014367824086
266.902,0.09006310297165432,0.09006310297165432
266.903,0.08887195481001808,0.08887195481001808
266.904,0.07738755291734756,0.07738755291734756
266.905,0.056751796916467034,0.056751796916467034
266.906,0.02961939780705314,0.02961939780705314
266.907,1.4749518449819199e-05,-1.4749518449819199e-05
266.908,0.02739665199467678,-0.02739665199467678
266.909,0.04797162270075517,-0.04797162270075517
266.91,0.05851116571135051,-0.05851116571135051
266.911,0.05806721624071487,-0.05806721624071487
266.912,0.048394420617550615,-0.048394420617550615
266.91299999999995,0.03360545693432715,-0.03360545693432715
266.914,0.01906292807800347,-0.01906292807800347
266.915,0.009785035726848856,-0.009785035726848856
266.916,0.008848515871934248,-0.008848515871934248
266.917,0.01632416500987599,-0.01632416500987599
266.918,0.029142101036785273,-0.029142101036785273
266.919,0.04198978100452111,-0.04198978100452111
266.92,0.04899193879807806,-0.04899193879807806
266.921,0.04563412681820267,-0.04563412681820267
266.922,0.03028064345040482,-0.03028064345040482
266.923,0.004754864917440815,-0.004754864917440815
266.924,0.026234802346855934,0.026234802346855934
266.92499999999995,0.05663251048951645,0.05663251048951645
266.926,0.08099101338495163,0.08099101338495163
266.927,0.09613409994686206,0.09613409994686206
266.928,0.10190505031359809,0.10190505031359809
266.929,0.10070997614720123,0.10070997614720123
266.93,0.09602071615475194,0.09602071615475194
266.931,0.09041979154440671,0.09041979154440671
266.932,0.08398961595993537,0.08398961595993537
266.933,0.07377347127972267,0.07377347127972267
266.934,0.05467374329109709,0.05467374329109709
266.935,0.021617576648033543,0.021617576648033543
266.936,0.02770261557558562,-0.02770261557558562
266.93699999999995,0.09052173495225535,-0.09052173495225535
266.938,0.15810994823569602,-0.15810994823569602
266.939,0.2168907138118703,-0.2168907138118703
266.94,0.2515207190825177,-0.2515207190825177
266.941,0.24918972234886272,-0.24918972234886272
266.942,0.20389007118950442,-0.20389007118950442
266.943,0.11927186443419924,-0.11927186443419924
266.944,0.009013921069263686,-0.009013921069263686
266.945,0.10566977450965442,0.10566977450965442
266.946,0.20090534373805968,0.20090534373805968
266.947,0.25616565193331,0.25616565193331
266.948,0.25973655899300074,0.25973655899300074
266.949,0.21204482620860832,0.21204482620860832
266.95,0.1258146429399538,0.1258146429399538
266.951,0.022915803945718682,0.022915803945718682
266.952,0.07127417476965658,-0.07127417476965658
266.953,0.13444164304407502,-0.13444164304407502
266.954,0.1530133645680547,-0.1530133645680547
266.955,0.12537209207640654,-0.12537209207640654
266.956,0.061766808382180405,-0.061766808382180405
266.957,0.01896695585693653,0.01896695585693653
266.958,0.09485415488555704,0.09485415488555704
266.959,0.14678737918388096,0.14678737918388096
266.96,0.16339064313755136,0.16339064313755136
266.961,0.14344167222553073,0.14344167222553073
266.962,0.09532221321426038,0.09532221321426038
266.963,0.03385193918267859,0.03385193918267859
266.964,0.02440380471748993,-0.02440380471748993
266.965,0.06589059480092363,-0.06589059480092363
266.966,0.0835069178102249,-0.0835069178102249
266.967,0.07783878266786126,-0.07783878266786126
266.968,0.056013153398066784,-0.056013153398066784
266.969,0.028717266895569415,-0.028717266895569415
266.97,0.006436660854747811,-0.006436660854747811
266.971,0.0038821274498686,0.0038821274498686
266.972,0.0007589162354397772,0.0007589162354397772
266.973,0.011787091904244651,-0.011787091904244651
266.974,0.025973480337857957,-0.025973480337857957
266.975,0.03310820173679008,-0.03310820173679008
266.976,0.026616534370356715,-0.026616534370356715
266.977,0.0043084485019929675,-0.0043084485019929675
266.978,0.030759760717157025,0.030759760717157025
266.979,0.07102051624003525,0.07102051624003525
266.98,0.10644174587342659,0.10644174587342659
266.981,0.1272441515655518,0.1272441515655518
266.982,0.12650285394663752,0.12650285394663752
266.983,0.10193552279037799,0.10193552279037799
266.984,0.056452863426316835,0.056452863426316835
266.985,0.002588501760806272,-0.002588501760806272
266.986,0.06514604104681176,-0.06514604104681176
266.987,0.12074600003528868,-0.12074600003528868
266.988,0.16064230981400762,-0.16064230981400762
266.989,0.1793783110369378,-0.1793783110369378
266.99,0.1754570707677613,-0.1754570707677613
266.991,0.15108265435498425,-0.15108265435498425
266.992,0.11116823879941684,-0.11116823879941684
266.993,0.06196054771270032,-0.06196054771270032
266.994,0.009674665095877222,-0.009674665095877222
266.995,0.04052917123614841,0.04052917123614841
266.996,0.08503632777746861,0.08503632777746861
266.997,0.12172072796047773,0.12172072796047773
266.998,0.14948491263871055,0.14948491263871055
266.999,0.16764620630983207,0.16764620630983207
267.0,0.17544100973736443,0.17544100973736443
267.001,0.1718579291521689,0.1718579291521689
267.002,0.15588372130229922,0.15588372130229922
267.003,0.12709075699729855,0.12709075699729855
267.004,0.0863570620849603,0.0863570620849603
267.005,0.03643366683635296,0.03643366683635296
267.006,0.01791235701919558,-0.01791235701919558
267.007,0.07034347427218823,-0.07034347427218823
267.008,0.11397441014163301,-0.11397441014163301
267.009,0.14276605356230088,-0.14276605356230088
267.01,0.15293276759985053,-0.15293276759985053
267.011,0.14395087114649385,-0.14395087114649385
267.012,0.11882802064543574,-0.11882802064543574
267.013,0.08348235914659452,-0.08348235914659452
267.014,0.04533754494040809,-0.04533754494040809
267.015,0.011488147138300153,-0.011488147138300153
267.016,0.013052598888277478,0.013052598888277478
267.017,0.026503844029422297,0.026503844029422297
267.018,0.030507032197297335,0.030507032197297335
267.019,0.029280176111923018,0.029280176111923018
267.02,0.027989132559536722,0.027989132559536722
267.021,0.030851516217325736,0.030851516217325736
267.022,0.03959567505779815,0.03959567505779815
267.023,0.052801885060728804,0.052801885060728804
267.024,0.0663753331366943,0.0663753331366943
267.025,0.07502382675712127,0.07502382675712127
267.02599999999995,0.07426012358085932,0.07426012358085932
267.027,0.06224166979331569,0.06224166979331569
267.028,0.04077919239647021,0.04077919239647021
267.029,0.01509698041026275,0.01509698041026275
267.03,0.007661040587981005,-0.007661040587981005
267.031,0.02074657735031593,-0.02074657735031593
267.032,0.020194231941270457,-0.020194231941270457
267.033,0.006453662877810906,-0.006453662877810906
267.034,0.015358334755659175,0.015358334755659175
267.035,0.03678141052885375,0.03678141052885375
267.036,0.048583139839355916,0.048583139839355916
267.037,0.04380606332363279,0.04380606332363279
267.03799999999995,0.02030721937385427,0.02030721937385427
267.039,0.01808596914205618,-0.01808596914205618
267.04,0.062274366433886175,-0.062274366433886175
267.041,0.10032836873743323,-0.10032836873743323
267.042,0.12098476009075054,-0.12098476009075054
267.043,0.11713595753656325,-0.11713595753656325
267.044,0.08820313826176496,-0.08820313826176496
267.045,0.04059784445086678,-0.04059784445086678
267.046,0.013941885806651344,0.013941885806651344
267.047,0.06168618913527868,0.06168618913527868
267.048,0.09092321497532585,0.09092321497532585
267.049,0.09541354803407653,0.09541354803407653
267.04999999999995,0.07621196394563423,0.07621196394563423
267.051,0.04127814847741074,0.04127814847741074
267.052,0.0029866735579777703,0.0029866735579777703
267.053,0.025694333736917097,-0.025694333736917097
267.054,0.03516852662327419,-0.03516852662327419
267.055,0.02209171294710577,-0.02209171294710577
267.056,0.009713547495924013,0.009713547495924013
267.057,0.050564477578259215,0.050564477578259215
267.058,0.08800028577028085,0.08800028577028085
267.059,0.11064374609490146,0.11064374609490146
267.06,0.11162016441914147,0.11162016441914147
267.061,0.09047929739608351,0.09047929739608351
267.06199999999995,0.053066440762665534,0.053066440762665534
267.063,0.009455250347295108,0.009455250347295108
267.064,0.02933162639414688,-0.02933162639414688
267.065,0.0547247484716592,-0.0547247484716592
267.066,0.06304244372470735,-0.06304244372470735
267.067,0.05621962590028606,-0.05621962590028606
267.068,0.04067436990254969,-0.04067436990254969
267.069,0.024770131786588045,-0.024770131786588045
267.07,0.01577615992804826,-0.01577615992804826
267.071,0.017362020041404636,-0.017362020041404636
267.072,0.028448980010379543,-0.028448980010379543
267.073,0.04376142700041408,-0.04376142700041408
267.074,0.05584173413868987,-0.05584173413868987
267.075,0.05780707998107837,-0.05780707998107837
267.076,0.04589504525895971,-0.04589504525895971
267.077,0.020936507476587596,-0.020936507476587596
267.078,0.011729635396547922,0.011729635396547922
267.079,0.04385737065331896,0.04385737065331896
267.08,0.0668665737017291,0.0668665737017291
267.081,0.0745355319581924,0.0745355319581924
267.082,0.06493980529704646,0.06493980529704646
267.083,0.04103017621736971,0.04103017621736971
267.084,0.00969840312361292,0.00969840312361292
267.085,0.020330546693095308,-0.020330546693095308
267.086,0.04107886873987421,-0.04107886873987421
267.087,0.04754706132365971,-0.04754706132365971
267.088,0.038923977365125206,-0.038923977365125206
267.089,0.018463841924873936,-0.018463841924873936
267.09,0.007839470314922048,0.007839470314922048
267.091,0.033275045779493695,0.033275045779493695
267.092,0.05243961473172587,0.05243961473172587
267.093,0.06261929989757253,0.06261929989757253
267.094,0.06414222547834658,0.06414222547834658
267.095,0.05968573755704609,0.05968573755704609
267.096,0.05287335478142752,0.05287335478142752
267.097,0.04671284746705284,0.04671284746705284
267.098,0.042443245238947824,0.042443245238947824
267.099,0.03918107381844682,0.03918107381844682
267.1,0.03445558072384092,0.03445558072384092
267.101,0.025407325615470544,0.025407325615470544
267.102,0.010201144110787874,0.010201144110787874
267.103,0.010857302948677705,-0.010857302948677705
267.104,0.03490124371657044,-0.03490124371657044
267.105,0.056941987395424554,-0.056941987395424554
267.106,0.07105366891470277,-0.07105366891470277
267.107,0.07196364922320853,-0.07196364922320853
267.108,0.05660060900302977,-0.05660060900302977
267.109,0.025183899706723856,-0.025183899706723856
267.11,0.018417069482830728,0.018417069482830728
267.111,0.06712466354102942,0.06712466354102942
267.112,0.11177969905647767,0.11177969905647767
267.113,0.14271152993300595,0.14271152993300595
267.114,0.15146540921616203,0.15146540921616203
267.115,0.13242131311581895,0.13242131311581895
267.116,0.08408845652545005,0.08408845652545005
267.117,0.00990494450519952,0.00990494450519952
267.118,0.08160281364599631,-0.08160281364599631
267.119,0.1774289861289059,-0.1774289861289059
267.12,0.26155115615689095,-0.26155115615689095
267.121,0.3172304330296484,-0.3172304330296484
267.122,0.32995630051563896,-0.32995630051563896
267.123,0.29061896803129517,-0.29061896803129517
267.124,0.19828308775380699,-0.19828308775380699
267.125,0.06183130719901986,-0.06183130719901986
267.126,0.10017645769533523,0.10017645769533523
267.127,0.26178642135848973,0.26178642135848973
267.128,0.3939551856936965,0.3939551856936965
267.129,0.4701953393959175,0.4701953393959175
267.13,0.47240494277111345,0.47240494277111345
267.131,0.3954875498076318,0.3954875498076318
267.132,0.249488521582651,0.249488521582651
267.133,0.05846574514356462,0.05846574514356462
267.134,0.1439172038937354,-0.1439172038937354
267.135,0.32123308832998254,-0.32123308832998254
267.136,0.4420272217837814,-0.4420272217837814
267.137,0.4865799531955086,-0.4865799531955086
267.138,0.45099457299155254,-0.45099457299155254
267.139,0.3475538654288226,-0.3475538654288226
267.14,0.2012490465305209,-0.2012490465305209
267.141,0.0433984139855802,-0.0433984139855802
267.142,0.09595085424465721,0.09595085424465721
267.143,0.19483544334456493,0.19483544334456493
267.144,0.24365553656683137,0.24365553656683137
267.145,0.24592124683669336,0.24592124683669336
267.146,0.21548655540665052,0.21548655540665052
267.147,0.17128204970746252,0.17128204970746252
267.148,0.1312236847907866,0.1312236847907866
267.149,0.10712212722360959,0.10712212722360959
267.15,0.10201314357340796,0.10201314357340796
267.15099999999995,0.1105121641473994,0.1105121641473994
267.152,0.12183026889515158,0.12183026889515158
267.153,0.12428056259213038,0.12428056259213038
267.154,0.10970276310913629,0.10970276310913629
267.155,0.07635344743198114,0.07635344743198114
267.156,0.02939294223390898,0.02939294223390898
267.157,0.02105861497515582,-0.02105861497515582
267.158,0.06350890995188119,-0.06350890995188119
267.159,0.08901858464296464,-0.08901858464296464
267.16,0.09409774188670594,-0.09409774188670594
267.161,0.08161290253811981,-0.08161290253811981
267.162,0.05946320976953834,-0.05946320976953834
267.16299999999995,0.03756528353599187,-0.03756528353599187
267.164,0.02425881019898657,-0.02425881019898657
267.165,0.02341747428796792,-0.02341747428796792
267.166,0.03327106750582698,-0.03327106750582698
267.167,0.04731993254777522,-0.04731993254777522
267.168,0.05697569618579568,-0.05697569618579568
267.169,0.05495512134358471,-0.05495512134358471
267.17,0.03819719268448807,-0.03819719268448807
267.171,0.009252833154943185,-0.009252833154943185
267.172,0.024355678402971925,0.024355678402971925
267.173,0.05258813477503965,0.05258813477503965
267.174,0.06629630186105429,0.06629630186105429
267.17499999999995,0.060399721476748436,0.060399721476748436
267.176,0.03572180078819143,0.03572180078819143
267.177,0.0011488039672479244,-0.0011488039672479244
267.178,0.039918567130925564,-0.039918567130925564
267.179,0.06985590713566148,-0.06985590713566148
267.18,0.08314357256579552,-0.08314357256579552
267.181,0.07718555559545048,-0.07718555559545048
267.182,0.05512051375594362,-0.05512051375594362
267.183,0.02442944629873456,-0.02442944629873456
267.184,0.005813698940877243,0.005813698940877243
267.185,0.02804678038671926,0.02804678038671926
267.186,0.0385885248630351,0.0385885248630351
267.18699999999995,0.03847927306468324,0.03847927306468324
267.188,0.03257251102667014,0.03257251102667014
267.189,0.02729102091184754,0.02729102091184754
267.19,0.0279298103133212,0.0279298103133212
267.191,0.03652419622192293,0.03652419622192293
267.192,0.051062602732917295,0.051062602732917295
267.193,0.06630378899067146,0.06630378899067146
267.194,0.07585267865743917,0.07585267865743917
267.195,0.0746821436406584,0.0746821436406584
267.196,0.061131162002128425,0.061131162002128425
267.197,0.03761812129007014,0.03761812129007014
267.198,0.009801474122232978,0.009801474122232978
267.199,0.015487318258761706,-0.015487318258761706
267.2,0.03274414382973223,-0.03274414382973223
267.201,0.0397621421602018,-0.0397621421602018
267.202,0.038303619230471764,-0.038303619230471764
267.203,0.03319739954527812,-0.03319739954527812
267.204,0.030188996749286323,-0.030188996749286323
267.205,0.03336186595767565,-0.03336186595767565
267.206,0.043138875272564214,-0.043138875272564214
267.207,0.055686011279102,-0.055686011279102
267.208,0.06403649741194117,-0.06403649741194117
267.209,0.06061286174194169,-0.06061286174194169
267.21,0.040281048060478386,-0.040281048060478386
267.211,0.0028273718897940947,-0.0028273718897940947
267.212,0.04609691998329368,0.04609691998329368
267.213,0.09601326218870021,0.09601326218870021
267.214,0.13440226655583087,0.13440226655583087
267.215,0.15038580831180903,0.15038580831180903
267.216,0.1381157104386166,0.1381157104386166
267.217,0.09875069888276045,0.09875069888276045
267.218,0.040358839060579355,0.040358839060579355
267.219,0.024234710977687812,-0.024234710977687812
267.22,0.08096277730862922,-0.08096277730862922
267.221,0.11827329133304554,-0.11827329133304554
267.222,0.12996610845810974,-0.12996610845810974
267.223,0.11629835108524411,-0.11629835108524411
267.224,0.08315730787795483,-0.08315730787795483
267.225,0.039746626865244994,-0.039746626865244994
267.226,0.004314619633835282,0.004314619633835282
267.227,0.041472147138262416,0.041472147138262416
267.228,0.06754714157574826,0.06754714157574826
267.229,0.08164053497639978,0.08164053497639978
267.23,0.08495364738777589,0.08495364738777589
267.231,0.07923836223339209,0.07923836223339209
267.232,0.06566503046796468,0.06566503046796468
267.233,0.04463602220018381,0.04463602220018381
267.234,0.016590472696099923,0.016590472696099923
267.235,0.016656524704478204,-0.016656524704478204
267.236,0.05080697818601265,-0.05080697818601265
267.237,0.07895103010099225,-0.07895103010099225
267.238,0.09280150283621136,-0.09280150283621136
267.239,0.08510745194873381,-0.08510745194873381
267.24,0.05250330073545595,-0.05250330073545595
267.241,0.0022679593506944595,0.0022679593506944595
267.242,0.06974715520490005,0.06974715520490005
267.243,0.1352880255976705,0.1352880255976705
267.244,0.18252462519754475,0.18252462519754475
267.245,0.19785886587195245,0.19785886587195245
267.246,0.17459683351100175,0.17459683351100175
267.247,0.11536023159370057,0.11536023159370057
267.248,0.03187765906351503,0.03187765906351503
267.249,0.05792325317996905,-0.05792325317996905
267.25,0.13471798276663394,-0.13471798276663394
267.251,0.18303073133162162,-0.18303073133162162
267.252,0.1952966777355326,-0.1952966777355326
267.253,0.173481393693818,-0.173481393693818
267.254,0.12779337176197303,-0.12779337176197303
267.255,0.07298160563249756,-0.07298160563249756
267.256,0.02349891367226209,-0.02349891367226209
267.257,0.010839830351768054,0.010839830351768054
267.258,0.0272881310852362,0.0272881310852362
267.259,0.029968902013491228,0.029968902013491228
267.26,0.027265099371919232,0.027265099371919232
267.261,0.027863124654263993,0.027863124654263993
267.262,0.03696468353954585,0.03696468353954585
267.263,0.0540846254507934,0.0540846254507934
267.264,0.0732415062264582,0.0732415062264582
267.265,0.08544649539268523,0.08544649539268523
267.266,0.08253210093362373,0.08253210093362373
267.267,0.060849898975031014,0.060849898975031014
267.268,0.023394787735893097,0.023394787735893097
267.269,0.02052412440028295,-0.02052412440028295
267.27,0.05804955697019609,-0.05804955697019609
267.271,0.07705613715055315,-0.07705613715055315
267.272,0.0704357479652854,-0.0704357479652854
267.273,0.03883220304125534,-0.03883220304125534
267.274,0.009213461099744524,0.009213461099744524
267.275,0.059842211277339574,0.059842211277339574
267.27599999999995,0.0983457374784753,0.0983457374784753
267.277,0.11400071445392124,0.11400071445392124
267.278,0.1035881122644231,0.1035881122644231
267.279,0.07235624869342616,0.07235624869342616
267.28,0.03207213529394659,0.03207213529394659
267.281,0.0031719768126985404,-0.0031719768126985404
267.282,0.021933095356993504,-0.021933095356993504
267.283,0.019423111105269175,-0.019423111105269175
267.284,0.000873643878253727,0.000873643878253727
267.285,0.02855436645922982,0.02855436645922982
267.286,0.05015778282785299,0.05015778282785299
267.287,0.05417185308708916,0.05417185308708916
267.28799999999995,0.03541081277283653,0.03541081277283653
267.289,0.002812336524614545,-0.002812336524614545
267.29,0.049530280203250676,-0.049530280203250676
267.291,0.08974052018610779,-0.08974052018610779
267.292,0.10957715876062302,-0.10957715876062302
267.293,0.10125183518029068,-0.10125183518029068
267.294,0.06603545941051558,-0.06603545941051558
267.295,0.014208030234683422,-0.014208030234683422
267.296,0.03806498113609713,0.03806498113609713
267.297,0.07391967149463685,0.07391967149463685
267.298,0.08132413135916305,0.08132413135916305
267.299,0.05710680976254845,0.05710680976254845
267.29999999999995,0.008137652345284074,0.008137652345284074
267.301,0.05073085558190138,-0.05073085558190138
267.302,0.10127801049006169,-0.10127801049006169
267.303,0.12756285602607842,-0.12756285602607842
267.304,0.1207668813874413,-0.1207668813874413
267.305,0.08169337595489246,-0.08169337595489246
267.306,0.02019097524678859,-0.02019097524678859
267.307,0.04820272834013162,0.04820272834013162
267.308,0.10720167504892308,0.10720167504892308
267.309,0.1446273698103151,0.1446273698103151
267.31,0.15561244554106723,0.15561244554106723
267.311,0.14320501861815726,0.14320501861815726
267.31199999999995,0.1163414573615087,0.1163414573615087
267.313,0.08604270370732436,0.08604270370732436
267.314,0.0612497614534433,0.0612497614534433
267.315,0.04576877416394587,0.04576877416394587
267.316,0.03734524742309886,0.03734524742309886
267.317,0.029102998912229117,0.029102998912229117
267.318,0.01274659950001511,0.01274659950001511
267.319,0.017675193603079675,-0.017675193603079675
267.32,0.06281542496934334,-0.06281542496934334
267.321,0.11694633350384032,-0.11694633350384032
267.322,0.1691460466040252,-0.1691460466040252
267.323,0.20636982529572723,-0.20636982529572723
267.324,0.21738837509731013,-0.21738837509731013
267.325,0.19630061266015308,-0.19630061266015308
267.326,0.14449011368564268,-0.14449011368564268
267.327,0.07042317214412586,-0.07042317214412586
267.328,0.01260720771734647,0.01260720771734647
267.329,0.09004229366338468,0.09004229366338468
267.33,0.14979852043683972,0.14979852043683972
267.331,0.18506409405064694,0.18506409405064694
267.332,0.19538356532768986,0.19538356532768986
267.333,0.1858390108401724,0.1858390108401724
267.334,0.16473446736762232,0.16473446736762232
267.335,0.14061816779049852,0.14061816779049852
267.336,0.11961183160565869,0.11961183160565869
267.337,0.103838161841183,0.103838161841183
267.338,0.0913287222119803,0.0913287222119803
267.339,0.07730289110227906,0.07730289110227906
267.34,0.05629567291486581,0.05629567291486581
267.341,0.02439861162710133,0.02439861162710133
267.342,0.01909016134537933,-0.01909016134537933
267.343,0.07106925265356112,-0.07106925265356112
267.344,0.12519884871039222,-0.12519884871039222
267.345,0.1733879650305814,-0.1733879650305814
267.346,0.2077274145629756,-0.2077274145629756
267.347,0.22231923217077765,-0.22231923217077765
267.348,0.21454339059723604,-0.21454339059723604
267.349,0.18550501139018039,-0.18550501139018039
267.35,0.1396449028192196,-0.1396449028192196
267.351,0.08370085867954558,-0.08370085867954558
267.352,0.025328608647399053,-0.025328608647399053
267.353,0.028284853277127153,0.028284853277127153
267.354,0.07154078204341907,0.07154078204341907
267.355,0.10111211089987959,0.10111211089987959
267.356,0.11613866817017193,0.11613866817017193
267.357,0.11798143485472035,0.11798143485472035
267.358,0.10965044665132062,0.10965044665132062
267.359,0.09505400715383172,0.09505400715383172
267.36,0.07822058217845762,0.07822058217845762
267.361,0.06262584584179942,0.06262584584179942
267.362,0.050721607010427494,0.050721607010427494
267.363,0.043715854564634116,0.043715854564634116
267.364,0.04160044859897938,0.04160044859897938
267.365,0.04337450058187153,0.04337450058187153
267.366,0.047378600155897344,0.047378600155897344
267.367,0.05164732636916103,0.05164732636916103
267.368,0.054207854263342625,0.054207854263342625
267.369,0.05329398246628392,0.05329398246628392
267.37,0.04749144070167599,0.04749144070167599
267.371,0.03586189691714248,0.03586189691714248
267.372,0.01809406014135151,0.01809406014135151
267.373,0.0053028161541449625,-0.0053028161541449625
267.374,0.03280275677633471,-0.03280275677633471
267.375,0.06175627199170963,-0.06175627199170963
267.376,0.08848674389327182,-0.08848674389327182
267.377,0.10867587953347357,-0.10867587953347357
267.378,0.11804629902974795,-0.11804629902974795
267.379,0.11324319809633665,-0.11324319809633665
267.38,0.09272011524751711,-0.09272011524751711
267.381,0.05738610968641367,-0.05738610968641367
267.382,0.010799388901367668,-0.010799388901367668
267.383,0.04120405150297901,0.04120405150297901
267.384,0.09140736827688678,0.09140736827688678
267.385,0.13244652522072764,0.13244652522072764
267.386,0.15809524445222722,0.15809524445222722
267.387,0.1643067038081285,0.1643067038081285
267.388,0.1497989559924553,0.1497989559924553
267.389,0.11611271910442467,0.11611271910442467
267.39,0.06721881415395514,0.06721881415395514
267.391,0.008853072771896509,0.008853072771896509
267.392,0.05222532278096337,-0.05222532278096337
267.393,0.10891914552874715,-0.10891914552874715
267.394,0.154396174478448,-0.154396174478448
267.395,0.18267711204217885,-0.18267711204217885
267.396,0.18930115508605438,-0.18930115508605438
267.397,0.17209698395834605,-0.17209698395834605
267.398,0.13195227329232928,-0.13195227329232928
267.399,0.07333185753446236,-0.07333185753446236
267.4,0.004222227591338723,-0.004222227591338723
267.40099999999995,0.06475935021111923,0.06475935021111923
267.402,0.12214438046018161,0.12214438046018161
267.403,0.158027081688499,0.158027081688499
267.404,0.16655475782132179,0.16655475782132179
267.405,0.14776080274401804,0.14776080274401804
267.406,0.10805653591610342,0.10805653591610342
267.407,0.05900208867202861,0.05900208867202861
267.408,0.014470699318299252,0.014470699318299252
267.409,0.013140587399833037,-0.013140587399833037
267.41,0.016601826460794777,-0.016601826460794777
267.411,0.0037092340375584065,0.0037092340375584065
267.412,0.03949652911424617,0.03949652911424617
267.41299999999995,0.07665003117709412,0.07665003117709412
267.414,0.09930130098042178,0.09930130098042178
267.415,0.09470229831128107,0.09470229831128107
267.416,0.05745152000632614,0.05745152000632614
267.417,0.008297986908995858,-0.008297986908995858
267.418,0.08944901824399976,-0.08944901824399976
267.419,0.16732879976125925,-0.16732879976125925
267.42,0.2228700014820928,-0.2228700014820928
267.421,0.24204238295259883,-0.24204238295259883
267.422,0.21984534404765754,-0.21984534404765754
267.423,0.16159497718280347,-0.16159497718280347
267.424,0.08109219957953051,-0.08109219957953051
267.42499999999995,0.003731484199507751,0.003731484199507751
267.426,0.07626305805535671,0.07626305805535671
267.427,0.12595820999854168,0.12595820999854168
267.428,0.1508329109377715,0.1508329109377715
267.429,0.15690369784497626,0.15690369784497626
267.43,0.15483225875839723,0.15483225875839723
267.431,0.15500407129642935,0.15500407129642935
267.432,0.16283278753846275,0.16283278753846275
267.433,0.1760284775641363,0.1760284775641363
267.434,0.18490404213435396,0.18490404213435396
267.435,0.17573700657225988,0.17573700657225988
267.436,0.1361115390920813,0.1361115390920813
267.43699999999995,0.06041595412076628,0.06041595412076628
267.438,0.04646817404549808,-0.04646817404549808
267.439,0.16871509454210598,-0.16871509454210598
267.44,0.28273195313644717,-0.28273195313644717
267.441,0.3631508994834852,-0.3631508994834852
267.442,0.3898615081083191,-0.3898615081083191
267.443,0.35391477632401513,-0.35391477632401513
267.444,0.2604414593314497,-0.2604414593314497
267.445,0.12764557026316958,-0.12764557026316958
267.446,0.017843806556365083,0.017843806556365083
267.447,0.1478554260306315,0.1478554260306315
267.448,0.23972757292060098,0.23972757292060098
267.449,0.28147492954425757,0.28147492954425757
267.45,0.2736798748400304,0.2736798748400304
267.451,0.22779400627186863,0.22779400627186863
267.452,0.1616580895704296,0.1616580895704296
267.453,0.09384645147619564,0.09384645147619564
267.454,0.03866810784207764,0.03866810784207764
267.455,0.003268578685484913,0.003268578685484913
267.456,0.012558488354145192,-0.012558488354145192
267.457,0.014209121865258578,-0.014209121865258578
267.458,0.008874487822125632,-0.008874487822125632
267.459,0.0023306230517721183,-0.0023306230517721183
267.46,0.0029078210478967748,0.0029078210478967748
267.461,0.007541173985517791,0.007541173985517791
267.462,0.013817255454251276,0.013817255454251276
267.463,0.023156516954497608,0.023156516954497608
267.464,0.03423208060551097,0.03423208060551097
267.465,0.042442250141246696,0.042442250141246696
267.466,0.04111598243034709,0.04111598243034709
267.467,0.024061155219156527,0.024061155219156527
267.468,0.011514322001595079,-0.011514322001595079
267.469,0.06288458861262947,-0.06288458861262947
267.47,0.12142039747294275,-0.12142039747294275
267.471,0.17425775673170174,-0.17425775673170174
267.472,0.20759976693353366,-0.20759976693353366
267.473,0.2106281606553818,-0.2106281606553818
267.474,0.17875902118655784,-0.17875902118655784
267.475,0.11518179649665239,-0.11518179649665239
267.476,0.03019399187290761,-0.03019399187290761
267.477,0.06142466233304922,0.06142466233304922
267.478,0.1441281304865154,0.1441281304865154
267.479,0.20523545384114295,0.20523545384114295
267.48,0.2374150062871494,0.2374150062871494
267.481,0.23942640244131286,0.23942640244131286
267.482,0.21515960809528645,0.21515960809528645
267.483,0.17157239408999825,0.17157239408999825
267.484,0.11641454795247208,0.11641454795247208
267.485,0.056553127675982084,0.056553127675982084
267.486,0.0026664241203563366,-0.0026664241203563366
267.487,0.057100731561738116,-0.057100731561738116
267.488,0.10303511682457833,-0.10303511682457833
267.489,0.136627627348202,-0.136627627348202
267.49,0.15408414625827171,-0.15408414625827171
267.491,0.15266972450477923,-0.15266972450477923
267.492,0.1321815370242383,-0.1321815370242383
267.493,0.09617163931183126,-0.09617163931183126
267.494,0.052173222589220414,-0.052173222589220414
267.495,0.010491653773084364,-0.010491653773084364
267.496,0.018330977975233864,0.018330977975233864
267.497,0.026690228439855135,0.026690228439855135
267.498,0.012670577333003807,0.012670577333003807
267.499,0.01868767426951201,-0.01868767426951201
267.5,0.05625659582641496,-0.05625659582641496
267.501,0.08577625326768912,-0.08577625326768912
267.502,0.09410427561966672,-0.09410427561966672
267.503,0.07344571050138005,-0.07344571050138005
267.504,0.024159880897144714,-0.024159880897144714
267.505,0.04486095261114387,0.04486095261114387
267.506,0.1184780656508786,0.1184780656508786
267.507,0.17961213645079277,0.17961213645079277
267.508,0.21423114355197082,0.21423114355197082
267.509,0.21542881951394288,0.21542881951394288
267.51,0.18528317288651786,0.18528317288651786
267.511,0.13391180828543625,0.13391180828543625
267.512,0.07606783420602081,0.07606783420602081
267.513,0.026428955834192136,0.026428955834192136
267.514,0.004854766312805681,-0.004854766312805681
267.515,0.01491115640063767,-0.01491115640063767
267.516,0.008359765876841063,-0.008359765876841063
267.517,0.004966779947042532,0.004966779947042532
267.518,0.013910682399631114,0.013910682399631114
267.519,0.010091628990959833,0.010091628990959833
267.52,0.009185285797983833,-0.009185285797983833
267.521,0.04015474908757821,-0.04015474908757821
267.522,0.07411138907228387,-0.07411138907228387
267.523,0.10058773184632697,-0.10058773184632697
267.524,0.11101245795818426,-0.11101245795818426
267.525,0.10156886448541946,-0.10156886448541946
267.52599999999995,0.07432438796923169,-0.07432438796923169
267.527,0.036359151533663536,-0.036359151533663536
267.528,0.0026663266558415444,0.0026663266558415444
267.529,0.0335560435758977,0.0335560435758977
267.53,0.05015553847750609,0.05015553847750609
267.531,0.05064840432642348,0.05064840432642348
267.532,0.03730177803019186,0.03730177803019186
267.533,0.01498430004987883,0.01498430004987883
267.534,0.010804370286924936,-0.010804370286924936
267.535,0.03556544035997733,-0.03556544035997733
267.536,0.05652000576848526,-0.05652000576848526
267.537,0.07231072770309788,-0.07231072770309788
267.53799999999995,0.08206104770286637,-0.08206104770286637
267.539,0.08445010637183081,-0.08445010637183081
267.54,0.0774287725769699,-0.0774287725769699
267.541,0.05886822039826656,-0.05886822039826656
267.542,0.0279416674354257,-0.0279416674354257
267.543,0.013391923783474757,0.013391923783474757
267.544,0.059607040207068085,0.059607040207068085
267.545,0.10215538573474126,0.10215538573474126
267.546,0.13146322791882037,0.13146322791882037
267.547,0.13989070866010622,0.13989070866010622
267.548,0.12466213127975934,0.12466213127975934
267.549,0.08961810713390905,0.08961810713390905
267.54999999999995,0.04492412144834801,0.04492412144834801
267.551,0.004528764004046115,0.004528764004046115
267.552,0.01802067323070622,-0.01802067323070622
267.553,0.014124155789706938,-0.014124155789706938
267.554,0.0165111898969581,0.0165111898969581
267.555,0.0649725523515381,0.0649725523515381
267.556,0.1152277119723144,0.1152277119723144
267.557,0.14872714500883433,0.14872714500883433
267.558,0.150160415292097,0.150160415292097
267.559,0.11253463283618603,0.11253463283618603
267.56,0.03988008202558846,0.03988008202558846
