Czas,Sum
40.732,0.013547170364326379
40.733,0.013409556921220051
40.734,0.011833866219104696
40.735,0.008802968990089288
40.736,0.0046843489343416315
40.737,0.0001940577412977927
40.738,0.003768351190168201
40.739,0.006366660711196399
40.74,0.007078464306369675
40.741,0.005866140092892739
40.742,0.003208131348329522
40.742999999999995,2.603326937484005e-05
40.744,0.002823395090171135
40.745,0.0043240128691683045
40.745999999999995,0.004075108397468586
40.747,0.0021634879291941313
40.748,0.0008161342383390948
40.748999999999995,0.003948503810682167
40.75,0.006283994900631539
40.751,0.007135775446786899
40.751999999999995,0.00629651658201962
40.753,0.004107887404029014
40.754,0.0013613235948165734
40.754999999999995,0.000939777913950988
40.756,0.0018841994456378843
40.757,0.0009314799108683802
40.757999999999996,0.0019184406000720597
40.759,0.006114163229164095
40.76,0.010701802856076997
40.760999999999996,0.014587670798061956
40.762,0.016835547486084988
40.763,0.01691121818707661
40.763999999999996,0.014805226702814808
40.765,0.011003325953513417
40.766,0.006320593336652113
40.766999999999996,0.001655242269714231
40.768,0.0022602310687043796
40.769,0.005035808148189325
40.769999999999996,0.006679563469899409
40.771,0.007522963123283106
40.772,0.00804794566897743
40.772999999999996,0.008677681395913836
40.774,0.009602264471778513
40.775,0.010697127992358795
40.775999999999996,0.011560461139456432
40.777,0.01165664061796164
40.778,0.010518151276484679
40.778999999999996,0.0079394217032087
40.78,0.004098167760546884
40.781,0.0004377545791827231
40.782,0.004824574811731394
40.783,0.008147218091901942
40.784,0.009655954265092763
40.785,0.008967024422686015
40.786,0.006170026326463018
40.787,0.0018125054219562933
40.788,0.0032320915947795952
40.789,0.007974162939904987
40.79,0.0115363277216037
40.791,0.013339378663646798
40.792,0.013200648126549329
40.793,0.011327633514307245
40.794,0.00822064139382064
40.795,0.004522387897888514
40.796,0.0008629455776862496
40.797,0.0022570733617361606
40.798,0.004520619560079707
40.799,0.005785357846731882
40.8,0.006033087786577783
40.801,0.005310125197891051
40.802,0.0036894164138623338
40.803,0.0012712838616966233
40.804,0.001780462299735501
40.805,0.0051889335732152155
40.806,0.008532836034226176
40.806999999999995,0.01126217473896982
40.808,0.012774508466431004
40.809,0.012542788945039261
40.809999999999995,0.010263934880269403
40.811,0.005983970319568712
40.812,0.00015613297920488437
40.812999999999995,0.006396365490115705
40.814,0.012615393239362137
40.815,0.017414600753317792
40.815999999999995,0.01990916347064753
40.817,0.019610916170367476
40.818,0.016538693385669018
40.818999999999996,0.0112156092311488
40.82,0.004554851453689287
40.821,0.0023355806420415574
40.821999999999996,0.00837931692493781
40.823,0.012734592474992023
40.824,0.014929586792246947
40.824999999999996,0.014907508633123368
40.826,0.012984140444257412
40.827,0.009741744269007655
40.827999999999996,0.0058943746694159185
40.829,0.0021586901923791963
40.83,0.0008464866497708094
40.830999999999996,0.00266395996648341
40.832,0.0030308761378437933
40.833,0.0018925927888104183
40.833999999999996,0.0005919468196590109
40.835,0.0040513329554473475
40.836,0.00791724904952445
40.836999999999996,0.011468307163043336
40.838,0.013913765193445268
40.839,0.014517725731523993
40.839999999999996,0.012747894211160446
40.841,0.00841710559325071
40.842,0.001777476360555321
40.842999999999996,0.006468888910404834
40.844,0.01526135362090752
40.845,0.023366389346534965
40.846,0.02962114925696327
40.847,0.03317804242584145
40.848,0.03368776412564675
40.849,0.03137078595020853
40.85,0.02695539401175926
40.851,0.021496195742602166
40.852,0.016119975517508364
40.853,0.011765781249055822
40.854,0.008986910470092577
40.855,0.0078637045741251
40.856,0.008043527202249854
40.857,0.008888042070883765
40.858,0.009678988648913613
40.859,0.009820606309221474
40.86,0.008982954270497457
40.861,0.007152710867016075
40.862,0.0045886633758553405
40.863,0.0017078175531821556
40.864,0.0010541256252199222
40.865,0.003362096936996062
40.866,0.005047880863751345
40.867,0.006112492501960343
40.867999999999995,0.006676890419049315
40.869,0.006908786567967699
40.87,0.006956731742911757
40.870999999999995,0.00691392560873783
40.872,0.006817908132966541
40.873,0.006675625666979942
40.873999999999995,0.006493242994586867
40.875,0.006290418441067198
40.876,0.006089008308286793
40.876999999999995,0.005881538119483049
40.878,0.0055982214924717175
40.879,0.005096386059433006
40.879999999999995,0.004189760321312057
40.881,0.0027188459732302864
40.882,0.0006435925638909545
40.882999999999996,0.0018759349216379182
40.884,0.004448958020605192
40.885,0.00650018451919621
40.885999999999996,0.007395443769593686
40.887,0.00662013401197678
40.888,0.003959839567417253
40.888999999999996,0.0003767293968651173
40.89,0.0057416135519868195
40.891,0.011158425852376141
40.891999999999996,0.015541207137274601
40.893,0.017965825041831546
40.894,0.01791689818941652
40.894999999999996,0.015435072425850701
40.896,0.011115611936283657
40.897,0.005952505064304887
40.897999999999996,0.0010693764177252159
40.899,0.002585645693779878
40.9,0.004491272657682597
40.900999999999996,0.004675966920370927
40.902,0.003676558624619529
40.903,0.002347026462608591
40.903999999999996,0.0015778084263246691
40.905,0.002012849737736132
40.906,0.0038508589296993648
40.907,0.006789368848327809
40.908,0.010124420402706256
40.909,0.012969943267578572
40.91,0.014524876647629621
40.911,0.014303996775663286
40.912,0.012263471297005932
40.913,0.008788568176186385
40.914,0.004556105723365291
40.915,0.0003230789784008295
40.916,0.003286994477698819
40.917,0.005932825932721863
40.918,0.007598177750942803
40.919,0.008525820338553251
40.92,0.009076266700124824
40.921,0.009567683315933145
40.922,0.010155294634119245
40.923,0.010790155794831134
40.924,0.011265857455770056
40.925,0.01132916913962127
40.926,0.010808354931584257
40.927,0.009708320582523092
40.928,0.008235733877237054
40.929,0.006744066611269102
40.93,0.005618093118952137
40.931,0.00513911332082466
40.931999999999995,0.005378611093719479
40.933,0.006157480855703368
40.934,0.0070847178612978385
40.934999999999995,0.0076622279455671365
40.936,0.0074208690577919414
40.937,0.006044237513175745
40.937999999999995,0.003443383035847705
40.939,0.0002356168806419298
40.94,0.004665779268659619
40.940999999999995,0.009429904719773464
40.942,0.014113564602662679
40.943,0.01837003730250687
40.943999999999996,0.02194143180854739
40.945,0.02463933354681642
40.946,0.02630444513452615
40.946999999999996,0.026771922456222848
40.948,0.025865121536287606
40.949,0.023427300727996134
40.949999999999996,0.019383862994872943
40.951,0.013813575250630032
40.952,0.007001157840943169
40.952999999999996,0.0005522217482144474
40.954,0.008171430363745104
40.955,0.015097385448013501
40.955999999999996,0.02060488956902342
40.957,0.024120988638143607
40.958,0.02531759424083178
40.958999999999996,0.024160473768874948
40.96,0.020908719479173863
40.961,0.016070038693541542
40.961999999999996,0.010324307075440613
40.963,0.004429702014817006
40.964,0.0008763192448801491
40.964999999999996,0.00497215949132669
40.966,0.0074360364268306455
40.967,0.008110536797073185
40.967999999999996,0.00713701118878176
40.969,0.004947622350906666
40.97,0.0022056350662429114
40.971,0.0003067786020483672
40.972,0.0018403103448504845
40.973,0.001842197582566634
40.974,9.384537902311244e-05
40.975,0.003216213654470018
40.976,0.0075109999671071894
40.977,0.01194011384880874
40.978,0.015568740028754609
40.979,0.01759485824331835
40.98,0.01753741303663769
40.981,0.015343626015858761
40.982,0.01138552553247071
40.983,0.0063479491687161525
40.984,0.0010426191149520785
40.985,0.0037953218722735697
40.986,0.007668229594849936
40.987,0.010390152282260433
40.988,0.012060323489039819
40.989,0.012956035470076618
40.99,0.013390899695237584
40.991,0.01359308640545858
40.992,0.01364639474345495
40.992999999999995,0.013509439465605953
40.994,0.01309535936273104
40.995,0.012368999500860858
40.995999999999995,0.011410715259112419
40.997,0.010409497108466536
40.998,0.009578515658886956
40.998999999999995,0.00902205928396611
41.0,0.008609946509292137
41.001,0.007922059180683602
41.001999999999995,0.006307006194547113
41.003,0.00305982629944724
41.004,0.002322934328802148
41.004999999999995,0.009889512139175969
41.006,0.019071999602704923
41.007,0.028690681243660456
41.007999999999996,0.03714924635015053
41.009,0.04278568798373716
41.01,0.044288929740849164
41.010999999999996,0.041061747457911926
41.012,0.03341810898607158
41.013,0.022547365928359604
41.013999999999996,0.010246019730105822
41.015,0.0015113850604837407
41.016,0.011040418927824728
41.016999999999996,0.017319414101485183
41.018,0.020161717696916603
41.019,0.020145646832768392
41.019999999999996,0.01833617750811322
41.021,0.01589643782714638
41.022,0.013718193264567313
41.022999999999996,0.012188665591486523
41.024,0.01116063087943076
41.025,0.010121215709248566
41.025999999999996,0.008486665177477141
41.027,0.0059088130400413675
41.028,0.002478008637533399
41.028999999999996,0.0012532416997904341
41.03,0.004435776585729742
41.031,0.006219231169138097
41.032,0.006070300541030407
41.033,0.003996738027288716
41.034,0.0005917099765188215
41.035,0.0031244578819467454
41.036,0.006016690987013344
41.037,0.0071978392264894836
41.038,0.00631781362239879
41.039,0.0036783471604300557
41.04,0.0001308575772087644
41.041,0.0032112509029728832
41.042,0.00535044046448372
41.043,0.005745500493336034
41.044,0.004498177189368362
41.045,0.0023204645209757503
41.046,0.0002907646976098756
41.047,0.0005212467087727734
41.048,0.0005640682709235027
41.049,0.003577476957576407
41.05,0.00785360825671433
41.051,0.012214804598930836
41.052,0.015329311647365895
41.053,0.016129264968123
41.054,0.014153850472867172
41.055,0.009707099951374358
41.056,0.0037798612680390135
41.056999999999995,0.002238429242836271
41.058,0.006965498382495743
41.059,0.009420618459065083
41.059999999999995,0.00928472149178229
41.061,0.006948954348428866
41.062,0.0033440950642820945
41.062999999999995,0.0003860586417978751
41.064,0.0032555899166504068
41.065,0.0047287923352662235
41.065999999999995,0.004840406664886076
41.067,0.004109773647361454
41.068,0.0032847177507253577
41.068999999999996,0.003008105742126675
41.07,0.00352593977258664
41.071,0.004542309931271038
41.071999999999996,0.005278080391525407
41.073,0.004722491814700058
41.074,0.0020016338725315163
41.074999999999996,0.0032541929829813104
41.076,0.010667377895429233
41.077,0.019083695801653186
41.077999999999996,0.026783844041671133
41.079,0.031890217568596155
41.08,0.03286229900172708
41.080999999999996,0.02894296403256834
41.082,0.020426364556877248
41.083,0.008663838952105254
41.083999999999996,0.004205287122986163
41.085,0.0157358895642831
41.086,0.02375107039709795
41.086999999999996,0.026860454321495093
41.088,0.024788635046337448
41.089,0.01842912735859683
41.089999999999996,0.009611056236867751
41.091,0.0006405120033350652
41.092,0.006264055837140087
41.092999999999996,0.009497952971987201
41.094,0.00842681424181967
41.095,0.003490102829139481
41.096,0.003963876608561163
41.097,0.01205691734356999
41.098,0.01886634287505031
41.099,0.02288728223389416
41.1,0.023355588626190277
41.101,0.020359202184965532
41.102,0.014726870449843651
41.103,0.007743579200749079
41.104,0.000784872250220504
41.105,0.0050237620336084565
41.106,0.009033450045270926
41.107,0.011136897308856242
41.108,0.011676055258789066
41.109,0.011242664504261712
41.11,0.010448062040982257
41.111,0.009738358132152873
41.112,0.009306308013569154
41.113,0.009111820160075071
41.114,0.008983346525662322
41.115,0.008746155410708167
41.116,0.008319248990481407
41.117,0.007740939796745277
41.117999999999995,0.007116211328272623
41.119,0.0065140079570637395
41.12,0.005865953727062969
41.120999999999995,0.004920438825895068
41.122,0.003286062153732657
41.123,0.0005630668707193447
41.123999999999995,0.0034762787233671524
41.125,0.008722938679109421
41.126,0.0146494023594562
41.126999999999995,0.02035589513425873
41.128,0.02474819536405109
41.129,0.0268047311354055
41.129999999999995,0.025856111102006217
41.131,0.021790180460335443
41.132,0.015114874189907144
41.132999999999996,0.0068541500752137665
41.134,0.001694920103817576
41.135,0.009271184608964441
41.135999999999996,0.014930942118615297
41.137,0.01821874431583472
41.138,0.01918269008883653
41.138999999999996,0.018242698241372698
41.14,0.015969705544119507
41.141,0.012861905357906033
41.141999999999996,0.00920097056011882
41.143,0.005037814996051677
41.144,0.00030590796149507416
41.144999999999996,0.0049907062191554665
41.146,0.0105988442930193
41.147,0.015930945021443665
41.147999999999996,0.020124416227206288
41.149,0.022243037649112663
41.15,0.02156210763734248
41.150999999999996,0.017841723369074764
41.152,0.011488141421644279
41.153,0.003534524443321135
41.153999999999996,0.004570251738979848
41.155,0.011311972649443256
41.156,0.015499197703419515
41.157,0.0165715331806718
41.158,0.014733004996855936
41.159,0.010869460359969565
41.16,0.006276396820977547
41.161,0.0022820351999177954
41.162,0.0001194014934859314
41.163,0.0005166639327007249
41.164,0.0008535002754397868
41.165,0.003231265985750225
41.166,0.005596292996341677
41.167,0.0069783983264280645
41.168,0.006721434838078163
41.169,0.004631048759561554
41.17,0.0009818498065958126
41.171,0.0035938565233475193
41.172,0.008281825882011172
41.173,0.012264658182333755
41.174,0.01485814187037162
41.175,0.015589193632531983
41.176,0.014227818194538909
41.177,0.010799941633329981
41.178,0.005602821956537742
41.179,0.0007760124215808194
41.18,0.007459900509682783
41.181,0.013341814628067846
41.181999999999995,0.017231204602730196
41.183,0.01808994760445909
41.184,0.01531613849470907
41.184999999999995,0.008996489726864728
41.186,3.281959494231904e-05
41.187,0.009932756119567834
41.187999999999995,0.018816421176714414
41.189,0.024565344615546506
41.19,0.025687482663476365
41.190999999999995,0.02168485378306045
41.192,0.01324802782658687
41.193,0.0021307645071376325
41.193999999999996,0.009281409360590945
41.195,0.018596146161038107
41.196,0.02405128421186314
41.196999999999996,0.02496918496491865
41.198,0.021884229095398257
41.199,0.016300140248687006
41.199999999999996,0.010153180601220314
41.201,0.005155415816658293
41.202,0.00223496108478555
41.202999999999996,0.0012609251581622459
41.204,0.0011473954489523278
41.205,0.0003033560902900627
41.205999999999996,0.002723379392634046
41.207,0.008629461641588511
41.208,0.016982862373858515
41.208999999999996,0.026230823644779543
41.21,0.03409947977473737
41.211,0.03826334364195035
41.211999999999996,0.037070096236454915
41.213,0.030084863672827762
41.214,0.018275916804884718
41.214999999999996,0.003780915046798764
41.216,0.010670483419388326
41.217,0.02249201799396065
41.217999999999996,0.029902455367937147
41.219,0.032313598544180304
41.22,0.030342069242981485
41.221,0.025469771523379585
41.222,0.019490998208968546
41.223,0.01394429604907223
41.224,0.009715804690764955
41.225,0.006925169377168922
41.226,0.00509538487873476
41.227,0.003505444507968829
41.228,0.001566734449005055
41.229,0.0009297349104284173
41.23,0.0037830599399442666
41.231,0.006560293629909896
41.232,0.008884399411985088
41.233,0.01068814623187517
41.234,0.012305063259217257
41.235,0.014339362410953781
41.236,0.017354896635003603
41.237,0.02150907884361531
41.238,0.02629534198209642
41.239,0.03052922227902802
41.24,0.03262609231665813
41.241,0.031104087299312817
41.242,0.02514739439367205
41.242999999999995,0.015022494220077249
41.244,0.0021735868976068273
41.245,0.011074204184075143
41.245999999999995,0.022138107172313858
41.247,0.02893862026329559
41.248,0.0305464456464385
41.248999999999995,0.027487689825154434
41.25,0.02158606857124817
41.251,0.015375671470467877
41.251999999999995,0.011267789615984323
41.253,0.010746855322822211
41.254,0.013869123152233173
41.254999999999995,0.01924079146865523
41.256,0.024491166806985026
41.257,0.02708617643722162
41.257999999999996,0.025207624853091703
41.259,0.018397169318480212
41.26,0.00774200075904797
41.260999999999996,0.004464068713866653
41.262,0.015468911721771547
41.263,0.02296174984683069
41.263999999999996,0.025812591786599375
41.265,0.024395280800318546
41.266,0.020383762290109766
41.266999999999996,0.016096569164367244
41.268,0.013624300177373799
41.269,0.014052324524094476
41.269999999999996,0.017058075198363772
41.271,0.021029967157449335
41.272,0.02366941058604885
41.272999999999996,0.02286402780074904
41.274,0.01752063279275229
41.275,0.008056704825343616
41.275999999999996,0.0036337003973822366
41.277,0.014739976413785199
41.278,0.0224354838966907
41.278999999999996,0.0248106562634192
41.28,0.02151524148891995
41.281,0.013883767086199665
41.282,0.0044954358020522995
41.283,0.003685138650947156
41.284,0.008294621840827434
41.285,0.008348503908576308
41.286,0.004544159394539453
41.287,0.0010134274914290647
41.288,0.00556875138378462
41.289,0.006697068269144589
41.29,0.003176554028516483
41.291,0.004542552637664783
41.292,0.014427076061608455
41.293,0.023474553913052008
41.294,0.02864365068709613
41.295,0.027793428974726832
41.296,0.020329462132136374
41.297,0.007361563462401849
41.298,0.008654119737362813
41.299,0.02464630295159268
41.3,0.037777534302424205
41.301,0.04613493514283943
41.302,0.04906137337009275
41.303,0.04706448490196615
41.304,0.04139142133918683
41.305,0.03346513443300311
41.306,0.024406876382132615
41.306999999999995,0.014813189143818073
41.308,0.004839363843603506
41.309,0.005488123654168399
41.309999999999995,0.015900188852021893
41.311,0.025645359308291298
41.312,0.03351426449247823
41.312999999999995,0.03814778688540917
41.314,0.03852437631721978
41.315,0.03443628606867165
41.315999999999995,0.026751523635289806
41.317,0.017325458590184365
41.318,0.008550330365742372
41.318999999999996,0.0026672906706648493
41.32,0.0010633639632965219
41.321,0.003797045337183615
41.321999999999996,0.009530440762410872
41.323,0.015913546438899206
41.324,0.020312552214201005
41.324999999999996,0.020652645562375997
41.326,0.016099986588867944
41.327,0.007354769618032054
41.327999999999996,0.0035471820101330366
41.329,0.013865038035752413
41.33,0.021013219356173025
41.330999999999996,0.023372396107260357
41.332,0.020788680988723454
41.333,0.01460159506820995
41.333999999999996,0.007196140916979891
41.335,0.001228654056263374
41.336,0.0012210487330652632
41.336999999999996,0.0006998050539586886
41.338,0.006364955996388165
41.339,0.013884155587166049
41.339999999999996,0.020703529279551137
41.341,0.024391388776249974
41.342,0.023360445117980175
41.342999999999996,0.0173097603667716
41.344,0.007268905058721982
41.345,0.004743214121460227
41.346,0.016315335561086795
41.347,0.025299670558568257
41.348,0.030329574234752955
41.349,0.031063705687897302
41.35,0.028119146578294018
41.351,0.02275478300833517
41.352,0.016433983481055747
41.353,0.01041375604948582
41.354,0.005476306811573004
41.355,0.0018551011520056668
41.356,0.0006629451223058078
41.357,0.0025297887483055337
41.358,0.004212719219218791
41.359,0.006029218268202987
41.36,0.008076417541879993
41.361,0.01024894223914445
41.362,0.012309328922172902
41.363,0.013967755318370512
41.364,0.014941184470258
41.365,0.014985971275398236
41.366,0.013918719647521074
41.367,0.011646862650780137
41.367999999999995,0.008219998426247337
41.369,0.0038913707018415284
41.37,0.000841927376583497
41.370999999999995,0.005258917891874368
41.372,0.008520908491867901
41.373,0.009858982575430879
41.373999999999995,0.008800209635864356
41.375,0.005361546361758956
41.376,0.00013551129162129707
41.376999999999995,0.005783533852676576
41.378,0.01103475673668319
41.379,0.014333048033575475
41.379999999999995,0.014818943002186282
41.381,0.01230395338553105
41.382,0.0073248494165160695
41.382999999999996,0.0009793552492491887
41.384,0.005411132409828364
41.385,0.010704307046203426
41.385999999999996,0.014270147081877241
41.387,0.01613826922582125
41.388,0.01690418029042996
41.388999999999996,0.01742287757523226
41.39,0.0183959729542028
41.391,0.02000232004283123
41.391999999999996,0.021714833916096958
41.393,0.02238793460826279
41.394,0.02060885226154957
41.394999999999996,0.01521213993888663
41.396,0.005792434815339006
41.397,0.006961004400162366
41.397999999999996,0.021237268956333658
41.399,0.03442146868569201
41.4,0.0436864385831154
41.400999999999996,0.04669913152836168
41.402,0.04224181508485366
41.403,0.030569247888961343
41.403999999999996,0.013399070609766998
41.405,0.006460590146959403
41.406,0.025738664551145315
41.407,0.04140779340222918
41.408,0.05128090133986165
41.409,0.05435228578409217
41.41,0.05082205527556102
41.411,0.04183884724446049
41.412,0.0290729003444855
41.413,0.014266904528705014
41.414,0.001102221170963336
41.415,0.015972479399154922
41.416,0.02965286006077302
41.417,0.04164926741495738
41.418,0.05146120571255864
41.419,0.05844873670602642
41.42,0.06183238801786392
41.421,0.06083215012315226
41.422,0.054896785497720514
41.423,0.04394053230707025
41.424,0.028501390246778825
41.425,0.0097623204763331
41.426,0.01057771426473092
41.427,0.030549005950956956
41.428,0.04820666460812332
41.429,0.06190272643696675
41.43,0.07047767907314013
41.431,0.0733466526711825
41.431999999999995,0.0704901528088069
41.433,0.06238317461225062
41.434,0.04990232141942916
41.434999999999995,0.03423852488998678
41.436,0.016820719173086314
41.437,0.0007652375884636829
41.437999999999995,0.016887523816150857
41.439,0.03002686940802886
41.44,0.038978074283918716
41.440999999999995,0.043061725866732355
41.442,0.04229107367723187
41.443,0.03743353370678355
41.443999999999996,0.02992275622292024
41.445,0.021612974356810432
41.446,0.014412515621707683
41.446999999999996,0.009873763012574234
41.448,0.008838815081366335
41.449,0.011235003435411173
41.449999999999996,0.016081748864087145
41.451,0.021717944734156808
41.452,0.026201347724959675
41.452999999999996,0.027784544941741735
41.454,0.025349377747843845
41.455,0.0186899609179624
41.455999999999996,0.008571785821440286
41.457,0.0034489725405896796
41.458,0.01540084315869078
41.458999999999996,0.02537261770521449
41.46,0.03196934862282734
41.461,0.034634268622559444
41.461999999999996,0.03375612757731202
41.463,0.03053546117542546
41.464,0.02664374786577432
41.464999999999996,0.02376134442702672
41.466,0.02311084100078224
41.467,0.025104581463779845
41.467999999999996,0.029197985166964913
41.469,0.03399039094311657
41.47,0.037554321021087425
41.471,0.03791697472067352
41.472,0.03357838808991425
41.473,0.02393900229355831
41.474,0.009528805020313853
41.475,0.008023407163925068
41.476,0.026279731296167695
41.477,0.04247785403813273
41.478,0.05409887368346894
41.479,0.0593859637944483
41.48,0.05769408848706458
41.481,0.04959328541329619
41.482,0.03670914948826723
41.483,0.021348027052518242
41.484,0.006004321723708308
41.485,0.007129562822470806
41.486,0.016538990577635023
41.487,0.021574036136744097
41.488,0.02242690500902085
41.489,0.019933907195393095
41.49,0.015276480999255626
41.491,0.009671563137874706
41.492,0.004130410559063093
41.492999999999995,0.0006673189579810757
41.494,0.0043789492660531075
41.495,0.006915318676994888
41.495999999999995,0.008321370173564331
41.497,0.008674086712834459
41.498,0.00803289699736144
41.498999999999995,0.006449412499348182
41.5,0.004016291848244681
41.501,0.0009192005790408938
41.501999999999995,0.0025434968782339718
41.503,0.00599270852988158
41.504,0.009047347131176253
41.504999999999995,0.011422277058310904
41.506,0.013006152404249483
41.507,0.013883918545601255
41.507999999999996,0.01428766090767891
41.509,0.014486471371963459
41.51,0.01465109024602327
41.510999999999996,0.014742685913486115
41.512,0.014471553617019075
41.513,0.01335104647797278
41.513999999999996,0.010840991532357033
41.515,0.006543383351914559
41.516,0.00039192220493141294
41.516999999999996,0.007226549545691175
41.518,0.015464651779586476
41.519,0.023135981664008886
41.519999999999996,0.028943533102895925
41.521,0.03176138752771795
41.522,0.030899043501315282
41.522999999999996,0.026280254425926314
41.524,0.01848931518528947
41.525,0.008671180690896334
41.525999999999996,0.0016917738594304933
41.527,0.011073840660233087
41.528,0.018202757297582826
41.528999999999996,0.022292593630579
41.53,0.023163541987053518
41.531,0.02122740176125185
41.532,0.017348919923450345
41.533,0.012620519584344018
41.534,0.008105477371657762
41.535,0.004609032949585585
41.536,0.002527906467779809
41.537,0.0018086688177487312
41.538,0.002018895886490218
41.539,0.002507877296501807
41.54,0.002611964145340599
41.541,0.0018486936461880174
41.542,4.684031427147549e-05
41.543,0.002623337386427005
41.544,0.005727612611145059
41.545,0.008729351889554857
41.546,0.011184558912994084
41.547,0.012906279357479792
41.548,0.014039555635918022
41.549,0.015012757887812705
41.55,0.01636947105985851
41.551,0.01852640605897739
41.552,0.021533870063586147
41.553,0.024924687923902882
41.554,0.027719360512567816
41.555,0.02861233979175336
41.556,0.026307826948621854
41.556999999999995,0.019920503405047047
41.558,0.009324868799504454
41.559,0.004660983418677075
41.559999999999995,0.02033255492697842
41.561,0.03540618096255619
41.562,0.04751042417053204
41.562999999999995,0.054735358898631355
41.564,0.05608800053207271
41.565,0.05172191209324516
41.565999999999995,0.04287042003483992
41.567,0.031498589407308514
41.568,0.019773103750596363
41.568999999999996,0.009504809717412572
41.57,0.001727385741439433
41.571,0.0034666048796941633
41.571999999999996,0.006791702702365897
41.573,0.009390938887565764
41.574,0.012343036070973326
41.574999999999996,0.0162208767608374
41.576,0.020847951227596053
41.577,0.025332767779276014
41.577999999999996,0.028368188884566242
41.579,0.028693944564956334
41.58,0.025565565004346688
41.580999999999996,0.01907002785792639
41.582,0.010178631032601127
41.583,0.0005143478222990067
41.583999999999996,0.008094656568951943
41.585,0.014132991929499442
41.586,0.016821646292114426
41.586999999999996,0.016312662049777365
41.588,0.013595626919543564
41.589,0.010150666078921488
41.589999999999996,0.007463841781263746
41.591,0.006562634419196399
41.592,0.007718352222669362
41.592999999999996,0.010403584087436617
41.594,0.013506825931619625
41.595,0.015722529586895552
41.596,0.015980988560895713
41.597,0.01377577422298809
41.598,0.009287545643986822
41.599,0.003276419666158743
41.6,0.003205349433804879
41.601,0.009170217728335955
41.602,0.01399352421877781
41.603,0.017551846407751037
41.604,0.02016158833077994
41.605,0.022350765634593563
41.606,0.024555844443261667
41.607,0.026860287171579386
41.608,0.028874532747127604
41.609,0.029805552302948797
41.61,0.028696695258110458
41.611,0.024758946325732105
41.612,0.017683127947739706
41.613,0.007828866253777045
41.614,0.0037731356694290937
41.615,0.01560876500531986
41.616,0.026002482038495187
41.617,0.03347970675202661
41.617999999999995,0.03706918280643577
41.619,0.03646994557520451
41.62,0.032053387435036156
41.620999999999995,0.02472076832850994
41.622,0.015673772295214147
41.623,0.006169768651649452
41.623999999999995,0.0026771169885828673
41.625,0.010015813877647264
41.626,0.01529815482254322
41.626999999999995,0.01826247172330894
41.628,0.01889349489061957
41.629,0.017383781165675953
41.629999999999995,0.014104702853969302
41.631,0.009577861325314713
41.632,0.004429607191935983
41.632999999999996,0.0006836983724621053
41.634,0.005176335503899437
41.635,0.008637750460305
41.635999999999996,0.010906945114955408
41.637,0.012084771790396557
41.638,0.012469677900180528
41.638999999999996,0.012429933206341365
41.64,0.012252300221581374
41.641,0.012021932417236578
41.641999999999996,0.011583216710196943
41.643,0.01060581826991842
41.644,0.008741973520669603
41.644999999999996,0.005823557025080549
41.646,0.002025119868161194
41.647,0.00207796189973156
41.647999999999996,0.005597375566775891
41.649,0.007558712757842191
41.65,0.007209098467388854
41.650999999999996,0.00431140069977472
41.652,0.0006763329706100954
41.653,0.006611085742695791
41.653999999999996,0.011885989989735102
41.655,0.01481884854363507
41.656,0.014109046987103593
41.657,0.009235766416178485
41.658,0.0006796415125939875
41.659,0.010105179455688914
41.66,0.02097410928846209
41.661,0.029565577356134524
41.662,0.033847648255046485
41.663,0.03260084180542598
41.664,0.025717946921566922
41.665,0.014250511563708533
41.666,0.0001967262865358778
41.667,0.013911973491159534
41.668,0.025524461024280617
41.669,0.0325670975242022
41.67,0.0338217507907647
41.671,0.02911758146541389
41.672,0.01931532776565431
41.673,0.006106310237034125
41.674,0.00831973009686097
41.675,0.02166778944486465
41.676,0.03192066681121167
41.677,0.03765118212599627
41.678,0.038219640728054664
41.679,0.03383231046878273
41.68,0.025457218057513414
41.681,0.01461418828590371
41.681999999999995,0.0030758131450765924
41.683,0.007467279719007396
41.684,0.015713637810952048
41.684999999999995,0.020968678467183338
41.686,0.023225973891760083
41.687,0.02309354340796903
41.687999999999995,0.021582898298490874
41.689,0.019813855678436038
41.69,0.018711808714411627
41.690999999999995,0.018777716846671916
41.692,0.019991482372377127
41.693,0.021870807742974337
41.693999999999996,0.023660992976130155
41.695,0.024590984339284472
41.696,0.024110799556609268
41.696999999999996,0.02203285905110099
41.698,0.018533428385752452
41.699,0.01401989349068789
41.699999999999996,0.008918451847595653
41.701,0.0034678392097611797
41.702,0.002393957754394392
41.702999999999996,0.008993558025509052
41.704,0.016733592576264805
41.705,0.025807509998405385
41.705999999999996,0.03591749772184765
41.707,0.04610758171451273
41.708,0.05479807994889757
41.708999999999996,0.0600493491244899
41.71,0.060009309537579034
41.711,0.053433738540872563
41.711999999999996,0.040132613902139805
41.713,0.02120313620740416
41.714,0.001039419890816337
41.714999999999996,0.02344165980470103
41.716,0.04262468778102413
41.717,0.05568363387899332
41.717999999999996,0.0608002187774099
41.719,0.057614547226578286
41.72,0.04726492542502543
41.721,0.03209152540659335
41.722,0.01508619426456882
41.723,0.0007675973007986848
41.724,0.013100058851773093
41.725,0.02056535372922068
41.726,0.022976637777288977
41.727,0.021162610876123714
41.728,0.016613659773351604
41.729,0.011032073739655845
41.73,0.005911591095158564
41.731,0.0022470766862429585
41.732,0.00042591934400125356
41.733,0.00029542025562865156
41.734,0.0013523921483270468
41.735,0.002975318631099436
41.736,0.004620781216959128
41.737,0.005930873753742048
41.738,0.006736668464726209
41.739,0.006981115129521961
41.74,0.006610922877889933
41.741,0.005493638093156691
41.742,0.003402530419734314
41.742999999999995,8.361111270025574e-05
41.744,0.00461401892631789
41.745,0.010590299920368139
41.745999999999995,0.01738671681313132
41.747,0.024170087298618432
41.748,0.029834090493604252
41.748999999999995,0.03320988356516392
41.75,0.03334151362388166
41.751,0.029756294933023862
41.751999999999995,0.022653090518806512
41.753,0.012945934560081503
41.754,0.002134141240104116
41.754999999999995,0.00798511262649967
41.756,0.015701524214409235
41.757,0.019782336890135862
41.757999999999996,0.019769107656875323
41.759,0.01609900675077746
41.76,0.010010877670774696
41.760999999999996,0.003251491394710311
41.762,0.0023485670731389066
41.763,0.005322386859432611
41.763999999999996,0.0049209851910024215
41.765,0.0012801405972656013
41.766,0.0046449086280746805
41.766999999999996,0.011358244509922257
41.768,0.017237451981452698
41.769,0.02096707167325709
41.769999999999996,0.021870176806951518
41.771,0.020047091632770627
41.772,0.016287178168217408
41.772999999999996,0.011786519471466634
41.774,0.00776110130302093
41.775,0.005074448948010824
41.775999999999996,0.0039916348626080535
41.777,0.004130440968628225
41.778,0.004618233528846301
41.778999999999996,0.004399423187797158
41.78,0.0025932476575952082
41.781,0.001211033532249205
41.782,0.006811240214183911
41.783,0.013440566400329625
41.784,0.019984591296710225
41.785,0.025292708671104024
41.786,0.028483893065590595
41.787,0.029154390219905166
41.788,0.0274320931845201
41.789,0.023875338773779044
41.79,0.019264089211162974
41.791,0.014362077648546946
41.792,0.009730089134318096
41.793,0.0056442524115325405
41.794,0.0021299843937397514
41.795,0.0009213702174476953
41.796,0.003614074488515997
41.797,0.0059511161342290795
41.798,0.00781957251467288
41.799,0.009060553565904553
41.8,0.009587609416786425
41.801,0.009494338687555354
41.802,0.009093519028678894
41.803,0.008856257859193313
41.804,0.009260651230424365
41.805,0.010599427198152532
41.806,0.012819108066125854
41.806999999999995,0.015459378919101959
41.808,0.017730526095719394
41.809,0.018719159848022637
41.809999999999995,0.017664845046952194
41.811,0.014220276745327432
41.812,0.00860699978128704
41.812999999999995,0.0016088642734268797
41.814,0.00560315139983472
41.815,0.011765856976008052
41.815999999999995,0.0158496709777233
41.817,0.017315911080121746
41.818,0.016228700481411316
41.818999999999996,0.013192611814257686
41.82,0.009143866162315344
41.821,0.005068704394730761
41.821999999999996,0.0017418968812718246
41.823,0.0004347089837014287
41.824,0.0014535238913200238
41.824999999999996,0.0015938304389763772
41.826,0.0012412822432102428
41.827,0.0007110625775370322
41.827999999999996,0.00014272236551750544
41.829,0.0004995177336527577
41.83,0.0013329738015989327
41.830999999999996,0.002420346375551905
41.832,0.003659534495372737
41.833,0.0047562238795089634
41.833999999999996,0.005300344669425491
41.835,0.004921717648366297
41.836,0.0034627765481344964
41.836999999999996,0.0010927890102062935
41.838,0.001694816678126557
41.839,0.00421771619820369
41.839999999999996,0.005835447712983583
41.841,0.006195849796229602
41.842,0.005402155360663757
41.842999999999996,0.0040259483100858594
41.844,0.0029418374622745577
41.845,0.0030240310484290506
41.846,0.004800175648029868
41.847,0.008183020507558857
41.848,0.012384516417978556
41.849,0.016062829230395002
41.85,0.017677101363671243
41.851,0.01595263593042959
41.852,0.010315398627661572
41.853,0.0011554522660406608
41.854,0.010174304531019902
41.855,0.021638854812443452
41.856,0.031009979695710354
41.857,0.036426689121256926
41.858,0.03686689350741219
41.859,0.03239594797385294
41.86,0.024124659780307506
41.861,0.013895750486145454
41.862,0.003796128048725004
41.863,0.004361552860718763
41.864,0.009443766120179435
41.865,0.01118572889978752
41.866,0.010134278793939402
41.867,0.00738667053750558
41.867999999999995,0.0042225239742739226
41.869,0.001745690995984528
41.87,0.0006344503133855111
41.870999999999995,0.001052007994872052
41.872,0.002712983835129659
41.873,0.005055073780880455
41.873999999999995,0.007442600521572101
41.875,0.00933443462425768
41.876,0.010376479648715915
41.876999999999995,0.010415030860067615
41.878,0.009456828393944072
41.879,0.007613942721919483
41.879999999999995,0.005064370810244581
41.881,0.002038527810804667
41.882,0.0011807723143987428
41.882999999999996,0.004270031357616214
41.884,0.006909891705086997
41.885,0.00886541098525827
41.885999999999996,0.010078562073470873
41.887,0.010730418645479417
41.888,0.011228587340220923
41.888999999999996,0.012095445590523722
41.89,0.013769805694628464
41.891,0.016375668991512122
41.891999999999996,0.01953998345951302
41.893,0.022342758545261663
41.894,0.02345221042193495
41.894999999999996,0.021441282244828046
41.896,0.015216996079951669
41.897,0.004443062496806084
41.897999999999996,0.01018098255493276
41.899,0.026893997004074743
41.9,0.04314410919580995
41.900999999999996,0.05611161596574606
41.902,0.06335719826580191
41.903,0.06341992652996535
41.903999999999996,0.056192208268812285
41.905,0.04295548014058097
41.906,0.026056053460806423
41.907,0.008306691093778061
41.908,0.007716832059864171
41.909,0.020280882498029465
41.91,0.02882530897190687
41.911,0.03392793067062959
41.912,0.0369216689785733
41.913,0.03929168947897714
41.914,0.04204922749930679
41.915,0.04528722142427255
41.916,0.04806701242858323
41.917,0.048681867480666795
41.918,0.045223702719777235
41.919,0.036281112052140414
41.92,0.021550329612569516
41.921,0.0021609074150443046
41.922,0.019400948871434676
41.923,0.03977057240685458
41.924,0.05546460762784632
41.925,0.0637177125508322
41.926,0.06316638180220945
41.927,0.05419153918547405
41.928,0.03882682184217671
41.929,0.020260097389482506
41.93,0.00206641176846357
41.931,0.012620245057097875
41.931999999999995,0.021779753921172023
41.933,0.024857916700020334
41.934,0.02272712648430252
41.934999999999995,0.017294437598270918
41.936,0.01088820049495149
41.937,0.005604641321676323
41.937999999999995,0.002792176388048569
41.939,0.002798410198007798
41.94,0.005021148103174119
41.940999999999995,0.00821650817223459
41.942,0.010950000215292919
41.943,0.012047901255414013
41.943999999999996,0.01092136511651447
41.945,0.007686167629842479
41.946,0.003068693499913393
41.946999999999996,0.0018480471071320493
41.948,0.0059444658411186456
41.949,0.00834943942783905
41.949999999999996,0.008613921231414879
41.951,0.006742121348728261
41.952,0.0030988020546973984
41.952999999999996,0.0017516912002301203
41.954,0.007205590416622262
41.955,0.012722546905391385
41.955999999999996,0.01784658103344016
41.957,0.022158913677154595
41.958,0.025206628156699416
41.958999999999996,0.02646200271361404
41.96,0.025355095381463615
41.961,0.02139136499452174
41.961999999999996,0.014328171189594209
41.963,0.004353088178031718
41.964,0.0078049203433819625
41.964999999999996,0.020887728109124006
41.966,0.03326562629056624
41.967,0.04321693242486909
41.967999999999996,0.049264968430011394
41.969,0.05048452349590552
41.97,0.046693405596997355
41.971,0.03847485339452695
41.972,0.027024543986025173
41.973,0.013866710143560135
41.974,0.0005212558661534648
41.975,0.011784352669537063
41.976,0.02228211205037173
41.977,0.03067420103721622
41.978,0.03700334443942126
41.979,0.04144314986058176
41.98,0.04409174405922618
41.981,0.0448462740106216
41.982,0.043403663371495434
41.983,0.039385734575302755
41.984,0.03254085178235897
41.985,0.022945544328286594
41.986,0.011128074952419973
41.987,0.001937897650826123
41.988,0.014976737538413309
41.989,0.026651045071957744
41.99,0.03582487260565381
41.991,0.04176848587731859
41.992,0.044244171071834
41.992999999999995,0.04345474812458257
41.994,0.03988472817017285
41.995,0.03410098604062309
41.995999999999995,0.026591815901789193
41.997,0.017705560710084913
41.998,0.007708684032603346
41.998999999999995,0.0030669249919150587
42.0,0.014057857401303461
42.001,0.024369463735779674
42.001999999999995,0.03280992010403096
42.003,0.03807989940288484
42.004,0.0390812406974792
42.004999999999995,0.03525722420878595
42.006,0.026852787220711608
42.007,0.014995786457384206
42.007999999999996,0.0015483503297631374
42.009,0.011253675460999037
42.01,0.021287218559807954
42.010999999999996,0.027024091822371046
42.012,0.027873257295550232
42.013,0.024284858023384
42.013999999999996,0.017586161531472376
42.015,0.009598227071910131
42.016,0.0021460343736568483
42.016999999999996,0.0033962613094503133
42.018,0.006398273601236715
42.019,0.007031410412133452
42.019999999999996,0.006093201494935531
42.021,0.0046700514958344895
42.022,0.003755439135443496
42.022999999999996,0.003946004525913661
42.024,0.005303815245028694
42.025,0.007412355583176929
42.025999999999996,0.009587788838476014
42.027,0.011158080602551582
42.028,0.011706287132695083
42.028999999999996,0.011194608809174268
42.03,0.009933898209683397
42.031,0.008421172405807467
42.032,0.007114596632583284
42.033,0.006235272641651099
42.034,0.005671956462497855
42.035,0.005024406646803009
42.036,0.003768743622933794
42.037,0.0014830716856816266
42.038,0.001950331004168146
42.039,0.006241405632674036
42.04,0.010727148171693263
42.041,0.014535869312654711
42.042,0.01682705155013969
42.043,0.017027962909321726
42.044,0.014991217659409889
42.045,0.011026574907946257
42.046,0.0058042355680803315
42.047,0.00016959663335211177
42.048,0.005064271583795444
42.049,0.009278902916384488
42.05,0.012122968165059908
42.051,0.013488204207054601
42.052,0.013419362336211726
42.053,0.01201182070424602
42.054,0.009350564147130485
42.055,0.0055217397713059925
42.056,0.0006920578980475456
42.056999999999995,0.004783706318612084
42.058,0.010286707363578524
42.059,0.014945061119596868
42.059999999999995,0.01775961501226482
42.061,0.017829683110861756
42.062,0.014621911519821553
42.062999999999995,0.008199429076032093
42.064,0.0006708948887350025
42.065,0.010586215776196539
42.065999999999995,0.01975425668211286
42.067,0.026367958293083946
42.068,0.029015555137720948
42.068999999999996,0.027017658028691247
42.07,0.02059910145366512
42.071,0.010846998069390053
42.071999999999996,0.0005353860585312615
42.073,0.01161405372973773
42.074,0.02064797803582124
42.074999999999996,0.026443116526271543
42.076,0.028552018054518798
42.077,0.027279774389748893
42.077999999999996,0.023510683317438226
42.079,0.018416127192719088
42.08,0.013130420762372162
42.080999999999996,0.00848196546911434
42.082,0.004843958130165761
42.083,0.002130621595423242
42.083999999999996,7.665458016005623e-05
42.085,0.0023221934182018392
42.086,0.005053882479017762
42.086999999999996,0.008449940882796108
42.088,0.01234008324413046
42.089,0.016238108439648232
42.089999999999996,0.019472582578998407
42.091,0.021377495738218462
42.092,0.021490774529575533
42.092999999999996,0.01970755926296217
42.094,0.016346525020727597
42.095,0.012108254255679084
42.096,0.00793026222406967
42.097,0.004768514705375497
42.098,0.0033549249136138526
42.099,0.003989855152517307
42.1,0.0064250982123083755
42.101,0.009875583558692908
42.102,0.01316959210011577
42.103,0.015013151656559759
42.104,0.014312476172652982
42.105,0.010477445245007409
42.106,0.003626200131745334
42.107,0.005371011737828014
42.108,0.015034077384476438
42.109,0.023579776556384345
42.11,0.029326274105238647
42.111,0.031097871491310013
42.112,0.028526212027004727
42.113,0.022165736476890137
42.114,0.01338641641402843
42.115,0.00406419076720705
42.116,0.0038565233898750243
42.117,0.00881868493667962
42.117999999999995,0.010011237757179806
42.119,0.007540154396578104
42.12,0.0023713863972862157
42.120999999999995,0.003934469166358601
42.122,0.009622055948884954
42.123,0.013169374406741844
42.123999999999995,0.013635012888451894
42.125,0.010842050238282006
42.126,0.005363551793172741
42.126999999999995,0.0016716284868743812
42.128,0.008889092739460187
42.129,0.01500719275986489
42.129999999999995,0.01911656522229407
42.131,0.020838098514055492
42.132,0.020334392359461818
42.132999999999996,0.018189647003589927
42.134,0.015203822197998864
42.135,0.012161875516730026
42.135999999999996,0.00963645955828077
42.137,0.00786621863191989
42.138,0.00672845845027089
42.138999999999996,0.005801632266936781
42.14,0.004495192007664374
42.141,0.00221436194884315
42.141999999999996,0.0014750078704886653
42.143,0.0067131200149113295
42.144,0.01326934641095343
42.144999999999996,0.020537830483912282
42.146,0.027610901740294146
42.147,0.03342297736080794
42.147999999999996,0.03694365997616754
42.149,0.03738557509413987
42.15,0.03438371212877778
42.150999999999996,0.02810267383298017
42.152,0.019239056280917356
42.153,0.008907935646778534
42.153999999999996,0.0015689907615686058
42.155,0.010928136580315
42.156,0.018217669632738437
42.157,0.02297422833739665
42.158,0.025274333162417843
42.159,0.025645552187863893
42.16,0.024862826756895863
42.161,0.023690320350007822
42.162,0.0226470921174746
42.163,0.021868907404914144
42.164,0.02110914410391862
42.165,0.019877430609017557
42.166,0.017669246808959895
42.167,0.014208219459369663
42.168,0.009616293994144858
42.169,0.004448524184012407
42.17,0.0004272706351123267
42.171,0.004074044261535715
42.172,0.0057774548665806506
42.173,0.005291919762138301
42.174,0.002957623405137184
42.175,0.0003558991275878453
42.176,0.0034696649502395475
42.177,0.005216415775392813
42.178,0.004767746501197853
42.179,0.0018689390692286788
42.18,0.003088441932688328
42.181,0.009175797225554951
42.181999999999995,0.01518226257016274
42.183,0.019935316361668218
42.184,0.022590530161777596
42.184999999999995,0.02280796048727598
42.186,0.02077250011143989
42.187,0.017067006060926433
42.187999999999995,0.01245276023769033
42.189,0.00763685498485105
42.19,0.0031030065353327197
42.190999999999995,0.0009464841148822924
42.192,0.004533207790322191
42.193,0.007767175366459169
42.193999999999996,0.01069698130587019
42.195,0.013210477836999199
42.196,0.01502787664546805
42.196999999999996,0.01579109151626835
42.198,0.015214241368349552
42.199,0.013234925471048094
42.199999999999996,0.010103412855444806
42.201,0.006368134703644034
42.202,0.002753114155754193
42.202999999999996,3.7262421603901384e-05
42.204,0.0015228108276493985
42.205,0.0015922100768786995
42.205999999999996,0.0005369312120453702
42.207,0.0010399193254812835
42.208,0.002412283012814611
42.208999999999996,0.0029569640723044505
42.21,0.0023437355157055217
42.211,0.0006290447497419824
42.211999999999996,0.0017749344043237547
42.213,0.004242656968248312
42.214,0.006139355515194057
42.214999999999996,0.007018362450841937
42.216,0.006747438390148324
42.217,0.005525832119953384
42.217999999999996,0.0037918454556172643
42.219,0.0020576522570173025
42.22,0.0007314657436752243
42.221,1.0751823599445278e-05
42.222,0.0002611689903376755
42.223,0.0003142972749038131
42.224,0.0005263176698819867
42.225,0.0011523466457899697
42.226,0.002221758496814684
42.227,0.0034980202075377176
42.228,0.004539831985608771
42.229,0.004844974701190907
42.23,0.004029177695408133
42.231,0.0019792745269064933
42.232,0.0010728271994847772
42.233,0.00458376711341148
42.234,0.007833750714621737
42.235,0.010123883527333132
42.236,0.010976076375778018
42.237,0.010273800505708126
42.238,0.00829916512017063
42.239,0.005652693995020513
42.24,0.003077260491746336
42.241,0.0012363386934628603
42.242,0.0005106562334353035
42.242999999999995,0.0008726744888807124
42.244,0.001876740443425135
42.245,0.002770669061968853
42.245999999999995,0.0027010482334881318
42.247,0.0009588660231037245
42.248,0.002799166095164925
42.248999999999995,0.008412401902323952
42.25,0.015199075468096448
42.251,0.022067826010531002
42.251999999999995,0.027733877005731357
42.253,0.030990425817909933
42.254,0.03097274049536808
42.254999999999995,0.02735450335432485
42.256,0.02043217095946759
42.257,0.011079318885467523
42.257999999999996,0.000582697391653116
42.259,0.009602006834460773
42.26,0.018119966416186805
42.260999999999996,0.02395426246264645
42.262,0.026581920733059407
42.263,0.026021460801025107
42.263999999999996,0.022770621491971624
42.265,0.017657804392366024
42.266,0.011648294696539573
42.266999999999996,0.005652469024363527
42.268,0.00037713012338828515
42.269,0.0037546865846087726
42.269999999999996,0.006610531283044263
42.271,0.008296042167328975
42.272,0.009069370169470521
42.272999999999996,0.009251298079371192
42.274,0.009153140789023356
42.275,0.00903208036760453
42.275999999999996,0.009070646063499638
42.277,0.009368686357083234
42.278,0.009935454341210903
42.278999999999996,0.010676177516141899
42.28,0.011378320457914967
42.281,0.011712293170121225
42.282,0.011264326326317147
42.283,0.00961265425424626
42.284,0.006442853466598091
42.285,0.0016789718085690746
42.286,0.004408687211540574
42.287,0.01116320960685533
42.288,0.01760183786682768
42.289,0.022586316129061722
42.29,0.025077277183168857
42.291,0.02441465740170812
42.292,0.020546543401592635
42.293,0.014130820737974264
42.294,0.006460119302540611
42.295,0.0007942032956196889
42.296,0.005970785152849399
42.297,0.007847144754645012
42.298,0.005994574984008639
42.299,0.0009546879695730849
42.3,0.005825796714787266
42.301,0.012303088393018932
42.302,0.016321404155578596
42.303,0.016157148889324017
42.304,0.010982566055763357
42.305,0.0011254457067270682
42.306,0.011947833920205236
42.306999999999995,0.02592705923778967
42.308,0.03815921449101816
42.309,0.04623093066201971
42.309999999999995,0.04848823082575938
42.311,0.044369205010135665
42.312,0.034477660475890994
42.312999999999995,0.02039530005121725
42.314,0.004296576895973591
42.315,0.011524363131142653
42.315999999999995,0.025092760327213914
42.317,0.03505811314318769
42.318,0.04081174204665587
42.318999999999996,0.04242091634698749
42.32,0.04043276152526556
42.321,0.03562897588630081
42.321999999999996,0.0288123604585764
42.323,0.02068108334014572
42.324,0.01180686833633063
42.324999999999996,0.0026931840148600923
42.326,0.006137655224730315
42.327,0.014085617828160358
42.327999999999996,0.020483756038345718
42.329,0.024689351834200214
42.33,0.02623168397328541
42.330999999999996,0.024966884192048584
42.332,0.021182052982205626
42.333,0.01560282501676567
42.333999999999996,0.009286883717476008
42.335,0.003421188472652147
42.336,0.0009285589080895092
42.336999999999996,0.00305124179239343
42.338,0.0027444621819690297
42.339,0.00034878821727644623
42.339999999999996,0.003345706705560674
42.341,0.0072940710023940555
42.342,0.0104400175429211
42.342999999999996,0.011946171071289986
42.344,0.011356604019777084
42.345,0.008659376741877165
42.346,0.004245797709312527
42.347,0.0012099882975705799
42.348,0.006910304535586173
42.349,0.01208790941554445
42.35,0.016120087149729706
42.351,0.018586544205462695
42.352,0.019274707680818702
42.353,0.0181509561438154
42.354,0.01532194239144696
42.355,0.011005771914344533
42.356,0.005521245772771573
42.357,0.0007101235584540301
42.358,0.007164474111362657
42.359,0.013235766298025092
42.36,0.018286984474057775
42.361,0.02173125551072342
42.362,0.02312807812550869
42.363,0.02227019628518459
42.364,0.01923507435675491
42.365,0.014382635958304024
42.366,0.00829573689608413
42.367,0.0016768891715009991
42.368,0.004771858172860396
42.369,0.01045409039121873
42.37,0.01494309360098964
42.370999999999995,0.017993156808174298
42.372,0.019504912602800222
42.373,0.019467415369212628
42.373999999999995,0.017907084089844524
42.375,0.014869494388176738
42.376,0.010445271916902836
42.376999999999995,0.004830984350730277
42.378,0.001602624578055721
42.379,0.008272107515268053
42.379999999999995,0.014405153048649142
42.381,0.019141316738201894
42.382,0.02169736563481558
42.382999999999996,0.02155826447512889
42.384,0.018637932982186745
42.385,0.013354058994888965
42.385999999999996,0.006580514062024701
42.387,0.0005250738064124112
42.388,0.00678214531686844
42.388999999999996,0.0112687025284969
42.39,0.013543149708470842
42.391,0.013738100449763882
42.391999999999996,0.012492409486928235
42.393,0.010735566008435992
42.394,0.009385172852307208
42.394999999999996,0.009048397144930042
42.396,0.009821233112421777
42.397,0.01125258118077989
42.397999999999996,0.012490485204724991
42.399,0.012570175306025874
42.4,0.010756047561425501
42.400999999999996,0.006828221075417834
42.402,0.0012170305251302674
42.403,0.005066786881556129
42.403999999999996,0.010695267851068916
42.405,0.014406381136970181
42.406,0.015392161889133577
42.407,0.013570128962483273
42.408,0.009647916358692511
42.409,0.004952170436696619
42.41,0.0010648545866654762
42.411,0.0006293565376298083
42.412,0.0006487333539117171
42.413,0.004831269685250284
42.414,0.011001640844781788
42.415,0.017634107834828064
42.416,0.023003990332031026
42.417,0.02564749083447041
42.418,0.02473773926860196
42.419,0.020272251109182883
42.42,0.01302703971292155
42.421,0.0043045083667482475
42.422,0.004437094226074471
42.423,0.011954400466309354
42.424,0.017479999142908167
42.425,0.02080709585297864
42.426,0.022193171671778807
42.427,0.022137910994385845
42.428,0.021128217551883387
42.429,0.01944655332244293
42.43,0.017108323813747984
42.431,0.013941520537369672
42.431999999999995,0.009766627048933413
42.433,0.004596752980167771
42.434,0.0012294794391145855
42.434999999999995,0.007044247142614023
42.436,0.011988962898017328
42.437,0.01525312315498397
42.437999999999995,0.016331529133351393
42.439,0.015206725265151263
42.44,0.012386113112738666
42.440999999999995,0.008772030137872982
42.442,0.0054011496051288455
42.443,0.0031363491580271192
42.443999999999996,0.00241289982706207
42.445,0.0031243190656757304
42.446,0.004686699499278566
42.446999999999996,0.006259591996613181
42.448,0.007047610374084735
42.449,0.006578745437127604
42.449999999999996,0.0048630774688331185
42.451,0.002376897275075303
42.452,0.00012183677583714797
42.452999999999996,0.001881290937504233
42.454,0.0024441091486675256
42.455,0.0018318880130436803
42.455999999999996,0.0005562355080291927
42.457,0.0005531529864533131
42.458,0.0006483502830303137
42.458999999999996,0.0008110109384409783
42.46,0.0038207275373328127
42.461,0.00777197158354317
42.461999999999996,0.011598868914107545
42.463,0.01409487805179677
42.464,0.0143008579430073
42.464999999999996,0.011840374678001048
42.466,0.007090932958225719
42.467,0.001129563920438054
42.467999999999996,0.004538418392231704
42.469,0.008390418890042509
42.47,0.009316085626813417
42.471,0.006938032359194394
42.472,0.0017299223001034745
42.473,0.0051001168886834255
42.474,0.011922717738453666
42.475,0.017102926722621384
42.476,0.01939871525949401
42.477,0.01823467632048899
42.478,0.013786671086812054
42.479,0.006872684925892372
42.48,0.001298983267637736
42.481,0.009438058177073815
42.482,0.016446067018375827
42.483,0.021588279974874953
42.484,0.024538368309171107
42.485,0.025314380012172497
42.486,0.024155735255376003
42.487,0.021399839024046855
42.488,0.017403046264893137
42.489,0.012521841664245028
42.49,0.0071388834649614595
42.491,0.001697628077424079
42.492,0.003293551310433831
42.493,0.007311186014424099
42.494,0.00991683634379661
42.495,0.010876882928177579
42.495999999999995,0.01025583184150204
42.497,0.008439861773234802
42.498,0.0060683670145704706
42.498999999999995,0.003883049700730738
42.5,0.002534937806857416
42.501,0.0024078111375631073
42.501999999999995,0.0035145908503170036
42.503,0.005501206655255592
42.504,0.007757609484918567
42.504999999999995,0.009600087902956229
42.506,0.010465489807281179
42.507,0.010054859289756822
42.507999999999996,0.00838264468402433
42.509,0.00572150493825019
42.51,0.002469798557528076
42.510999999999996,0.0010042090851805558
42.512,0.004480315484850092
42.513,0.007920944904965649
42.513999999999996,0.011409413015340687
42.515,0.015017137285671911
42.516,0.01865471505810662
42.516999999999996,0.02197184387168095
42.518,0.024357107444223057
42.519,0.025054797278334675
42.519999999999996,0.0233735050047252
42.521,0.01892493178892314
42.522,0.011814289439879534
42.522999999999996,0.002712656835607339
42.524,0.007225176020930424
42.525,0.016586648295169138
42.525999999999996,0.024014355336023974
42.527,0.028519376837283575
42.528,0.02970502638928835
42.528999999999996,0.027835710532539526
42.53,0.023730921126947174
42.531,0.018516295484369682
42.532,0.013305925685416577
42.533,0.008909528294106565
42.534,0.0056488207755577766
42.535,0.0033326890235577103
42.536,0.0013916052190374737
42.537,0.0008763196455719415
42.538,0.004027538549381014
42.539,0.008250417515229523
42.54,0.01326497407443934
42.541,0.01837285332892063
42.542,0.02263899739203597
42.543,0.025147493528464775
42.544,0.025254088384941132
42.545,0.022762056788017994
42.546,0.017974083776461553
42.547,0.01161158289169313
42.548,0.004632002437741467
42.549,0.0019977147265968745
42.55,0.007504955324780426
42.551,0.011438184176989438
42.552,0.013690048501609172
42.553,0.014424137436935686
42.554,0.01394180284268405
42.555,0.012541026725459484
42.556,0.010417256667554928
42.556999999999995,0.007637978101200798
42.558,0.0041950231424201095
42.559,0.00011042139362329511
42.559999999999995,0.004448015363013833
42.561,0.009090108353141951
42.562,0.013203228205522966
42.562999999999995,0.016042297597029954
42.564,0.016894144076243
42.565,0.01527462664767736
42.565999999999995,0.011102496902050391
42.567,0.00479551993813777
42.568,0.0027479383869992036
42.568999999999996,0.010289360482724086
42.57,0.01648704439022332
42.571,0.02017643102925111
42.571999999999996,0.020626223066605477
42.573,0.017705961955757268
42.574,0.011921298435761698
42.574999999999996,0.004306020095583845
42.576,0.0038035968871431053
42.577,0.011056206909232643
42.577999999999996,0.01636292307484437
42.579,0.019096711593743185
42.58,0.01916735580751659
42.580999999999996,0.01696026966461551
42.582,0.01316500565940941
42.583,0.00854912776985788
42.583999999999996,0.003746493538639433
42.585,0.0008781341166904015
42.586,0.005251850462649053
42.586999999999996,0.009503943278919737
42.588,0.013800217193088752
42.589,0.01816238969447654
42.589999999999996,0.022338810959194204
42.591,0.02577648827505023
42.592,0.027711531437604537
42.592999999999996,0.027355987564279146
42.594,0.024126207338379835
42.595,0.01784223683530304
42.596,0.008834742549993753
42.597,0.0020762225543324536
42.598,0.013726549173919345
42.599,0.02483475915200471
42.6,0.03424266828951647
42.601,0.041100490660044446
42.602,0.044948112862632145
42.603,0.045681771868639
42.604,0.04343608331551047
42.605,0.038440757219947524
42.606,0.030918457429812488
42.607,0.02107178974224386
42.608,0.009169186600692478
42.609,0.004305132894442655
42.61,0.01850640528715837
42.611,0.03216948281368773
42.612,0.04369392800093342
42.613,0.0513885731167239
42.614,0.053832778503799486
42.615,0.05026184930046741
42.616,0.04086009109216431
42.617,0.026857588526448487
42.618,0.01037506002386174
42.619,0.005967974502238797
42.62,0.019594466433619326
42.620999999999995,0.028523340662005656
42.622,0.031787298235387874
42.623,0.029600768373213994
42.623999999999995,0.02323320652471401
42.625,0.014627178255862341
42.626,0.005873798662109403
42.626999999999995,0.001302863249499569
42.628,0.005908239076623689
42.629,0.007793887328829582
42.629999999999995,0.007514557341237278
42.631,0.00599293621015204
42.632,0.0041163593252099145
42.632999999999996,0.0024048903272452286
42.634,0.000859334848088006
42.635,0.0009679365690290514
42.635999999999996,0.003714531622887074
42.637,0.007861286282665941
42.638,0.013425659879284749
42.638999999999996,0.019808671526742084
42.64,0.025855517936415006
42.641,0.030117227888674544
42.641999999999996,0.031233292203951768
42.643,0.028315692449358963
42.644,0.021215675282375942
42.644999999999996,0.010594466011494077
42.646,0.00221681945621516
42.647,0.015516991902625796
42.647999999999996,0.027597931882446403
42.649,0.03706405323866613
42.65,0.043026729266522526
42.650999999999996,0.04514290387262507
42.652,0.043522955450058194
42.653,0.03857337377853048
42.653999999999996,0.030850971979176252
42.655,0.02098485812674069
42.656,0.009680168133222795
42.657,0.0022281779132113312
42.658,0.013733297438366451
42.659,0.023688312503121263
42.66,0.030945626793801737
42.661,0.03458781330709265
42.662,0.03418546838999407
42.663,0.029988940380246663
42.664,0.02296669424615108
42.665,0.01464455181493432
42.666,0.006764781900485225
42.667,0.0008498281177906854
42.668,0.0022019050728965396
42.669,0.00235881351320326
42.67,0.0004506003261231973
42.671,0.0020969289180623103
42.672,0.0037142553923437066
42.673,0.0031909797681658417
42.674,7.079413689556487e-05
42.675,0.005189525280299018
42.676,0.011351637065516626
42.677,0.01677868155245405
42.678,0.019948344640846244
42.679,0.019930801837138135
42.68,0.01667694579703084
42.681,0.01102415980757743
42.681999999999995,0.004419818116526345
42.683,0.0015443007755177156
42.684,0.005631633104278858
42.684999999999995,0.007329523858799014
42.686,0.00696738570269694
42.687,0.005549876448790565
42.687999999999995,0.0043667211281128515
42.689,0.004515266418080682
42.69,0.006499668857792425
42.690999999999995,0.010042731751653208
42.692,0.014172747209466133
42.693,0.01755365898818445
42.693999999999996,0.01894450550604841
42.695,0.017631184933859272
42.696,0.013684148660305916
42.696999999999996,0.007955410060453524
42.698,0.0018163993750007843
42.699,0.0032753808899145345
42.699999999999996,0.00623718121739633
42.701,0.006698502637822842
42.702,0.005107295592311184
42.702999999999996,0.0025741526283134804
42.704,0.0005089360029747413
42.705,0.00016903076399451498
42.705999999999996,0.00226232180048758
42.707,0.006725029287483512
42.708,0.01273448703024441
42.708999999999996,0.018941367966454445
42.71,0.023840198011522828
42.711,0.026161780257822724
42.711999999999996,0.025175337512661558
42.713,0.020826899185008487
42.714,0.013697671849537631
42.714999999999996,0.004821036514047983
42.716,0.004568527385868789
42.717,0.01327587920449797
42.717999999999996,0.020317786475591973
42.719,0.02500698373161322
42.72,0.026962789180837388
42.721,0.026084461394049508
42.722,0.022523656280975635
42.723,0.016674556504689228
42.724,0.009174900680611765
42.725,0.0008913280741031717
42.726,0.007141714697344568
42.727,0.013845929910219634
42.728,0.018275181259038216
42.729,0.019804341828041486
42.73,0.01827512308443946
42.731,0.014046915972325928
42.732,0.0079257515857986
42.733,0.0009827168574109966
42.734,0.005689340906199819
42.735,0.011209631441233985
42.736,0.015064610627459039
42.737,0.01714207645650816
42.738,0.017643869129046825
42.739,0.016919161544482225
42.74,0.015286947678238662
42.741,0.012917110164095046
42.742,0.009813855313920776
42.743,0.005902903218249709
42.744,0.0011807972861266791
42.745,0.004142222122323898
42.745999999999995,0.009574315849644124
42.747,0.014390061523238394
42.748,0.0177902296252841
42.748999999999995,0.019123677521822764
42.75,0.018093617527976908
42.751,0.01487135739134583
42.751999999999995,0.01007111003887639
42.753,0.0045888959813096385
42.754,0.0006414613252586497
42.754999999999995,0.004890901754171944
42.756,0.0077918193129449
42.757,0.009356583947871436
42.757999999999996,0.009858544150975463
42.759,0.009630011311816285
42.76,0.008865483345170698
42.760999999999996,0.007517961185418376
42.762,0.005340225870886719
42.763,0.002063711983627088
42.763999999999996,0.002352853174287591
42.765,0.007510825537974078
42.766,0.012499716977033736
42.766999999999996,0.016027834845126248
42.768,0.016745810180858536
42.769,0.01367768629086981
42.769999999999996,0.006622296208475405
42.771,0.003619644730885112
42.772,0.015293894360737907
42.772999999999996,0.026035255459210774
42.774,0.03342792387362225
42.775,0.03563111006014709
42.775999999999996,0.031887247557671784
42.777,0.02275780300200611
42.778,0.010009982016566964
42.778999999999996,0.003818064430879539
42.78,0.016049265818430383
42.781,0.024515023559381743
42.782,0.02803601101519866
42.783,0.026611044472454243
42.784,0.02128235775798877
42.785,0.013744714489694025
42.786,0.005837730595003988
42.787,0.0009168234839695229
42.788,0.005602827752065806
42.789,0.007964836171872347
42.79,0.008257256650413198
42.791,0.006981704059576465
42.792,0.004633137385376442
42.793,0.0015545075241842463
42.794,0.002057936235674787
42.795,0.006026740912269009
42.796,0.010025601325256372
42.797,0.013472811281925661
42.798,0.015561087612393262
42.799,0.015440244980365602
42.8,0.012500574651572633
42.801,0.006653838877193017
42.802,0.001503367875311754
42.803,0.01072600793144724
42.804,0.019371242550044753
42.805,0.025800090282982337
42.806,0.028807971752447627
42.806999999999995,0.02794474425762509
42.808,0.023617100167523247
42.809,0.016937774828651855
42.809999999999995,0.009371910670409772
42.811,0.002300379542920613
42.812,0.003352474335816552
42.812999999999995,0.007303859442778983
42.814,0.009856072377124705
42.815,0.0116322135198622
42.815999999999995,0.013213167989039501
42.817,0.014820178605725112
42.818,0.016169156506479782
42.818999999999996,0.01655747305214966
42.82,0.01515498560569802
42.821,0.011391100936039945
42.821999999999996,0.005288567907442048
42.823,0.002391584888151126
42.824,0.0102648523590734
42.824999999999996,0.016675629713600676
42.826,0.02017700620167125
42.827,0.01997710433981777
42.827999999999996,0.016196920627057156
42.829,0.0098461202217545
42.83,0.002519395885921005
42.830999999999996,0.004087025149172018
42.832,0.008676007029940005
42.833,0.010698234653437886
42.833999999999996,0.010433439778620416
42.835,0.00878321106698431
42.836,0.0068569954872485656
42.836999999999996,0.005506644918469942
42.838,0.004983159806554725
42.839,0.00484503324280031
42.839999999999996,0.004156017634184473
42.841,0.0019035342306204124
42.842,0.002514627020211978
42.842999999999996,0.008917923981680216
42.844,0.016232850605846484
42.845,0.02270422771693739
42.846,0.02637540444349047
42.847,0.025688412334819825
42.848,0.02000819750671365
42.849,0.00989451138823726
42.85,0.0029751596686595724
42.851,0.016215026267965924
42.852,0.027348019609692683
42.853,0.03443917519893434
42.854,0.036551575422470214
42.855,0.03389253135768246
42.856,0.02762150956314083
42.857,0.019401649748228052
42.858,0.01085616877465921
42.859,0.0031134373552890574
42.86,0.0034159077046839238
42.861,0.008973993501674457
42.862,0.014150113675010878
42.863,0.019464205041155633
42.864,0.025003042478760482
42.865,0.030247921758328144
42.866,0.03415939867819419
42.867,0.03549018221098324
42.868,0.03321526129559757
42.869,0.026927186798806842
42.87,0.017057429054800205
42.870999999999995,0.004845850658579905
42.872,0.007933106990325409
42.873,0.01939778445318535
42.873999999999995,0.028002690570780538
42.875,0.03286126042237625
42.876,0.03385854131993567
42.876999999999995,0.03153944052187888
42.878,0.026833591627287656
42.879,0.020727200781570896
42.879999999999995,0.013999395131205303
42.881,0.007105366346158239
42.882,0.0002260031744874322
42.882999999999996,0.006561957706113329
42.884,0.013085527971562936
42.885,0.01894234579763593
42.885999999999996,0.023501194441334694
42.887,0.026045823539373767
42.888,0.02601165258882258
42.888999999999996,0.023224424223659737
42.89,0.018044216698413447
42.891,0.011349519622937372
42.891999999999996,0.00435267079499693
42.893,0.0017010807515571305
42.894,0.005855676426531615
42.894999999999996,0.007683037036828427
42.896,0.0073617477024263064
42.897,0.005573357934752057
42.897999999999996,0.0032556675686134947
42.899,0.0012991887226988582
42.9,0.0002886739206333454
42.900999999999996,0.00037135820465701065
42.902,0.0012855452388454138
42.903,0.0025253219859262335
42.903999999999996,0.003570549938383852
42.905,0.004092292161895677
42.906,0.004058466829328418
42.907,0.0037063232963632856
42.908,0.003401060491525898
42.909,0.003443628602096003
42.91,0.003909271737457456
42.911,0.00458511050108742
42.912,0.005035391644222023
42.913,0.004772139501325744
42.914,0.003466160150827623
42.915,0.0011149715315165558
42.916,0.0019024920251082481
42.917,0.00491410990735216
42.918,0.00716244595738488
42.919,0.008062827605194214
42.92,0.007420111752668569
42.921,0.005523252556247251
42.922,0.003077105129551593
42.923,0.0009871186197603344
42.924,6.50012244695407e-05
42.925,0.0007534280907488155
42.926,0.002964406768931072
42.927,0.00608958811155559
42.928,0.009183646594338398
42.929,0.01126322933521619
42.93,0.011623940767745915
42.931,0.010070225744791862
42.931999999999995,0.0069807125577002705
42.933,0.0031855120467344424
42.934,0.00030578448766595566
42.934999999999995,0.0026368293978585324
42.936,0.0033885291976887663
42.937,0.0027199580433091806
42.937999999999995,0.001317824879743119
42.939,0.00016811958471396848
42.94,0.0002213634686778898
42.940999999999995,0.0020579339714751
42.942,0.005661147956318705
42.943,0.010373014024500011
42.943999999999996,0.015051377657313356
42.945,0.018385297892319317
42.946,0.01927702316617538
42.946999999999996,0.01717841022653368
42.948,0.012282687607941687
42.949,0.005514451941851888
42.949999999999996,0.00168140667163779
42.951,0.007694781413837235
42.952,0.011153507091904331
42.952999999999996,0.011267611493117346
42.954,0.008026198349500836
42.955,0.00220001343176236
42.955999999999996,0.004845318479455253
42.957,0.01147257968031329
42.958,0.016148594337109988
42.958999999999996,0.01778006547980605
42.96,0.015933083139108482
42.961,0.010893034521086573
42.961999999999996,0.0035626849899902014
42.963,0.004765806087613258
42.964,0.012703131376360654
42.964999999999996,0.019048476704352273
42.966,0.023005988510488795
42.967,0.02429140851035022
42.967999999999996,0.023117261041572704
42.969,0.020073782058389594
42.97,0.01594482249496997
42.971,0.011508897536806558
42.972,0.007373900163583124
42.973,0.003881151255645607
42.974,0.0010941711145629198
42.975,0.0011350030967789272
42.976,0.0030485274565175136
42.977,0.004852763710859104
42.978,0.006615225339468899
42.979,0.008218949156652533
42.98,0.00938757849618533
42.981,0.00977366946196615
42.982,0.009083904924915258
42.983,0.007203177398487183
42.984,0.004278294732777389
42.985,0.0007320354530214249
42.986,0.002802968879532649
42.987,0.005618465376678584
42.988,0.0071006714844458
42.989,0.00689194630557626
42.99,0.004999590394755316
42.991,0.0018194707725102165
42.992,0.0019363581245940027
42.993,0.005393754830759909
42.994,0.007716102462859192
42.995,0.00830051878594935
42.995999999999995,0.006921817005622304
42.997,0.0037882417676843765
42.998,0.0005047820998281691
42.998999999999995,0.005111071238475941
43.0,0.009126300538355949
43.001,0.011789812047908677
43.001999999999995,0.012647813379710144
43.003,0.011641326048569416
43.004,0.009101959958317685
43.004999999999995,0.005661384916540157
43.006,0.0021002978087019484
43.007,0.0008250501856436398
43.007999999999996,0.0025385487801197694
43.009,0.002749534090345272
43.01,0.001489643046328466
43.010999999999996,0.0009196379027691772
43.012,0.003954198876879641
43.013,0.007004679694361127
43.013999999999996,0.009496230012779659
43.015,0.010986421421447467
43.016,0.011225348147340839
43.016999999999996,0.010172224947098817
43.018,0.007972356882807289
43.019,0.004905261115016195
43.019999999999996,0.0013181178031227469
43.021,0.0024411740942674224
43.022,0.006079357300209049
43.022999999999996,0.00939321023769343
43.024,0.012280620898553113
43.025,0.014727010209246185
43.025999999999996,0.016770703026957937
43.027,0.018454658538952947
43.028,0.01977539692245407
43.028999999999996,0.020642286383544158
43.03,0.02086052858163563
43.031,0.02014817664457761
43.032,0.018190895079482215
43.033,0.014728565623409273
43.034,0.009657193209144745
43.035,0.0031208442300956368
43.036,0.004435186562376312
43.037,0.012274665516622473
43.038,0.019456468778329218
43.039,0.024989963498163247
43.04,0.02803259007374944
43.041,0.028085734482142355
43.042,0.02513792357192233
43.043,0.019710840883441893
43.044,0.012783879544809916
43.045,0.005602945195335053
43.046,0.0005885608182813872
43.047,0.004833461751350145
43.048,0.006686219262854041
43.049,0.006316988915885553
43.05,0.004460088222946048
43.051,0.0022135207264827347
43.052,0.000738030763760943
43.053,0.0009346474530779247
43.054,0.0031890205135807867
43.055,0.007255019532179298
43.056,0.012312453138635106
43.056999999999995,0.017184611232674656
43.058,0.02065495148421617
43.059,0.021792753535408053
43.059999999999995,0.020194424217612007
43.061,0.016071995171502835
43.062,0.01016617904704428
43.062999999999995,0.003514347599889774
43.064,0.002852427988907561
43.065,0.008188408958137541
43.065999999999995,0.012202519058249412
43.067,0.015068455891113589
43.068,0.017278069731014284
43.068999999999996,0.019391589817380855
43.07,0.02177189828873761
43.071,0.024395138316514617
43.071999999999996,0.02680464418873312
43.073,0.028227585534810393
43.074,0.02781931017579931
43.074999999999996,0.024957002878765167
43.076,0.019486297846241098
43.077,0.01183796457216958
43.077999999999996,0.0029724728480948824
43.079,0.0058350861657458526
43.08,0.01330641425457167
43.080999999999996,0.01847398569406915
43.082,0.02090350304044012
43.083,0.020760386243318666
43.083999999999996,0.018705480674965486
43.085,0.015658411963870453
43.086,0.012506629212302917
43.086999999999996,0.00985177080324347
43.088,0.007869012687687632
43.089,0.006315762440768933
43.089999999999996,0.004677108039039369
43.091,0.0023930979610535014
43.092,0.0009094232801732907
43.092999999999996,0.005253987784475702
43.094,0.010267364012687267
43.095,0.0152551523473647
43.096,0.019368777129114077
43.097,0.021807922750077938
43.098,0.021998454961803575
43.099,0.0197015998361648
43.1,0.015037919097803375
43.101,0.008438177949917922
43.102,0.0005521698475916013
43.103,0.007849739280247316
43.104,0.01595829206142971
43.105,0.0229846636933302
43.106,0.028208683601403845
43.107,0.031034267425513958
43.108,0.03106419596027464
43.109,0.028189677446074545
43.11,0.022670714948000666
43.111,0.01517087791739569
43.112,0.006712158323778248
43.113,0.0014658659277235813
43.114,0.008128195242159186
43.115,0.012302058224517808
43.116,0.013503418232999862
43.117,0.011864841548345067
43.118,0.008118978511821086
43.119,0.0034309452319824154
43.12,0.0008826717074249518
43.120999999999995,0.0036751546125176004
43.122,0.0042442172512568484
43.123,0.0024851251733217466
43.123999999999995,0.0011167939325116968
43.125,0.005646148716510835
43.126,0.010018077313310569
43.126999999999995,0.013261113125069451
43.128,0.014742890050527022
43.129,0.01428265942179344
43.129999999999995,0.01213354031968324
43.131,0.008858121729242368
43.132,0.005149860757805104
43.132999999999996,0.0016610287940406732
43.134,0.0011150879616221637
43.135,0.0028875582610555614
43.135999999999996,0.00354696335703084
43.137,0.003112042796030712
43.138,0.0016806728298322283
43.138999999999996,0.0005895980424910734
43.14,0.003468187238695549
43.141,0.006623883532973081
43.141999999999996,0.00961334872328551
43.143,0.011912185058731558
43.144,0.01299696744564547
43.144999999999996,0.012462060379256654
43.146,0.010134814834711571
43.147,0.006146354181842702
43.147999999999996,0.0009266204110484808
43.149,0.004881764786357851
43.15,0.01056578236326458
43.150999999999996,0.015492765825507489
43.152,0.019217216084743444
43.153,0.021507766634132633
43.153999999999996,0.02229080362149862
43.155,0.021543267570770346
43.156,0.01919193457508191
43.157,0.015078481904850255
43.158,0.009025676818279127
43.159,0.00099720765196983
43.16,0.008702464922727813
43.161,0.019272766598562023
43.162,0.029391822414996542
43.163,0.037373873532846956
43.164,0.04150246969961871
43.165,0.04046629007071497
43.166,0.03377478909118823
43.167,0.02201787115652106
43.168,0.006866129910140789
43.169,0.009220870804313785
43.17,0.023522093972771475
43.171,0.033684242571169636
43.172,0.03827836520434176
43.173,0.037122488438181854
43.174,0.03127353687658968
43.175,0.02268915423643282
43.176,0.013659557063377022
43.177,0.006179049121576452
43.178,0.0014433261721472279
43.179,0.00038359354562290243
43.18,7.645690146895682e-05
43.181,0.0010224757807569763
43.181999999999995,0.0015190220915143652
43.183,0.0004524381848005836
43.184,0.00240619435760196
43.184999999999995,0.006530204669722039
43.186,0.010879795335324575
43.187,0.014312383475849105
43.187999999999995,0.016008988047657897
43.189,0.015765134023153944
43.19,0.014047335394970465
43.190999999999995,0.01180161277428339
43.192,0.010088291761998444
43.193,0.009676953767496431
43.193999999999996,0.010746798683685372
43.195,0.012798033690672108
43.196,0.014804311876888382
43.196999999999996,0.015551987121423364
43.198,0.014048631654633492
43.199,0.009862338278566408
43.199999999999996,0.0032807656846654703
43.201,0.004756520671408263
43.202,0.012921008895398756
43.202999999999996,0.019858709592293102
43.204,0.02453194808488256
43.205,0.026433756186617863
43.205999999999996,0.025621293359792664
43.207,0.022581920429341786
43.208,0.01800261160321241
43.208999999999996,0.012540020591719086
43.21,0.006676600840905226
43.211,0.0007043926623299383
43.211999999999996,0.005179086457251145
43.213,0.010726019901633613
43.214,0.0155271725389062
43.214999999999996,0.019001258463971882
43.216,0.020507234567836576
43.217,0.019547116392074588
43.217999999999996,0.015983698813025023
43.219,0.010183625034805213
43.22,0.003017888986118936
43.221,0.004298464393175348
43.222,0.010486546321848537
43.223,0.014516834960339751
43.224,0.015853515952843768
43.225,0.01455048047883061
43.226,0.011171456574448365
43.227,0.006569066009504392
43.228,0.0016069199429573633
43.229,0.0030735084281430787
43.23,0.007160412730729468
43.231,0.010624431441351345
43.232,0.013550265744256712
43.233,0.01593029049751441
43.234,0.017520048503461137
43.235,0.017832006478551862
43.236,0.016288126173533417
43.237,0.012484349088561343
43.238,0.0064669442323847595
43.239,0.0010966552021818895
43.24,0.008942569810192749
43.241,0.015456427923348533
43.242,0.019086663348983415
43.243,0.018804929154274827
43.244,0.014465167117935482
43.245,0.006934856482141838
43.245999999999995,0.0020612246883561515
43.247,0.010354185385375197
43.248,0.01588722024503198
43.248999999999995,0.017252785675809575
43.25,0.014052639063245454
43.251,0.006977593758421328
43.251999999999995,0.0024085477061973944
43.253,0.012105586107363658
43.254,0.02019485242904117
43.254999999999995,0.02528276180252499
43.256,0.026748930272509113
43.257,0.02474973443263572
43.257999999999996,0.020011207989752474
43.259,0.013510193702702802
43.26,0.0061681633898749534
43.260999999999996,0.0013385144542588496
43.262,0.008604611966474983
43.263,0.015380749624622308
43.263999999999996,0.021395129346051443
43.265,0.02621234183112216
43.266,0.02920954189271586
43.266999999999996,0.029697798390946183
43.268,0.027152228015089704
43.269,0.021463862546546007
43.269999999999996,0.013109008917809487
43.271,0.003155300921843878
43.272,0.006920524141635581
43.272999999999996,0.01556035962774501
43.274,0.021500668253940668
43.275,0.024078302257709638
43.275999999999996,0.023368453984243
43.277,0.020112000476246002
43.278,0.015459304829048686
43.278999999999996,0.01061724090612301
43.28,0.00651485861339031
43.281,0.0035912691960291667
43.282,0.0017623553417967885
43.283,0.0005587070921046902
43.284,0.000630612561799619
43.285,0.002304726122541929
43.286,0.004678284451088159
43.287,0.007641037033846989
43.288,0.0108459865344466
43.289,0.013872763632584474
43.29,0.016387714608496362
43.291,0.01823061314344123
43.292,0.019395412237561534
43.293,0.01992299240560647
43.294,0.01976619515834472
43.295,0.01870353647177383
43.296,0.01636029407347888
43.297,0.01235023250495484
43.298,0.006495728092931397
43.299,0.0009589362810865831
43.3,0.00923806905240402
43.301,0.017098912997642168
43.302,0.023081719332944988
43.303,0.0258880239799865
43.304,0.024774531946897892
43.305,0.019831077062205476
43.306,0.012037938407407262
43.306999999999995,0.0030637242530479076
43.308,0.005151079404722463
43.309,0.010906521775456817
43.309999999999995,0.013196478700446355
43.311,0.011961605856552877
43.312,0.008061956527799861
43.312999999999995,0.002978143224298792
43.314,0.0016631072367976779
43.315,0.004587349698418665
43.315999999999995,0.005237271256003457
43.317,0.0038924282210490175
43.318,0.0015141999501770958
43.318999999999996,0.0006237079420491378
43.32,0.0013910079337414298
43.321,0.00019105474000432617
43.321999999999996,0.002838846191086225
43.323,0.006873990686725567
43.324,0.010669268641734524
43.324999999999996,0.012949640801122311
43.326,0.01279265335886693
43.327,0.009882932058966681
43.327999999999996,0.004569390405116823
43.329,0.002273745978771966
43.33,0.009516667821577247
43.330999999999996,0.016072783446648066
43.332,0.02112750128021987
43.333,0.02423546455770971
43.333999999999996,0.025280866097773507
43.335,0.024347930905081656
43.336,0.021577747176099196
43.336999999999996,0.017083558448019596
43.338,0.010962805710997696
43.339,0.0033954880988478903
43.339999999999996,0.005224918697926074
43.341,0.014201921910224298
43.342,0.02255039945408515
43.342999999999996,0.029138630519086026
43.344,0.03293035573599661
43.345,0.03325544549900836
43.346,0.030018841249636368
43.347,0.023771498699633308
43.348,0.015609786971267478
43.349,0.006926054382888454
43.35,0.0009174202656459374
43.351,0.006893966407522423
43.352,0.010508916921554822
43.353,0.011836646851301164
43.354,0.011402073025551627
43.355,0.00996035440117382
43.356,0.008256645909916243
43.357,0.006844940820195254
43.358,0.006013988899802908
43.359,0.005822243309004865
43.36,0.006201275922908173
43.361,0.0070646460900100514
43.362,0.00836497064228818
43.363,0.010072587627322481
43.364,0.012091284612219127
43.365,0.014161876034028489
43.366,0.015817300760320015
43.367,0.016436637395556876
43.368,0.015405183949540591
43.369,0.012338965197105874
43.37,0.007294655353591747
43.370999999999995,0.0008766171658582171
43.372,0.005821812860458204
43.373,0.011452133705512225
43.373999999999995,0.014765363946651773
43.375,0.014983057363046622
43.376,0.012062947865016115
43.376999999999995,0.006762437099826641
43.378,0.0004641025344088552
43.379,0.005195091679485859
43.379999999999995,0.008781666559706112
43.381,0.009468020413201474
43.382,0.007250707374865499
43.382999999999996,0.00291403935536804
43.384,0.002248130100432259
43.385,0.006859055784169629
43.385999999999996,0.00989111794855303
43.387,0.010959054818961164
43.388,0.010378831805541522
43.388999999999996,0.00897845611499692
43.39,0.007733944582430563
43.391,0.007365085184139882
43.391999999999996,0.008039668911145369
43.393,0.009296005962832702
43.394,0.010214903395758613
43.394999999999996,0.00978127892532496
43.396,0.007304459254538552
43.397,0.002740736794362692
43.397999999999996,0.0032079523951086437
43.399,0.009268704211939854
43.4,0.013998067079589966
43.400999999999996,0.016276832534624232
43.402,0.015727266710517253
43.403,0.012899092031743114
43.403999999999996,0.00914315189851288
43.405,0.006195440554159871
43.406,0.005594568861042612
43.407,0.00811860655349107
43.408,0.013430340371723462
43.409,0.02006063145593492
43.41,0.02575576842803421
43.411,0.02809944097005561
43.412,0.02523029666771895
43.413,0.01644107592149835
43.414,0.002476626751951611
43.415,0.014563944530691847
43.416,0.0316987169553441
43.417,0.04577614798480708
43.418,0.0542296515298489
43.419,0.055665829543929644
43.42,0.050132948547244496
43.421,0.0390136377579776
43.422,0.02459496620488017
43.423,0.009456463052021774
43.424,0.00414291984327189
43.425,0.014713727427584901
43.426,0.02171898261420334
43.427,0.025477335300173348
43.428,0.02685593676630695
43.429,0.026876092055958298
43.43,0.026364294487478936
43.431,0.025748068174688537
43.431999999999995,0.025035058266305303
43.433,0.023947744991677466
43.434,0.022137460781547467
43.434999999999995,0.019384751932890815
43.436,0.015711110515816515
43.437,0.011370144376337718
43.437999999999995,0.00673678975957398
43.439,0.0021522582391574796
43.44,0.0022035634450476996
43.440999999999995,0.006355352282289589
43.442,0.010471063654734651
43.443,0.01471999326239824
43.443999999999996,0.01910852798865405
43.445,0.023363886986054534
43.446,0.02692110886212824
43.446999999999996,0.029031891763771613
43.448,0.028968864966569103
43.449,0.026261728673810537
43.449999999999996,0.02088597320993317
43.451,0.01333662108549824
43.452,0.004555071697619455
43.452999999999996,0.004275250333398604
43.454,0.0120053116479451
43.455,0.017785454677421847
43.455999999999996,0.021238624071465238
43.457,0.022491364636381666
43.458,0.022058739073608166
43.458999999999996,0.02062702900040893
43.46,0.018810767518741757
43.461,0.016967184119620123
43.461999999999996,0.015129217822028203
43.463,0.013075252036989487
43.464,0.01050431910681975
43.464999999999996,0.0072467993363557505
43.466,0.0034263211689950514
43.467,0.0004957313356186252
43.467999999999996,0.003820590367873808
43.469,0.005831875668848782
43.47,0.006062610691351368
43.471,0.0045136777673596955
43.472,0.0017368384308207284
43.473,0.0012642065886527799
43.474,0.003301468946838768
43.475,0.003365875056463362
43.476,0.0009732692632198473
43.477,0.0036239704155467127
43.478,0.009442248111021269
43.479,0.015006694859904447
43.48,0.018767856958622403
43.481,0.01957514607725535
43.482,0.017059735231176154
43.483,0.011798201231942449
43.484,0.005189660767458965
43.485,0.0009337830238360979
43.486,0.0048572537541211975
43.487,0.005530277326665819
43.488,0.0029381372098721795
43.489,0.0018303137868866304
43.49,0.00685830921094052
43.491,0.009955208294879059
43.492,0.009333787255395978
43.493,0.004209441514440448
43.494,0.004866103551060712
43.495,0.016051781741596414
43.495999999999995,0.026649784394773564
43.497,0.03381295152013793
43.498,0.03533032463746929
43.498999999999995,0.030265340905527238
43.5,0.019259242689371646
43.501,0.004406979097339841
43.501999999999995,0.011263738123000248
43.503,0.0245645155815903
43.504,0.03295178914117709
43.504999999999995,0.03514071433417693
43.506,0.03136147247278669
43.507,0.023198979048328912
43.507999999999996,0.013078778634156584
43.509,0.003561501354176783
43.51,0.0033438500316983364
43.510999999999996,0.006654166066060714
43.512,0.006554171746004421
43.513,0.004192065352092355
43.513999999999996,0.0012189038958075298
43.515,0.0007681450941738522
43.516,0.0007024375914102213
43.516999999999996,0.0016921113991393028
43.518,0.005914417567977198
43.519,0.010938327158602724
43.519999999999996,0.015595647742767695
43.521,0.018950381736497244
43.522,0.020541380946486006
43.522999999999996,0.02042750758695733
43.524,0.019044247226248163
43.525,0.016946719613799757
43.525999999999996,0.014548785475475683
43.527,0.011961024853263953
43.528,0.008986402236550813
43.528999999999996,0.00526891236002935
43.53,0.000531126261783787
43.531,0.00519729295033472
43.532,0.011454787474756084
43.533,0.017383182220721296
43.534,0.0219205553204761
43.535,0.024091369347300412
43.536,0.02329743374871766
43.537,0.01951151300262288
43.538,0.013308144058386881
43.539,0.005721432362608617
43.54,0.0020224730096852755
43.541,0.008810143464388916
43.542,0.013885619835413384
43.543,0.01696231516480219
43.544,0.018177814531602176
43.545,0.01792238549451841
43.546,0.01661413700851674
43.547,0.014508591535521791
43.548,0.01161359888338485
43.549,0.007738883409203048
43.55,0.0026584297667836413
43.551,0.0036784145098343675
43.552,0.010970187025087778
43.553,0.018493472521951437
43.554,0.025176868672257963
43.555,0.0298075533020546
43.556,0.03131522380817443
43.556999999999995,0.029052628813896923
43.558,0.02299238811736552
43.559,0.013784843444250619
43.559999999999995,0.002661929118818122
43.561,0.008786043937155751
43.562,0.018903061109839473
43.562999999999995,0.02626022602268685
43.564,0.02988766057733265
43.565,0.02940697988482351
43.565999999999995,0.02505352767206087
43.567,0.017601310491185476
43.568,0.008217694880999821
43.568999999999996,0.0017214273388905129
43.57,0.010828848222260946
43.571,0.017894082082499416
43.571999999999996,0.022044236257197803
43.573,0.022860100414687477
43.574,0.020429330432061653
43.574999999999996,0.01532139104509041
43.576,0.008478560698979346
43.577,0.001034257548558795
43.577999999999996,0.005909538522734419
43.579,0.01149704170500873
43.58,0.015271320380260729
43.580999999999996,0.01722154471516597
43.582,0.017708520505538592
43.583,0.017288438331162937
43.583999999999996,0.01648866876187511
43.585,0.015608616502681399
43.586,0.01461454942075127
43.586999999999996,0.013168941047120939
43.588,0.010789978499823917
43.589,0.007090029042136292
43.589999999999996,0.0020095881676531592
43.591,0.004041772901186942
43.592,0.010199828862041873
43.592999999999996,0.015327657216516747
43.594,0.01831913565238012
43.595,0.018431884492542235
43.596,0.015540484250520398
43.597,0.010220429149972843
43.598,0.003624777841945253
43.599,0.00281742476350669
43.6,0.00779161437504898
43.601,0.010455314009529105
43.602,0.010648706831268466
43.603,0.00889023931661931
43.604,0.006159482489059749
43.605,0.0035401738315403394
43.606,0.0018434662633862308
43.607,0.0013384486841119525
43.608,0.0016810208421264574
43.609,0.0020650169855457087
43.61,0.0015437599587448593
43.611,0.0005882072403209054
43.612,0.004484616656808641
43.613,0.009616222239176287
43.614,0.014866963225962213
43.615,0.01882991401837512
43.616,0.020209532360662266
43.617,0.018202978204384105
43.618,0.012742472387802342
43.619,0.00452862756722428
43.62,0.00514604861429847
43.620999999999995,0.014718085875559722
43.622,0.022712460825677575
43.623,0.028032344324019614
43.623999999999995,0.03010589530891953
43.625,0.028874062104642637
43.626,0.024660778893276204
43.626999999999995,0.018003083858658113
43.628,0.009520833541010073
43.629,0.00012543880111344543
43.629999999999995,0.010190636828915293
43.631,0.019766060977374836
43.632,0.027742069415551622
43.632999999999996,0.03288035612068227
43.634,0.034021467296408175
43.635,0.030392661009779207
43.635999999999996,0.02192587416568501
43.637,0.009468430029202524
43.638,0.005215952051332176
43.638999999999996,0.01970238100931061
43.64,0.03138239251039768
43.641,0.03805186636711265
43.641999999999996,0.03844900750405159
43.643,0.03258292771509012
43.644,0.021746206610447252
43.644999999999996,0.008195038504844706
43.646,0.005419816091023111
43.647,0.016711263605159697
43.647999999999996,0.024114887041100045
43.649,0.027190476656725863
43.65,0.026587574610081717
43.650999999999996,0.023700548676374736
43.652,0.020133611308053974
43.653,0.0171515666801684
43.653999999999996,0.015290533787005532
43.655,0.014245812244968726
43.656,0.013060886312780278
43.657,0.010543212123627141
43.658,0.005760889572053797
43.659,0.0015479172763168863
43.66,0.010788065502577151
43.661,0.020602634517480366
43.662,0.02921738112964032
43.663,0.03492282441633901
43.664,0.03654220980678795
43.665,0.03374343136303561
43.666,0.027107328042204303
43.667,0.017943940351903276
43.668,0.007925587402359243
43.669,0.0013436105376533627
43.67,0.008692373050283904
43.671,0.013583094072029154
43.672,0.016110242374802103
43.673,0.0168235650965114
43.674,0.0164538984334234
43.675,0.015639749755527815
43.676,0.014739424873092776
43.677,0.013774390255457281
43.678,0.012500666434645286
43.679,0.010563874778684026
43.68,0.0076730425843333895
43.681,0.0037326788924783865
43.681999999999995,0.0011030591635915517
43.683,0.006457609012732184
43.684,0.01181620737214517
43.684999999999995,0.016629018118424623
43.686,0.020398737166660515
43.687,0.022734638553255367
43.687999999999995,0.023375139963973786
43.689,0.02219509875625457
43.69,0.0192160950355943
43.690999999999995,0.014627846599340385
43.692,0.00881242195543539
43.693,0.0023490489487390446
43.693999999999996,0.004025816572896464
43.695,0.009517347823168392
43.696,0.013421781749866527
43.696999999999996,0.015292705584196039
43.698,0.015073200558468202
43.699,0.013142619334688667
43.699999999999996,0.010246594113798342
43.701,0.007314038607727397
43.702,0.005204139705694147
43.702999999999996,0.004455554962055845
43.704,0.005117471124404654
43.705,0.006722956091937539
43.705999999999996,0.008423467732092472
43.707,0.00925205512472061
43.708,0.008438589784684526
43.708999999999996,0.005678774807564916
43.71,0.0012682878829918677
43.711,0.003947376137229065
43.711999999999996,0.00879964824218059
43.713,0.012135546348498292
43.714,0.013165526525228354
43.714999999999996,0.01171162757820417
43.716,0.008275570029432038
43.717,0.003901287888845351
43.717999999999996,0.0001297045490668754
43.719,0.0026789936349093818
43.72,0.0030922468992192324
43.721,0.0013961441163094274
43.722,0.0017092094796453412
43.723,0.00506034726358269
43.724,0.007379443937749552
43.725,0.007657322291910913
43.726,0.005456720353310821
43.727,0.001047907711462503
43.728,0.00465956459195723
43.729,0.010364187764626182
43.73,0.01472266102227448
43.731,0.016700017699359013
43.732,0.015821911363139818
43.733,0.012264936030313292
43.734,0.006771362778047174
43.735,0.00042575095217987544
43.736,0.005632909173606487
43.737,0.010478389805181716
43.738,0.013573386544730748
43.739,0.014818547923351633
43.74,0.014479766962706257
43.741,0.013034309740582686
43.742,0.0109948556958484
43.743,0.008768223640401949
43.744,0.006585434553529811
43.745,0.004510356808762769
43.745999999999995,0.0025063286561051857
43.747,0.0005231849191091574
43.748,0.0014342001226709026
43.748999999999995,0.003281506311106904
43.75,0.004878767032905279
43.751,0.006085321788093483
43.751999999999995,0.006816338742602733
43.753,0.007071921896397779
43.754,0.006922938624365253
43.754999999999995,0.006457925525306262
43.756,0.005714564168367387
43.757,0.004629347456724332
43.757999999999996,0.0030355018715704273
43.759,0.0007223889558777681
43.76,0.0024549839831608006
43.760999999999996,0.006451172497412488
43.762,0.010938197117892639
43.763,0.015290789884559204
43.763999999999996,0.018673138867475795
43.765,0.020219021540255688
43.766,0.01926329011720212
43.766999999999996,0.015558733333123834
43.768,0.009407709342545426
43.769,0.0016562387865964253
43.769999999999996,0.006464308346677126
43.771,0.013616693428208863
43.772,0.018686696614720957
43.772999999999996,0.021068288804460933
43.774,0.020818169107301193
43.775,0.018626627437389222
43.775999999999996,0.015604452571921335
43.777,0.012941807525219505
43.778,0.011537111627322499
43.778999999999996,0.011707915419837735
43.78,0.013075612560449866
43.781,0.014666204682170182
43.782,0.015204414698424876
43.783,0.013517936869106796
43.784,0.008931672148789233
43.785,0.0015308644285876452
43.786,0.007791403118964861
43.787,0.017523244587782233
43.788,0.02590895884800384
43.789,0.0314023338275465
43.79,0.03306613863922611
43.791,0.030801807650629735
43.792,0.025345274079294385
43.793,0.018036345092185532
43.794,0.010437221394200264
43.795,0.003919044685197582
43.796,0.0006598598983850411
43.797,0.00309499282588845
43.798,0.003768802475170435
43.799,0.003416952905959665
43.8,0.002820309559436667
43.801,0.0025331907932905633
43.802,0.0027376544263188504
43.803,0.0032623772675751885
43.804,0.0037419416850947187
43.805,0.003840873277210496
43.806,0.0034451771450753933
43.806999999999995,0.002740085339316738
43.808,0.0021401522566259104
43.809,0.002098877447287832
43.809999999999995,0.0028764720974265696
43.811,0.004366073421722301
43.812,0.006061152366252388
43.812999999999995,0.007195086819581871
43.814,0.007016120818891599
43.815,0.005102401265904133
43.815999999999995,0.001595586307379898
43.817,0.0027500171193097166
43.818,0.006746294078897377
43.818999999999996,0.00914011681761969
43.82,0.009059008981135907
43.821,0.006380046492775392
43.821999999999996,0.0018797820071238085
43.823,0.0029136701634809967
43.824,0.00614850057465089
43.824999999999996,0.006240496768682161
43.826,0.002444846224207776
43.827,0.0047836260900548325
43.827999999999996,0.013779093674100426
43.829,0.022035594279431137
43.83,0.026872438271222134
43.830999999999996,0.02620756405752056
43.832,0.019208836211632305
43.833,0.00662147045035724
43.833999999999996,0.009337475145538765
43.835,0.02549763187950053
43.836,0.03852242711019366
43.836999999999996,0.04573987537013282
43.838,0.045781376466806266
43.839,0.03885468353582782
43.839999999999996,0.026591094643111855
43.841,0.01153565699782224
43.842,0.0035486164477970053
43.842999999999996,0.01634759833222083
43.844,0.02544519098219582
43.845,0.03045047848481476
43.846,0.031810742936518185
43.847,0.030419209074881663
43.848,0.027182816934739226
43.849,0.022710393178649087
43.85,0.01722044677834701
43.851,0.010675082053083583
43.852,0.003057087330932097
43.853,0.005346368929174443
43.854,0.01378921739888313
43.855,0.02112339601423363
43.856,0.026064115824177343
43.857,0.027575630798596196
43.858,0.025237255361827
43.859,0.01944911194459711
43.86,0.011389541789879774
43.861,0.0027225319862384354
43.862,0.0048573018824261075
43.863,0.010095019191323988
43.864,0.012505507250338459
43.865,0.012454473121126146
43.866,0.01096615156360614
43.867,0.009326965456720357
43.868,0.008623239330370054
43.869,0.00937129353160796
43.87,0.011363097745550735
43.870999999999995,0.013773105500155943
43.872,0.01547983061761548
43.873,0.015481920743285235
43.873999999999995,0.013258798580385717
43.875,0.008950172239273866
43.876,0.0032972448686750364
43.876999999999995,0.002624090621805807
43.878,0.007773244104361516
43.879,0.011478434844666305
43.879999999999995,0.013611007559190499
43.881,0.014539846413382788
43.882,0.014889102731590772
43.882999999999996,0.015197387863927875
43.884,0.01561499866269325
43.885,0.015763446895589867
43.885999999999996,0.014822776583696122
43.887,0.011827936984211791
43.888,0.006076128372476922
43.888999999999996,0.0024987935756377658
43.89,0.013124290832652055
43.891,0.024245142423247323
43.891999999999996,0.03383837931099441
43.893,0.039901511646030834
43.894,0.04096966563437188
43.894999999999996,0.036506102336343535
43.896,0.027050269821974896
43.897,0.014083924567327051
43.897999999999996,0.00033724850132195043
43.899,0.014070622691647224
43.9,0.02534795802458934
43.900999999999996,0.03308577681720396
43.902,0.03697675681019729
43.903,0.0373682126015822
43.903999999999996,0.03499883255518186
43.905,0.03069989261558122
43.906,0.025162965681082745
43.907,0.018837762830816958
43.908,0.011967809058807836
43.909,0.004719649667373425
43.91,0.0026684992247817296
43.911,0.009791562249583167
43.912,0.016079942993097406
43.913,0.02090019290236442
43.914,0.023714675266960042
43.915,0.02423883028445671
43.916,0.022537598890844824
43.917,0.01902737772763645
43.918,0.014385284842380414
43.919,0.009399092400515348
43.92,0.004807239966536758
43.921,0.00117436037422164
43.922,0.0011723313768183749
43.923,0.0021464520873645866
43.924,0.0018665859583973329
43.925,0.0006084434830900527
43.926,0.0012362638618414906
43.927,0.003193027698218051
43.928,0.004744606570583512
43.929,0.005397488063214342
43.93,0.004783476111396388
43.931,0.0027822652046148406
43.931999999999995,0.0003736713121440127
43.933,0.0040637051376445806
43.934,0.007356866819862866
43.934999999999995,0.009215281168549853
43.936,0.008789632166000308
43.937,0.005728571371480086
43.937999999999995,0.0003995821902118741
43.939,0.006072000004152953
43.94,0.011993994592285184
43.940999999999995,0.01550668188937052
43.942,0.015095895998127601
43.943,0.010075331196328233
43.943999999999996,0.0008862973885514263
43.945,0.010894353517001812
43.946,0.022865347613898142
43.946999999999996,0.03236140897592616
43.948,0.03711283543421273
43.949,0.03581784682684779
43.949999999999996,0.028463103592726566
43.951,0.01630228655611254
43.952,0.0015064763746432772
43.952999999999996,0.013400597325106102
43.954,0.026147459590374178
43.955,0.03518098813266614
43.955999999999996,0.03986946353431915
43.957,0.0404122837646846
43.958,0.037526213026361964
43.958999999999996,0.032049353671285606
43.96,0.024621879902449986
43.961,0.015561572461947639
43.961999999999996,0.0049682309233764176
43.963,0.007004356584666264
43.964,0.019841212091886034
43.964999999999996,0.03247559762262084
43.966,0.04332671442390755
43.967,0.05059115712827519
43.967999999999996,0.052712803080651155
43.969,0.048877936499079136
43.97,0.039357664639003975
43.971,0.02555965751685649
43.972,0.009744143550201648
43.973,0.005526588910654847
43.974,0.018040542986782808
43.975,0.02648395240161542
43.976,0.030707336900919056
43.977,0.031623434405274625
43.978,0.030774073629220147
43.979,0.0297159629368941
43.98,0.02943814434677777
43.981,0.030013593790119655
43.982,0.03060649466597835
43.983,0.029832296736961722
43.984,0.0263427134839128
43.985,0.01942606807835632
43.986,0.009404123580777171
43.987,0.002325976027099354
43.988,0.013634244095013414
43.989,0.022280085000569803
43.99,0.02660906521452381
43.991,0.026087996530403616
43.992,0.021492004635096647
43.993,0.014671905128668599
43.994,0.00797094599488138
43.995,0.0034789127413840043
43.995999999999995,0.0023680648936977204
43.997,0.0045299153463669115
43.998,0.008632888125440882
43.998999999999995,0.01258176642769953
44.0,0.014227435982044935
44.001,0.012094071444364625
44.001999999999995,0.005887362181894263
44.003,0.0033780966223230886
44.004,0.013667492238311601
44.004999999999995,0.02253014393931712
44.006,0.027819696889170676
44.007,0.028299370202175496
44.007999999999996,0.023947336241928283
44.009,0.015882372563746392
44.01,0.005957104304945027
44.010999999999996,0.0038279917410817825
44.012,0.011886965079252054
44.013,0.017405408862497116
44.013999999999996,0.020392295483856043
44.015,0.02143907001960437
44.016,0.02130114558522701
44.016999999999996,0.020474751369961984
44.018,0.018936236867869022
44.019,0.016145265171703248
44.019999999999996,0.011312328398919155
44.021,0.003830880402312571
44.022,0.0062897440915995985
44.022999999999996,0.01816049925844674
44.024,0.030033982987038625
44.025,0.03963218252378508
44.025999999999996,0.04469816765494507
44.027,0.043611648943361135
44.028,0.03588218318162553
44.028999999999996,0.022367188640209198
44.03,0.005143254657232048
44.031,0.012938212859608778
44.032,0.028888769616542395
44.033,0.04023978260054245
44.034,0.04554520362134837
44.035,0.044608572154699315
44.036,0.03839588630074839
44.037,0.028684297917357122
44.038,0.017563480221297098
44.039,0.0069342319251190125
44.04,0.0018669259871826045
44.041,0.008238596872289986
44.042,0.012268364775874264
44.043,0.014518220136288623
44.044,0.01572902546554673
44.045,0.016540158336357788
44.046,0.01730081159207287
44.047,0.018011408311459406
44.048,0.018390936656354846
44.049,0.0180314681617548
44.05,0.016582799347347972
44.051,0.01391001555869759
44.052,0.010181367034177035
44.053,0.0058665720927097795
44.054,0.0016494730000712833
44.055,0.0017215467881431365
44.056,0.003609712073799251
44.056999999999995,0.0036525155571877363
44.058,0.0018736957527228104
44.059,0.0012835526706858164
44.059999999999995,0.00501590274920584
44.061,0.008307337609572077
44.062,0.010140554081237405
44.062999999999995,0.009730520813177278
44.064,0.006727484284454447
44.065,0.001337007025082614
44.065999999999995,0.005681438095814179
44.067,0.013149332447372035
44.068,0.01971581491845634
44.068999999999996,0.024162509150543413
44.07,0.025691967652366
44.071,0.024123402748801023
44.071999999999996,0.019939198442535052
44.073,0.014163324994654471
44.074,0.008098399436065
44.074999999999996,0.002988632462869907
44.076,0.00030114347034276845
44.077,0.0015024229446846205
44.077999999999996,0.0009956781528184778
44.079,0.00031609126097308587
44.08,0.0012776542924576762
44.080999999999996,0.0008205393987381106
44.082,0.0017225297254351353
44.083,0.006412406492270974
44.083999999999996,0.012660122313389626
44.085,0.01935264048526568
44.086,0.025110179175520816
44.086999999999996,0.02860571234923304
44.088,0.028866442944204478
44.089,0.025488212921500542
44.089999999999996,0.01872138477044238
44.091,0.00942098550739027
44.092,0.0011154219135599938
44.092999999999996,0.011379052685575828
44.094,0.019901437758284794
44.095,0.025482997990236612
44.096,0.02736773238667096
44.097,0.025346249204335664
44.098,0.019779727840715414
44.099,0.011544363320025243
44.1,0.0019014275648889778
44.101,0.007694841655495151
44.102,0.015829176446631624
44.103,0.02136276459541602
44.104,0.023632485291880022
44.105,0.022566559597962593
44.106,0.018682141497729086
44.107,0.012954290940128415
44.108,0.006578282159392758
44.109,0.0006793396678524235
44.11,0.0039552037562252725
44.111,0.007045596939068842
44.112,0.008838227470043364
44.113,0.009961948099637939
44.114,0.011160592262613293
44.115,0.01298180826575485
44.116,0.015521812966239869
44.117,0.01831456405050395
44.118,0.020413328933187987
44.119,0.020653700940636482
44.12,0.01802765920529263
44.120999999999995,0.01205750093323351
44.122,0.0030506298196039646
44.123,0.007854448746427753
44.123999999999995,0.018881533930960537
44.125,0.02800881996060075
44.126,0.033457284685215916
44.126999999999995,0.034140508775575694
44.128,0.029948538611608056
44.129,0.02178424260503948
44.129999999999995,0.011341160754440674
44.131,0.0006856704513277897
44.132,0.008239071712160742
44.132999999999996,0.014050870810455458
44.134,0.01619300000470608
44.135,0.014965329505075179
44.135999999999996,0.011332195504907452
44.137,0.006580891839239758
44.138,0.00194269087172021
44.138999999999996,0.0017099208836478881
44.14,0.004009288134880904
44.141,0.005057304765134808
44.141999999999996,0.0052439180437688256
44.143,0.004998853024713921
44.144,0.004571522203992915
44.144999999999996,0.003917341116253895
44.146,0.0027267673691795205
44.147,0.0005812844931584696
44.147999999999996,0.0028241029049319685
44.149,0.007475037290450596
44.15,0.01292589457208114
44.150999999999996,0.018327316398623443
44.152,0.022592329677720895
44.153,0.02465466640073878
44.153999999999996,0.02374294486341745
44.155,0.019589219517207553
44.156,0.012511033701973243
44.157,0.003345258459240549
44.158,0.006743214046668122
44.159,0.0165186578151555
44.16,0.02492174239888113
44.161,0.03123850767629755
44.162,0.03515122738872971
44.163,0.03667098454411914
44.164,0.035989815652379256
44.165,0.03331464808314368
44.166,0.028748489053244123
44.167,0.022265702582921917
44.168,0.013793840940110977
44.169,0.0033753541645679275
44.17,0.00864895204241401
44.171,0.02150641547621738
44.172,0.033971512540195564
44.173,0.044489910387994464
44.174,0.05143757369687654
44.175,0.05346198291149233
44.176,0.04982192943566146
44.177,0.04063370808093658
44.178,0.02694847773346343
44.179,0.01062461435152081
44.18,0.0059898188403334435
44.181,0.020499447190618768
44.181999999999995,0.03092896068520514
44.183,0.03610590321784357
44.184,0.03586794691184349
44.184999999999995,0.031046379470087777
44.186,0.023233094564972447
44.187,0.01439202961850723
44.187999999999995,0.006413303635030817
44.189,0.0007192882783479991
44.19,0.001986148972062142
44.190999999999995,0.0017754736403035856
44.192,0.0006344517963713483
44.193,0.004151650983418745
44.193999999999996,0.007631358837538866
44.195,0.01016083208344696
44.196,0.011235917990824367
44.196999999999996,0.010797208545824248
44.198,0.009138164407889365
44.199,0.006734157330016568
44.199999999999996,0.004059127650328832
44.201,0.0014511962634107592
44.202,0.0009364595941536874
44.202999999999996,0.003098082098137753
44.204,0.005081938616865538
44.205,0.006890088491945334
44.205999999999996,0.008418848427315509
44.207,0.00946765595730434
44.208,0.009813859339892685
44.208999999999996,0.009322125395735839
44.21,0.008040728906369692
44.211,0.006239411188584533
44.211999999999996,0.004364196905842473
44.213,0.0029160846137875384
44.214,0.0022911926320512547
44.214999999999996,0.002638060218315429
44.216,0.0037859956691679896
44.217,0.005276385077899619
44.217999999999996,0.006493910477572089
44.219,0.006858872395836638
44.22,0.0060181896652360505
44.221,0.003970134410141253
44.222,0.0010781255351294634
44.223,0.0020344858828514997
44.224,0.0046762001715434124
44.225,0.0063030371579694405
44.226,0.006686267158911903
44.227,0.005975957405450525
44.228,0.004639307902651154
44.229,0.0032955367924307538
44.23,0.0025045077755786226
44.231,0.002581878835135704
44.232,0.0035036983577102403
44.233,0.004931455830573114
44.234,0.00634584470461459
44.235,0.007239081637987277
44.236,0.007295268531330253
44.237,0.006493333936076174
44.238,0.005095842487462991
44.239,0.0035291761216317695
44.24,0.002201086627534085
44.241,0.001325668863923344
44.242,0.0008244304354187455
44.243,0.0003454008451795331
44.244,0.0006006707652068036
44.245,0.0024318738580754893
44.245999999999995,0.0052883972827884465
44.247,0.008904942487778329
44.248,0.012615723259224856
44.248999999999995,0.015501709770685
44.25,0.016641058778231944
44.251,0.015386780365811894
44.251999999999995,0.01158350496723375
44.253,0.005652238822418253
44.254,0.0014872161658543868
44.254999999999995,0.008635478212841411
44.256,0.014609424015521112
44.257,0.018526597867314944
44.257999999999996,0.01999563325485282
44.259,0.01916176147754168
44.26,0.01660321104555354
44.260999999999996,0.013120374093889097
44.262,0.00949002077033832
44.263,0.006262355029309359
44.263999999999996,0.0036587928732782203
44.265,0.001590994608282414
44.266,0.0002196796215494493
44.266999999999996,0.0020744561029032668
44.268,0.004144803913847311
44.269,0.0063881712664464975
44.269999999999996,0.008556475216197866
44.271,0.010287626056432976
44.272,0.011241828278263317
44.272999999999996,0.011231056547214851
44.274,0.010295402804047634
44.275,0.00870071426941781
44.275999999999996,0.006859849758100879
44.277,0.005204985369243277
44.278,0.004052598451897407
44.278999999999996,0.003502478146412929
44.28,0.003399079775507341
44.281,0.0033635630307010758
44.282,0.0028852261581983657
44.283,0.00144772024533639
44.284,0.0013389667286297796
44.285,0.005626318200375956
44.286,0.011252811120338648
44.287,0.017717346276747335
44.288,0.024205487203271123
44.289,0.029670422265973193
44.29,0.03296750823592667
44.291,0.0330351289782048
44.292,0.029103895386049242
44.293,0.02090243510061884
44.294,0.0088158686902656
44.295,0.006051066610701549
44.296,0.02194498445256692
44.297,0.03668326496482074
44.298,0.04800065481408095
44.299,0.053963996122485765
44.3,0.05336792259337174
44.301,0.04601667357289179
44.302,0.03281545659053896
44.303,0.015636735449410348
44.304,0.003017844761087338
44.305,0.020486021181680723
44.306,0.034435151448705875
44.306999999999995,0.043259830074323394
44.308,0.046298982236463504
44.309,0.04383523828950321
44.309999999999995,0.03689901516178993
44.311,0.02694997426303323
44.312,0.015534207352914971
44.312999999999995,0.0040096265985417184
44.314,0.006601879680514314
44.315,0.015626166873175047
44.315999999999995,0.022650059204802012
44.317,0.027402369167278073
44.318,0.02967023829941916
44.318999999999996,0.029293194492436957
44.32,0.026236494005440224
44.321,0.02070509903651452
44.321999999999996,0.01323592812954443
44.323,0.0047083844982866874
44.324,0.0037587366528553903
44.324999999999996,0.011012296005804757
44.326,0.016117581338379535
44.327,0.01857961441255881
44.327999999999996,0.018456982259238294
44.329,0.0163238122270624
44.33,0.013085287764918793
44.330999999999996,0.009702577839231133
44.332,0.00691585084490572
44.333,0.005056585006109443
44.333999999999996,0.0040106785914772345
44.335,0.0033415534825739553
44.336,0.0025256709330508235
44.336999999999996,0.0012119392790839315
44.338,0.0005934241691591012
44.339,0.002489465580008139
44.339999999999996,0.0038105722090790287
44.341,0.0038822862247258317
44.342,0.002312249746261096
44.342999999999996,0.0007921333012168495
44.344,0.004767043159982314
44.345,0.008531161594633232
44.346,0.010886841984199407
44.347,0.010891106278497906
44.348,0.008174805724084412
44.349,0.003100125981967764
44.35,0.003303300230888943
44.351,0.009611310743087421
44.352,0.014404920469227872
44.353,0.01667090710272143
44.354,0.016075334792320362
44.355,0.013023063805298765
44.356,0.008486948432679017
44.357,0.0036670411647157074
44.358,0.00040333470500843714
44.359,0.0031707569187066874
44.36,0.00468884381448602
44.361,0.0055188827012686344
44.362,0.00644252713614965
44.363,0.008091445903835802
44.364,0.010629432492493368
44.365,0.013606469609343091
44.366,0.01604642486385755
44.367,0.0167495645390942
44.368,0.014714983297853283
44.369,0.009542287271110568
44.37,0.0016724818005199246
44.370999999999995,0.007624292001956875
44.372,0.016526732983614262
44.373,0.023132506281832617
44.373999999999995,0.025982604997870997
44.375,0.02448063485965146
44.376,0.019076611283616672
44.376999999999995,0.011155189708453033
44.378,0.0026578671112139065
44.379,0.004450605103463071
44.379999999999995,0.008714736257214792
44.381,0.009564496173315857
44.382,0.0074286483132644295
44.382999999999996,0.003558625102940438
44.384,0.0003775542648800236
44.385,0.002805941404602533
44.385999999999996,0.0027101298250135158
44.387,8.460247679827736e-05
44.388,0.004880806824169058
44.388999999999996,0.010329425204731802
44.39,0.014826650666170985
44.391,0.016966155266301776
44.391999999999996,0.015917590731602038
44.393,0.011631954773725488
44.394,0.0048304196241998635
44.394999999999996,0.0032030229134384454
44.396,0.010952606511386383
44.397,0.017026699439405418
44.397999999999996,0.020444329758523002
44.399,0.02078885637696377
44.4,0.01821017381978596
44.400999999999996,0.01330075663151141
44.402,0.006900886188563327
44.403,0.00010249401672407378
44.403999999999996,0.006930317049310354
44.405,0.012991635444023816
44.406,0.017890816007880842
44.407,0.021385670715506504
44.408,0.02333069209812454
44.409,0.02363596339842479
44.41,0.0222585233815587
44.411,0.019225495176384284
44.412,0.014673919733985777
44.413,0.008885624819616187
44.414,0.0022978166384804437
44.415,0.004520758565959279
44.416,0.010926516021072632
44.417,0.01627921106048299
44.418,0.020025284172410292
44.419,0.021770679492215818
44.42,0.02133207111258473
44.421,0.018761373016411585
44.422,0.014343164391361882
44.423,0.00856701928432267
44.424,0.0020771322095809496
44.425,0.0043982834600722
44.426,0.010133797528394753
44.427,0.014501922321676887
44.428,0.01706354598478685
44.429,0.01763623666719617
44.43,0.016322519185547495
44.431,0.013485637871371295
44.431999999999995,0.009671668541259528
44.433,0.005491591291714365
44.434,0.0014905044039716679
44.434999999999995,0.0019615936799317656
44.436,0.0047258566814215456
44.437,0.0068794588414375895
44.437999999999995,0.00863245025450506
44.439,0.010202239082142635
44.44,0.011687470423348
44.440999999999995,0.012986559787942708
44.442,0.013794416010430171
44.443,0.013686441362530144
44.443999999999996,0.01226891424345347
44.445,0.009349169276679021
44.446,0.005066869905031013
44.446999999999996,6.542749066290032e-05
44.448,0.005238888068050221
44.449,0.009531857641358376
44.449999999999996,0.012153003063599165
44.451,0.012672508527585433
44.452,0.011166811525270368
44.452999999999996,0.008223714178543333
44.454,0.00479508281202161
44.455,0.0019318589545706194
44.455999999999996,0.0004757167995541816
44.457,0.0008000425123135873
44.458,0.002682784627350699
44.458999999999996,0.005356825247821057
44.46,0.00773033178550711
44.461,0.00871633005934139
44.461999999999996,0.007574474987369621
44.463,0.00416087841330827
44.464,0.00099286741953664
44.464999999999996,0.006799725703807988
44.466,0.011904043683399378
44.467,0.015051454035954833
44.467999999999996,0.015432211665790242
44.469,0.012896481516595898
44.47,0.007979978488623717
44.471,0.0017373506510254561
44.472,0.004560134155134775
44.473,0.009765766062826945
44.474,0.013132156218141074
44.475,0.014440125795700143
44.476,0.013953410162017036
44.477,0.012229946919522687
44.478,0.009867479421012766
44.479,0.007280137075261485
44.48,0.004587229651685955
44.481,0.0016512501806705431
44.482,0.0017553636564504149
44.483,0.0057253865005707245
44.484,0.010029376149531744
44.485,0.014051005015640602
44.486,0.016887997528127023
44.487,0.017600846411377425
44.488,0.015533738280156691
44.489,0.010598144422598705
44.49,0.0034126057801611666
44.491,0.004766803235985009
44.492,0.01232434151629001
44.493,0.01769944288366274
44.494,0.019816851303933496
44.495,0.01839806374812921
44.495999999999995,0.014051540231130626
44.497,0.008105487906894847
44.498,0.0022274305736842766
44.498999999999995,0.0020568815734020368
44.5,0.003799109045969359
44.501,0.0028852515169587633
44.501999999999995,3.632385059369234e-05
44.503,0.003443986922997706
44.504,0.006091847235883054
44.504999999999995,0.006740711686711231
44.506,0.004870165271948112
44.507,0.0007409991132239544
44.507999999999996,0.004716932547817476
44.509,0.010216638752343552
44.51,0.014515297105852042
44.510999999999996,0.01677022661435568
44.512,0.016736543570439376
44.513,0.014752830827557526
44.513999999999996,0.011536794335669726
44.515,0.007878210731885466
44.516,0.0043487579747032825
44.516999999999996,0.0011366899684897508
44.518,0.001936461614249444
44.519,0.005231167560821421
44.519999999999996,0.009016712399075082
44.521,0.013224835501128893
44.522,0.017337916868688824
44.522999999999996,0.020470546802059855
44.524,0.021630284246984825
44.525,0.02007255229108645
44.525999999999996,0.015622199877352397
44.527,0.00883700982799683
44.528,0.0009372953171047623
44.528999999999996,0.00649495285224891
44.53,0.011961300230845578
44.531,0.014493922176794124
44.532,0.013952807661400567
44.533,0.011065089353619486
44.534,0.007181900395375174
44.535,0.0038239677373710325
44.536,0.002162595809709343
44.537,0.0026108631502787154
44.538,0.004669182800150861
44.539,0.007088124189323353
44.54,0.008305432994442093
44.541,0.007018693570866299
44.542,0.002702828935174641
44.543,0.004108197981555489
44.544,0.011884809142292858
44.545,0.01850908002647213
44.546,0.021910247173368595
44.547,0.020732582147967554
44.548,0.014820976043362768
44.549,0.005360073324329238
44.55,0.0053922013184389455
44.551,0.01470919854365873
44.552,0.020162696408168906
44.553,0.02032278544207926
44.554,0.01517778309837571
44.555,0.006145296612309501
44.556,0.004330162367820241
44.556999999999995,0.01347196123359358
44.558,0.018949876125029082
44.559,0.019511247871444592
44.559999999999995,0.015282523464597592
44.561,0.007662769867999964
44.562,0.0011439260581660553
44.562999999999995,0.008802967496241203
44.564,0.013520113885479279
44.565,0.01450868857330526
44.565999999999995,0.012124898328911008
44.567,0.007651264315631143
44.568,0.0028174001645171584
44.568999999999996,0.0007767627471666894
44.57,0.0021500587516105046
44.571,0.0011954268912505546
44.571999999999996,0.0013615387260753045
44.573,0.004265868269257359
44.574,0.006182583367306338
44.574999999999996,0.006137842542509634
44.576,0.003811183863177799
44.577,0.00040355179693698644
44.577999999999996,0.0055698790925489
44.579,0.01053817439919815
44.58,0.014312208965096275
44.580999999999996,0.016329112586731746
44.582,0.016567884721232384
44.583,0.015466132389595811
44.583999999999996,0.013691657675518448
44.585,0.011861893169184116
44.586,0.010315339002899142
44.586999999999996,0.009013324306217195
44.588,0.007598692837963944
44.589,0.005579909226388582
44.589999999999996,0.002565376832801442
44.591,0.0015417965225534387
44.592,0.006459931447488764
44.592999999999996,0.011583781796679193
44.594,0.016154640013254017
44.595,0.019480639353877477
44.596,0.02112639158888174
44.597,0.021005388592835534
44.598,0.019347139222215308
44.599,0.016559129192034686
44.6,0.01304343789579887
44.601,0.009044511849028474
44.602,0.004591969005608708
44.603,0.00043512036730061185
44.604,0.006144685779409846
44.605,0.01243309241368823
44.606,0.01883546617153561
44.607,0.024497999490792646
44.608,0.028306619913330153
44.609,0.029152300046395165
44.61,0.026262060386678488
44.611,0.019494224227669978
44.612,0.009498081628350266
44.613,0.0023272847085956056
44.614,0.014082670020748825
44.615,0.02377174646879637
44.616,0.029753931517627723
44.617,0.03112530674183515
44.618,0.027923403188342175
44.619,0.02110012522423584
44.62,0.012271669796371806
44.620999999999995,0.003315540138645184
44.622,0.00407543240903115
44.623,0.008764868136079887
44.623999999999995,0.010379396591563112
44.625,0.00930936593455361
44.626,0.006521641630238253
44.626999999999995,0.0032515293216652456
44.628,0.0006668168714738125
44.629,0.00040595617443718184
44.629999999999995,0.00036888053647410237
44.631,0.0028299106214127556
44.632,0.006432578869322551
44.632999999999996,0.010430587656999089
44.634,0.014063103577834276
44.635,0.016697813670143825
44.635999999999996,0.017905372797272598
44.637,0.01746941276066167
44.638,0.015357442447415914
44.638999999999996,0.011684871998327372
44.64,0.006696205295956589
44.641,0.0007691683573408785
44.641999999999996,0.005572181249139432
44.643,0.011661638698802015
44.644,0.016737856628468547
44.644999999999996,0.020045528341075685
44.646,0.020979607866806013
44.647,0.01923924104963643
44.647999999999996,0.01494521562790655
44.649,0.008677188979954379
44.65,0.0014054002039087315
44.650999999999996,0.005679061381425293
44.652,0.011400316696905829
44.653,0.014842556557305249
44.653999999999996,0.015540224718675073
44.655,0.013563208809660632
44.656,0.009475413853912389
44.657,0.004180602725438783
44.658,0.0012993141389897028
44.659,0.006051016575978947
44.66,0.009440901049944517
44.661,0.011190142599682925
44.662,0.01134494359331379
44.663,0.010166053000425805
44.664,0.007985027869519445
44.665,0.005081348959200489
44.666,0.001622708308566125
44.667,0.002315030882501873
44.668,0.006662554833452844
44.669,0.011246181577912696
44.67,0.015702144945900894
44.671,0.019460006794537046
44.672,0.02181624312672647
44.673,0.022087612270801277
44.674,0.019804231951634995
44.675,0.014884256626371684
44.676,0.0077319536492825545
44.677,0.0007804841882009779
44.678,0.00945504153838605
44.679,0.01700549710927772
44.68,0.02233286898261213
44.681,0.024767405949995214
44.681999999999995,0.024212273788593922
44.683,0.021149041933236565
44.684,0.016501674961306622
44.684999999999995,0.011393747218535144
44.686,0.006862416923595544
44.687,0.0036043336472972804
44.687999999999995,0.0018199513448738448
44.689,0.0011961423485668916
44.69,0.0010298656864820477
44.690999999999995,0.0004580094998510722
44.692,0.0012695323923964106
44.693,0.004547611353005004
44.693999999999996,0.009269885784188086
44.695,0.01481887983541349
44.696,0.020195680566417334
