Czas,AbsSum,Sum
116.05900000000001,0.00981320011918357,-0.00981320011918357
116.06,0.004237987121465743,-0.004237987121465743
116.061,0.0007766130150497167,0.0007766130150497167
116.06200000000001,0.00423393955908435,0.00423393955908435
116.063,0.0056022205412669165,0.0056022205412669165
116.06400000000001,0.004926026790584259,0.004926026790584259
116.06500000000001,0.0027725313721715184,0.0027725313721715184
116.066,3.5430789370343665e-05,3.5430789370343665e-05
116.06700000000001,0.00233910135982998,-0.00233910135982998
116.06800000000001,0.0036198071255748193,-0.0036198071255748193
116.069,0.003473045481081566,-0.003473045481081566
116.07000000000001,0.0020130501840970867,-0.0020130501840970867
116.07100000000001,0.00028456728040083965,0.00028456728040083965
116.072,0.0027680947243115058,0.0027680947243115058
116.07300000000001,0.0048279799035128215,0.0048279799035128215
116.07400000000001,0.006076976069733759,0.006076976069733759
116.075,0.0064387089314934835,0.0064387089314934835
116.07600000000001,0.006124772902058682,0.006124772902058682
116.07700000000001,0.005518184945991527,0.005518184945991527
116.078,0.005010403518889357,0.005010403518889357
116.07900000000001,0.004851082837622066,0.004851082837622066
116.08000000000001,0.005061410424379602,0.005061410424379602
116.081,0.005437211919834223,0.005437211919834223
116.08200000000001,0.0056360857409692745,0.0056360857409692745
116.08300000000001,0.0053146007815702495,0.0053146007815702495
116.084,0.0042661600203737935,0.0042661600203737935
116.08500000000001,0.002511878594933864,0.002511878594933864
116.08600000000001,0.00031423539700022865,0.00031423539700022865
116.087,0.0018902159322140533,-0.0018902159322140533
116.08800000000001,0.0036162794218710806,-0.0036162794218710806
116.08900000000001,0.004472971790488969,-0.004472971790488969
116.09,0.0042790062182728635,-0.0042790062182728635
116.09100000000001,0.003116363774846868,-0.003116363774846868
116.09200000000001,0.001307863050105554,-0.001307863050105554
116.093,0.0006717770668885732,0.0006717770668885732
116.09400000000001,0.002322695142566913,0.002322695142566913
116.09500000000001,0.0032465446814157225,0.0032465446814157225
116.096,0.003237871393340088,0.003237871393340088
116.09700000000001,0.002317908185786554,0.002317908185786554
116.09800000000001,0.0007067428459294657,0.0007067428459294657
116.099,0.0012524697170670086,-0.0012524697170670086
116.10000000000001,0.003191551625127687,-0.003191551625127687
116.10100000000001,0.004808472151741844,-0.004808472151741844
116.102,0.005927730363206511,-0.005927730363206511
116.10300000000001,0.006517433584434229,-0.006517433584434229
116.10400000000001,0.006664184812628574,-0.006664184812628574
116.105,0.006518662983969137,-0.006518662983969137
116.10600000000001,0.006231631905872584,-0.006231631905872584
116.10700000000001,0.005900720917583423,-0.005900720917583423
116.108,0.0055432000039388795,-0.0055432000039388795
116.10900000000001,0.005101082631986452,-0.005101082631986452
116.11000000000001,0.004474931026897855,-0.004474931026897855
116.111,0.003574397086637434,-0.003574397086637434
116.11200000000001,0.0023688597744603323,-0.0023688597744603323
116.11300000000001,0.0009215491851624252,-0.0009215491851624252
116.114,0.0006048441146551646,0.0006048441146551646
116.11500000000001,0.001975083748512476,0.001975083748512476
116.11600000000001,0.0029354668728554076,0.0029354668728554076
116.117,0.0032813756929877405,0.0032813756929877405
116.11800000000001,0.002919608104709143,0.002919608104709143
116.11900000000001,0.0019067424392067212,0.0019067424392067212
116.12,0.0004501224639433995,0.0004501224639433995
116.12100000000001,0.0011322639910860807,-0.0011322639910860807
116.12200000000001,0.0024851005699074555,-0.0024851005699074555
116.123,0.0033040136840589603,-0.0033040136840589603
116.12400000000001,0.003414789520137292,-0.003414789520137292
116.12500000000001,0.002820503561485237,-0.002820503561485237
116.126,0.0017015588792884588,-0.0017015588792884588
116.12700000000001,0.0003667957351044395,-0.0003667957351044395
116.128,0.000831616568471004,0.000831616568471004
116.129,0.0015953967686394375,0.0015953967686394375
116.13000000000001,0.0017609790885056399,0.0017609790885056399
116.131,0.0013398824391196592,0.0013398824391196592
116.132,0.0005067819448738364,0.0005067819448738364
116.13300000000001,0.0004602372105144801,-0.0004602372105144801
116.134,0.0012676423162544528,-0.0012676423162544528
116.135,0.0016942202757576998,-0.0016942202757576998
116.13600000000001,0.0016508631538765248,-0.0016508631538765248
116.137,0.00119457717778623,-0.00119457717778623
116.138,0.0004948944437829535,-0.0004948944437829535
116.13900000000001,0.000232782222403764,0.000232782222403764
116.14,0.0008015073623644518,0.0008015073623644518
116.141,0.001107991639641532,0.001107991639641532
116.14200000000001,0.0011504382343215818,0.0011504382343215818
116.143,0.0010060910207071697,0.0010060910207071697
116.144,0.0007817124757032745,0.0007817124757032745
116.14500000000001,0.0005608044063462153,0.0005608044063462153
116.146,0.0003720372754033443,0.0003720372754033443
116.147,0.00019349358624055313,0.00019349358624055313
116.14800000000001,9.354948898467561e-06,-9.354948898467561e-06
116.149,0.00023080362749796366,-0.00023080362749796366
116.15,0.00038570880429726764,-0.00038570880429726764
116.15100000000001,0.00031003778471650503,-0.00031003778471650503
116.152,0.00018743179989112735,0.00018743179989112735
116.153,0.0012331381090011247,0.0012331381090011247
116.15400000000001,0.00278870744461003,0.00278870744461003
116.155,0.004586398183783275,0.004586398183783275
116.156,0.006138603148745908,0.006138603148745908
116.15700000000001,0.006838306493468903,0.006838306493468903
116.158,0.006134974209360732,0.006134974209360732
116.159,0.003738186911320179,0.003738186911320179
116.16000000000001,0.0002183150684835543,-0.0002183150684835543
116.161,0.005117502583354328,-0.005117502583354328
116.162,0.009944335866201845,-0.009944335866201845
116.16300000000001,0.01351151623743202,-0.01351151623743202
116.164,0.014774024862586476,-0.014774024862586476
116.165,0.013144850658317032,-0.013144850658317032
116.16600000000001,0.00871381855859173,-0.00871381855859173
116.167,0.002292337464940625,-0.002292337464940625
116.168,0.004745121348157928,0.004745121348157928
116.16900000000001,0.010790798639285608,0.010790798639285608
116.17,0.014417527891573793,0.014417527891573793
116.171,0.01475896646526482,0.01475896646526482
116.17200000000001,0.011743604445568602,0.011743604445568602
116.173,0.006110874574749125,0.006110874574749125
116.174,0.0007976114370855783,-0.0007976114370855783
116.17500000000001,0.007410353818848514,-0.007410353818848514
116.176,0.01235045808834521,-0.01235045808834521
116.177,0.014785790569028607,-0.014785790569028607
116.17800000000001,0.014603047143920024,-0.014603047143920024
116.179,0.012360886410406568,-0.012360886410406568
116.18,0.00904771285325303,-0.00904771285325303
116.18100000000001,0.005730552471014662,-0.005730552471014662
116.182,0.003212853247739788,-0.003212853247739788
116.183,0.0018110294824631979,-0.0018110294824631979
116.18400000000001,0.0013155335144460548,-0.0013155335144460548
116.185,0.0011376868000550155,-0.0011376868000550155
116.186,0.0005806986344835705,-0.0005806986344835705
116.18700000000001,0.0008664271182232284,0.0008664271182232284
116.188,0.0033170050213589173,0.0033170050213589173
116.18900000000001,0.006428869825922922,0.006428869825922922
116.19000000000001,0.009515807242421398,0.009515807242421398
116.191,0.01178289308611812,0.01178289308611812
116.19200000000001,0.012597846624517585,0.012597846624517585
116.19300000000001,0.011700508250937845,0.011700508250937845
116.194,0.00927795245141943,0.00927795245141943
116.19500000000001,0.005883622789740126,0.005883622789740126
116.19600000000001,0.00223626825547884,0.00223626825547884
116.197,0.0010226900629761195,-0.0010226900629761195
116.19800000000001,0.00352192793751803,-0.00352192793751803
116.19900000000001,0.005233255434719199,-0.005233255434719199
116.2,0.006402612274524197,-0.006402612274524197
116.20100000000001,0.007372271930247464,-0.007372271930247464
116.20200000000001,0.008370111598525527,-0.008370111598525527
116.203,0.009355263045546328,-0.009355263045546328
116.20400000000001,0.009988370698202175,-0.009988370698202175
116.20500000000001,0.009746542734213519,-0.009746542734213519
116.206,0.008145641375091054,-0.008145641375091054
116.20700000000001,0.004987387986642125,-0.004987387986642125
116.20800000000001,0.0005333088631372057,-0.0005333088631372057
116.209,0.0044713742427888135,0.0044713742427888135
116.21000000000001,0.008949755409588712,0.008949755409588712
116.21100000000001,0.011783768262242745,0.011783768262242745
116.212,0.012153145251253326,0.012153145251253326
116.21300000000001,0.009810093738260235,0.009810093738260235
116.21400000000001,0.005193486013156926,0.005193486013156926
116.215,0.0006627344112575371,-0.0006627344112575371
116.21600000000001,0.006404111630718314,-0.006404111630718314
116.21700000000001,0.010728675716905311,-0.010728675716905311
116.218,0.012740256539982729,-0.012740256539982729
116.21900000000001,0.01217050835278605,-0.01217050835278605
116.22000000000001,0.009402625797118232,-0.009402625797118232
116.221,0.005296898223564883,-0.005296898223564883
116.22200000000001,0.0008845180944065239,-0.0008845180944065239
116.22300000000001,0.002961711628909658,0.002961711628909658
116.224,0.00576750166510658,0.00576750166510658
116.22500000000001,0.0075315374557765255,0.0075315374557765255
116.22600000000001,0.008619716026096737,0.008619716026096737
116.227,0.00953018854709877,0.00953018854709877
116.22800000000001,0.010625831198534347,0.010625831198534347
116.22900000000001,0.01194007876138597,0.01194007876138597
116.23,0.013132046092018247,0.013132046092018247
116.23100000000001,0.013608819852890454,0.013608819852890454
116.23200000000001,0.012768237901794016,0.012768237901794016
116.233,0.010268298535099267,0.010268298535099267
116.23400000000001,0.0062171495967663125,0.0062171495967663125
116.23500000000001,0.001205216445326611,0.001205216445326611
116.236,0.0038413582940311666,-0.0038413582940311666
116.23700000000001,0.007940110781017114,-0.007940110781017114
116.23800000000001,0.010367418526857169,-0.010367418526857169
116.239,0.010895798768353795,-0.010895798768353795
116.24000000000001,0.00986459687989922,-0.00986459687989922
116.24100000000001,0.008053406768464522,-0.008053406768464522
116.242,0.006398370833159449,-0.006398370833159449
116.24300000000001,0.0056495623076851555,-0.0056495623076851555
116.24400000000001,0.006091648939600494,-0.006091648939600494
116.245,0.0074305749999284245,-0.0074305749999284245
116.24600000000001,0.008892144460443858,-0.008892144460443858
116.24700000000001,0.009503717157479687,-0.009503717157479687
116.248,0.008464011640740558,-0.008464011640740558
116.24900000000001,0.005471928150741561,-0.005471928150741561
116.25000000000001,0.0008960108217475036,-0.0008960108217475036
116.251,0.004281338549753419,0.004281338549753419
116.25200000000001,0.008734250122586046,0.008734250122586046
116.253,0.011193542935452957,0.011193542935452957
116.254,0.010845779117145288,0.010845779117145288
116.25500000000001,0.0075986726401263876,0.0075986726401263876
116.256,0.00212388555989479,0.00212388555989479
116.257,0.004337716108917774,-0.004337716108917774
116.25800000000001,0.01034410794654353,-0.01034410794654353
116.259,0.01467201074444039,-0.01467201074444039
116.26,0.016651422909859524,-0.016651422909859524
116.26100000000001,0.01630830916926598,-0.01630830916926598
116.262,0.014275377020902268,-0.014275377020902268
116.263,0.011509885261753647,-0.011509885261753647
116.26400000000001,0.008921918242560653,-0.008921918242560653
116.265,0.0070446832281206495,-0.0070446832281206495
116.266,0.005861045282784792,-0.005861045282784792
116.26700000000001,0.004844302965426214,-0.004844302965426214
116.268,0.0031959318574540665,-0.0031959318574540665
116.269,0.000194687392084089,-0.000194687392084089
116.27000000000001,0.0044667411412990235,0.0044667411412990235
116.271,0.010476889724666065,0.010476889724666065
116.272,0.016906997911433463,0.016906997911433463
116.27300000000001,0.022423915000748026,0.022423915000748026
116.274,0.02564939713481947,0.02564939713481947
116.275,0.025553288315818892,0.025553288315818892
116.27600000000001,0.02175842338678749,0.02175842338678749
116.277,0.014665260175046173,0.014665260175046173
116.278,0.005362908665119373,0.005362908665119373
116.27900000000001,0.004639961384805641,-0.004639961384805641
116.28,0.013778005236482843,-0.013778005236482843
116.281,0.02077704637105993,-0.02077704637105993
116.28200000000001,0.024891296471616947,-0.024891296471616947
116.283,0.02597660440460763,-0.02597660440460763
116.284,0.024401636240934825,-0.024401636240934825
116.28500000000001,0.02084798099594249,-0.02084798099594249
116.286,0.016077467737921874,-0.016077467737921874
116.287,0.01074346175700909,-0.01074346175700909
116.28800000000001,0.005295999897353576,-0.005295999897353576
116.289,9.791392945952274e-06,9.791392945952274e-06
116.29,0.005030940167016985,0.005030940167016985
116.29100000000001,0.009631418303649079,0.009631418303649079
116.292,0.013607162250195546,0.013607162250195546
116.293,0.0166746184411593,0.0166746184411593
116.29400000000001,0.018525717898767866,0.018525717898767866
116.295,0.01892334209063753,0.01892334209063753
116.296,0.017795039238012712,0.017795039238012712
116.29700000000001,0.015284425134921273,0.015284425134921273
116.298,0.011737549241570994,0.011737549241570994
116.299,0.007627604655615427,0.007627604655615427
116.30000000000001,0.0034450498801046558,0.0034450498801046558
116.301,0.00040766934327185163,-0.00040766934327185163
116.302,0.0036812635569620287,-0.0036812635569620287
116.30300000000001,0.006286354912509504,-0.006286354912509504
116.304,0.008247109090687307,-0.008247109090687307
116.305,0.009627220530642605,-0.009627220530642605
116.30600000000001,0.010462746594654312,-0.010462746594654312
116.307,0.010730922162381485,-0.010730922162381485
116.308,0.010366962807135083,-0.010366962807135083
116.30900000000001,0.009319235798705519,-0.009319235798705519
116.31,0.007615957859322014,-0.007615957859322014
116.311,0.005410779348315409,-0.005410779348315409
116.31200000000001,0.0029825887144978,-0.0029825887144978
116.313,0.000683417407305064,-0.000683417407305064
116.31400000000001,0.0011500147991266678,0.0011500147991266678
116.31500000000001,0.002289557398579711,0.002289557398579711
116.316,0.002678352486423686,0.002678352486423686
116.31700000000001,0.0024379568365702924,0.0024379568365702924
116.31800000000001,0.0018153952117544573,0.0018153952117544573
116.319,0.0010887434569661909,0.0010887434569661909
116.32000000000001,0.0004663807380211841,0.0004663807380211841
116.32100000000001,1.842144274616682e-05,1.842144274616682e-05
116.322,0.00033264942424169496,-0.00033264942424169496
116.32300000000001,0.0007574523853262427,-0.0007574523853262427
116.32400000000001,0.0014215362534389878,-0.0014215362534389878
116.325,0.0023818173779878334,-0.0023818173779878334
116.32600000000001,0.0035199573148588918,-0.0035199573148588918
116.32700000000001,0.004543063244109249,-0.004543063244109249
116.328,0.005058102629321525,-0.005058102629321525
116.32900000000001,0.004698899182539101,-0.004698899182539101
116.33000000000001,0.003263563512462463,-0.003263563512462463
116.331,0.000813604782142759,-0.000813604782142759
116.33200000000001,0.00230339631341712,0.00230339631341712
116.33300000000001,0.005521119490505168,0.005521119490505168
116.334,0.008195283072732153,0.008195283072732153
116.33500000000001,0.009776042569100068,0.009776042569100068
116.33600000000001,0.009958589830986074,0.009958589830986074
116.337,0.008764701283830476,0.008764701283830476
116.33800000000001,0.00652985610382343,0.00652985610382343
116.33900000000001,0.0038006790346221393,0.0038006790346221393
116.34,0.0011756781733221104,0.0011756781733221104
116.34100000000001,0.0008608066891578108,-0.0008608066891578108
116.34200000000001,0.002061175421258049,-0.002061175421258049
116.343,0.0024591937208859205,-0.0024591937208859205
116.34400000000001,0.0023283178862009324,-0.0023283178862009324
116.34500000000001,0.002072700240149432,-0.002072700240149432
116.346,0.002089373973083634,-0.002089373973083634
116.34700000000001,0.0026458838887312565,-0.0026458838887312565
116.34800000000001,0.0038087169167395794,-0.0038087169167395794
116.349,0.005438393510666947,-0.005438393510666947
116.35000000000001,0.007244410381895213,-0.007244410381895213
116.35100000000001,0.008875286381839423,-0.008875286381839423
116.352,0.010011367065165316,-0.010011367065165316
116.35300000000001,0.010432287084317898,-0.010432287084317898
116.35400000000001,0.010044238081000837,-0.010044238081000837
116.355,0.008868639422757257,-0.008868639422757257
116.35600000000001,0.007007046261986767,-0.007007046261986767
116.35700000000001,0.0046025585141631934,-0.0046025585141631934
116.358,0.0018144304873328701,-0.0018144304873328701
116.35900000000001,0.0011875447349180696,0.0011875447349180696
116.36000000000001,0.004214128137251851,0.004214128137251851
116.361,0.007046750619668567,0.007046750619668567
116.36200000000001,0.00944145866808959,0.00944145866808959
116.36300000000001,0.011155293889566254,0.011155293889566254
116.364,0.011992763998471424,0.011992763998471424
116.36500000000001,0.0118590794883904,0.0118590794883904
116.36600000000001,0.01080057975246428,0.01080057975246428
116.367,0.009014170687844401,0.009014170687844401
116.36800000000001,0.006816538738816375,0.006816538738816375
116.36900000000001,0.004577293403607879,0.004577293403607879
116.37,0.002633110830223116,0.002633110830223116
116.37100000000001,0.0012075615858467635,0.0012075615858467635
116.37200000000001,0.00036066976012505284,0.00036066976012505284
116.373,1.6557299785018523e-05,-1.6557299785018523e-05
116.37400000000001,0.00016132584435465488,-0.00016132584435465488
116.37500000000001,0.0003648825175885574,-0.0003648825175885574
116.376,0.000887485741472884,-0.000887485741472884
116.37700000000001,0.0018869573879704787,-0.0018869573879704787
116.378,0.0033792283054897634,-0.0033792283054897634
116.379,0.005237902500459636,-0.005237902500459636
116.38000000000001,0.007227449986512809,-0.007227449986512809
116.381,0.009055615671519433,-0.009055615671519433
116.382,0.010427845426660087,-0.010427845426660087
116.38300000000001,0.01109026116629714,-0.01109026116629714
116.384,0.010855711649648563,-0.010855711649648563
116.385,0.00961590965506106,-0.00961590965506106
116.38600000000001,0.00734791640793564,-0.00734791640793564
116.387,0.004123093192146044,-0.004123093192146044
116.388,0.00012137488515182878,-0.00012137488515182878
116.38900000000001,0.004354103425095075,0.004354103425095075
116.39,0.008873568352389182,0.008873568352389182
116.391,0.012901739575154421,0.012901739575154421
116.39200000000001,0.01585233089207124,0.01585233089207124
116.393,0.01717462196036634,0.01717462196036634
116.394,0.01645846795568612,0.01645846795568612
116.39500000000001,0.013534070381386236,0.013534070381386236
116.396,0.008539179360179942,0.008539179360179942
116.397,0.0019312476359140583,0.0019312476359140583
116.39800000000001,0.005565353414350639,-0.005565353414350639
116.399,0.013070116814157052,-0.013070116814157052
116.4,0.01969229620922414,-0.01969229620922414
116.40100000000001,0.024678990778627945,-0.024678990778627945
116.402,0.027531597378414412,-0.027531597378414412
116.403,0.02806540363828234,-0.02806540363828234
116.40400000000001,0.026402543992925527,-0.026402543992925527
116.405,0.022906111791835188,-0.022906111791835188
116.406,0.018077667040415902,-0.018077667040415902
116.40700000000001,0.012447630361753328,-0.012447630361753328
116.408,0.006486454814669063,-0.006486454814669063
116.409,0.0005551677756813248,-0.0005551677756813248
116.41000000000001,0.005099717953734744,0.005099717953734744
116.411,0.01031538833348772,0.01031538833348772
116.412,0.014963840460347853,0.014963840460347853
116.41300000000001,0.01890571663026704,0.01890571663026704
116.414,0.02196409328068264,0.02196409328068264
116.415,0.02392724013640148,0.02392724013640148
116.41600000000001,0.024579495255174416,0.024579495255174416
116.417,0.023750935914384496,0.023750935914384496
116.418,0.0213716201497389,0.0213716201497389
116.41900000000001,0.017515584673097852,0.017515584673097852
116.42,0.012422912702526276,0.012422912702526276
116.421,0.006493561100767549,0.006493561100767549
116.42200000000001,0.0002525880742540996,0.0002525880742540996
116.423,0.005708361104109952,-0.005708361104109952
116.424,0.010804658049276498,-0.010804658049276498
116.42500000000001,0.01453648944940438,-0.01453648944940438
116.426,0.016559127787268868,-0.016559127787268868
116.427,0.016734452956418927,-0.016734452956418927
116.42800000000001,0.015154427078720065,-0.015154427078720065
116.429,0.012130757021627346,-0.012130757021627346
116.43,0.0081501038439178,-0.0081501038439178
116.43100000000001,0.003800397393738491,-0.003800397393738491
116.432,0.00032005488624562074,0.00032005488624562074
116.433,0.003694494712702858,0.003694494712702858
116.43400000000001,0.005963216414147856,0.005963216414147856
116.435,0.006967988369495958,0.006967988369495958
116.436,0.006757384458381305,0.006757384458381305
116.43700000000001,0.005554014444855724,0.005554014444855724
116.438,0.0036935528440345295,0.0036935528440345295
116.43900000000001,0.001551668654158519,0.001551668654158519
116.44000000000001,0.0005234603053456545,-0.0005234603053456545
116.441,0.002258887455368205,-0.002258887455368205
116.44200000000001,0.003478153808710948,-0.003478153808710948
116.44300000000001,0.004098102127975854,-0.004098102127975854
116.444,0.004110404618847602,-0.004110404618847602
116.44500000000001,0.003559988278539445,-0.003559988278539445
116.44600000000001,0.0025305697977750694,-0.0025305697977750694
116.447,0.0011415058561073004,-0.0011415058561073004
116.44800000000001,0.00044734678525129427,0.00044734678525129427
116.44900000000001,0.0020319196723145765,0.0020319196723145765
116.45,0.0033721285620071594,0.0033721285620071594
116.45100000000001,0.0042191018321507704,0.0042191018321507704
116.45200000000001,0.004360792378586845,0.004360792378586845
116.453,0.0036762724756732095,0.0036762724756732095
116.45400000000001,0.0021823052989280575,0.0021823052989280575
116.45500000000001,5.445522822364819e-05,5.445522822364819e-05
116.456,0.0023897330171138297,-0.0023897330171138297
116.45700000000001,0.004747265365541285,-0.004747265365541285
116.45800000000001,0.006614916440103372,-0.006614916440103372
116.459,0.007681571150292345,-0.007681571150292345
116.46000000000001,0.007801754550740313,-0.007801754550740313
116.46100000000001,0.007028214813173326,-0.007028214813173326
116.462,0.005592671929422033,-0.005592671929422033
116.46300000000001,0.003839202770062082,-0.003839202770062082
116.46400000000001,0.002129297339229695,-0.002129297339229695
116.465,0.000746558528638064,-0.000746558528638064
116.46600000000001,0.00017076709764869634,0.00017076709764869634
116.46700000000001,0.0006499965403913299,0.0006499965403913299
116.468,0.0008525080581628251,0.0008525080581628251
116.46900000000001,0.001002433657828372,0.001002433657828372
116.47000000000001,0.0012998200034690132,0.0012998200034690132
116.471,0.0018468796735074625,0.0018468796735074625
116.47200000000001,0.002610924056801319,0.002610924056801319
116.47300000000001,0.0034349370619158287,0.0034349370619158287
116.474,0.004090812653882721,0.004090812653882721
116.47500000000001,0.0043563842429611725,0.0043563842429611725
116.47600000000001,0.004090094754038987,0.004090094754038987
116.477,0.003278760068987644,0.003278760068987644
116.47800000000001,0.002043595641833896,0.002043595641833896
116.47900000000001,0.0006040178469374623,0.0006040178469374623
116.48,0.0007872673188143963,-0.0007872673188143963
116.48100000000001,0.0019154334411390272,-0.0019154334411390272
116.48200000000001,0.002657489681003216,-0.002657489681003216
116.483,0.0030025419805348582,-0.0030025419805348582
116.48400000000001,0.0030342092531895856,-0.0030342092531895856
116.48500000000001,0.002884293398123658,-0.002884293398123658
116.486,0.0026763515042825666,-0.0026763515042825666
116.48700000000001,0.002480454689338467,-0.002480454689338467
116.48800000000001,0.0022954062862000687,-0.0022954062862000687
116.489,0.002063975479908445,-0.002063975479908445
116.49000000000001,0.0017141732505313882,-0.0017141732505313882
116.49100000000001,0.001209714904036655,-0.001209714904036655
116.492,0.0005890561130782728,-0.0005890561130782728
116.49300000000001,2.392597203334071e-05,2.392597203334071e-05
116.49400000000001,0.0004446740967384321,0.0004446740967384321
116.495,0.00048252939427027104,0.00048252939427027104
116.49600000000001,8.448275913416585e-06,8.448275913416585e-06
116.49700000000001,0.0009866033523597316,-0.0009866033523597316
116.498,0.0023634263395036033,-0.0023634263395036033
116.49900000000001,0.003848806856741388,-0.003848806856741388
116.50000000000001,0.005091598348512994,-0.005091598348512994
116.501,0.005747025142054947,-0.005747025142054947
116.50200000000001,0.005566406382091988,-0.005566406382091988
116.503,0.0044671038020647124,-0.0044671038020647124
116.504,0.0025625999539239915,-0.0025625999539239915
116.50500000000001,0.00014364102722561018,-0.00014364102722561018
116.506,0.002385008600055156,0.002385008600055156
116.507,0.004595491486197505,0.004595491486197505
116.50800000000001,0.006131539517143574,0.006131539517143574
116.509,0.006782655354854483,0.006782655354854483
116.51,0.006519931589151559,0.006519931589151559
116.51100000000001,0.00548668650470425,0.00548668650470425
116.512,0.003949446476861114,0.003949446476861114
116.513,0.002224921882679248,0.002224921882679248
116.51400000000001,0.0006037877571026159,0.0006037877571026159
116.515,0.000708856427415676,-0.000708856427415676
116.516,0.0016228441125233427,-0.0016228441125233427
116.51700000000001,0.0021582275704143837,-0.0021582275704143837
116.518,0.002412473227232289,-0.002412473227232289
116.519,0.002512796096794005,-0.002512796096794005
116.52000000000001,0.002569569444529148,-0.002569569444529148
116.521,0.002644458916405791,-0.002644458916405791
116.522,0.002740730661212102,-0.002740730661212102
116.52300000000001,0.0028152826488181894,-0.0028152826488181894
116.524,0.0028049633473447573,-0.0028049633473447573
116.525,0.0026558607495104822,-0.0026558607495104822
116.52600000000001,0.002344548547131756,-0.002344548547131756
116.527,0.0018844180459332849,-0.0018844180459332849
116.528,0.0013165689215942913,-0.0013165689215942913
116.52900000000001,0.0006909161680495487,-0.0006909161680495487
116.53,4.691186639230007e-05,-4.691186639230007e-05
116.531,0.0005968271887934599,0.0005968271887934599
116.53200000000001,0.0012386619022922742,0.0012386619022922742
116.533,0.001876908305301842,0.001876908305301842
116.534,0.0024870982326028117,0.0024870982326028117
116.53500000000001,0.0030047681909922707,0.0030047681909922707
116.536,0.0033244479123043613,0.0033244479123043613
116.537,0.003320322260835828,0.003320322260835828
116.53800000000001,0.002885726984746028,0.002885726984746028
116.539,0.001980089547821474,0.001980089547821474
116.54,0.0006664546152415123,0.0006664546152415123
116.54100000000001,0.0008771036932403296,-0.0008771036932403296
116.542,0.002382323169306367,-0.002382323169306367
116.543,0.003550563386224791,-0.003550563386224791
116.54400000000001,0.004133528399272524,-0.004133528399272524
116.545,0.004011197466138904,-0.004011197466138904
116.546,0.003240628970206184,-0.003240628970206184
116.54700000000001,0.0020555470838254063,-0.0020555470838254063
116.548,0.000810652887468331,-0.000810652887468331
116.549,0.0001175482737848274,0.0001175482737848274
116.55000000000001,0.000445703531069522,0.000445703531069522
116.551,7.839638777185975e-05,7.839638777185975e-05
116.552,0.0008501575199656452,-0.0008501575199656452
116.55300000000001,0.002005968303096453,-0.002005968303096453
116.554,0.002953098579657424,-0.002953098579657424
116.555,0.003292992197866849,-0.003292992197866849
116.55600000000001,0.0028027827635042045,-0.0028027827635042045
116.557,0.0015268251209860216,-0.0015268251209860216
116.558,0.0002125814558658031,0.0002125814558658031
116.55900000000001,0.0018953707086866813,0.0018953707086866813
116.56,0.0029557940278767234,0.0029557940278767234
116.561,0.0029624856499160333,0.0029624856499160333
116.56200000000001,0.0017703433883277545,0.0017703433883277545
116.563,0.00040662521951719346,-0.00040662521951719346
116.56400000000001,0.003030153856952068,-0.003030153856952068
116.56500000000001,0.005376175745116124,-0.005376175745116124
116.566,0.006739612199433072,-0.006739612199433072
116.56700000000001,0.006645358785706601,-0.006645358785706601
116.56800000000001,0.005000670903789356,-0.005000670903789356
116.569,0.0021398997377236185,-0.0021398997377236185
116.57000000000001,0.001255662558303297,0.001255662558303297
116.57100000000001,0.004341922754971173,0.004341922754971173
116.572,0.006346761287821357,0.006346761287821357
116.57300000000001,0.006785811738040609,0.006785811738040609
116.57400000000001,0.0055949157558455994,0.0055949157558455994
116.575,0.0031403154534358547,0.0031403154534358547
116.57600000000001,0.00010513531160272869,0.00010513531160272869
116.57700000000001,0.0027116305907690314,-0.0027116305907690314
116.578,0.004621534890700869,-0.004621534890700869
116.57900000000001,0.005230393557193573,-0.005230393557193573
116.58000000000001,0.004526605441107363,-0.004526605441107363
116.581,0.0028527850841324077,-0.0028527850841324077
116.58200000000001,0.0007763212962419267,-0.0007763212962419267
116.58300000000001,0.0010951642709113856,0.0010951642709113856
116.584,0.0022932000087087013,0.0022932000087087013
116.58500000000001,0.002608148550756483,0.002608148550756483
116.58600000000001,0.002117535469988396,0.002117535469988396
116.587,0.0011229858991452068,0.0011229858991452068
116.58800000000001,2.5121409740277398e-05,2.5121409740277398e-05
116.58900000000001,0.0008167482692830696,-0.0008167482692830696
116.59,0.0011928446587527572,-0.0011928446587527572
116.59100000000001,0.001087305316327651,-0.001087305316327651
116.59200000000001,0.0006520288791403621,-0.0006520288791403621
116.593,0.00012834305765562184,-0.00012834305765562184
116.59400000000001,0.00024895340547570716,0.00024895340547570716
116.59500000000001,0.000328483822677414,0.000328483822677414
116.596,7.506073092504479e-05,7.506073092504479e-05
116.59700000000001,0.0004467141515066,-0.0004467141515066
116.59800000000001,0.001122910069683054,-0.001122910069683054
116.599,0.0018473128710092034,-0.0018473128710092034
116.60000000000001,0.0025575380610974286,-0.0025575380610974286
116.60100000000001,0.0032344816156584166,-0.0032344816156584166
116.602,0.0038677631328662213,-0.0038677631328662213
116.60300000000001,0.004406938007942953,-0.004406938007942953
116.60400000000001,0.0047267666777276885,-0.0047267666777276885
116.605,0.004630827276455743,-0.004630827276455743
116.60600000000001,0.0039023968812393448,-0.0039023968812393448
116.60700000000001,0.0023906651461470794,-0.0023906651461470794
116.608,0.00010234708775363856,-0.00010234708775363856
116.60900000000001,0.0027387328487082363,0.0027387328487082363
116.61000000000001,0.005694632481749112,0.005694632481749112
116.611,0.008189714611548557,0.008189714611548557
116.61200000000001,0.009645486851325068,0.009645486851325068
116.61300000000001,0.00963617703750169,0.00963617703750169
116.614,0.008016571688349206,0.008016571688349206
116.61500000000001,0.004979400914431957,0.004979400914431957
116.61600000000001,0.0010206177383266536,0.0010206177383266536
116.617,0.003179607330156165,-0.003179607330156165
116.61800000000001,0.006924674086510539,-0.006924674086510539
116.61900000000001,0.009666577056471939,-0.009666577056471939
116.62,0.011118093568502787,-0.011118093568502787
116.62100000000001,0.011280722635544803,-0.011280722635544803
116.62200000000001,0.010386273283136566,-0.010386273283136566
116.623,0.008779503676940954,-0.008779503676940954
116.62400000000001,0.006788291350399653,-0.006788291350399653
116.62500000000001,0.004629591129868193,-0.004629591129868193
116.626,0.0023833463559828757,-0.0023833463559828757
116.62700000000001,3.859934473685558e-05,-3.859934473685558e-05
116.628,0.0024132072001184267,0.0024132072001184267
116.629,0.004882219775934712,0.004882219775934712
116.63000000000001,0.007128026744668039,0.007128026744668039
116.631,0.008781469820906652,0.008781469820906652
116.632,0.009441286524537336,0.009441286524537336
116.63300000000001,0.00881529894705748,0.00881529894705748
116.634,0.006854673985163843,0.006854673985163843
116.635,0.003827132665667719,0.003827132665667719
116.63600000000001,0.00029283934547976966,0.00029283934547976966
116.637,0.0030205448226041745,-0.0030205448226041745
116.638,0.00541084888864572,-0.00541084888864572
116.63900000000001,0.006402870484934279,-0.006402870484934279
116.64,0.005891756569488494,-0.005891756569488494
116.641,0.0041777894761812736,-0.0041777894761812736
116.64200000000001,0.0018765446139616835,-0.0018765446139616835
116.643,0.0002702435870371437,0.0002702435870371437
116.644,0.0016237449921804464,0.0016237449921804464
116.64500000000001,0.0018430198771217452,0.0018430198771217452
116.646,0.0009821725950434198,0.0009821725950434198
116.647,0.0005420159189379615,-0.0005420159189379615
116.64800000000001,0.0021005128539971175,-0.0021005128539971175
116.649,0.003069530369268645,-0.003069530369268645
116.65,0.003041816427250106,-0.003041816427250106
116.65100000000001,0.001961108996576471,-0.001961108996576471
116.652,0.00013581115154926392,-0.00013581115154926392
116.653,0.0018705576125419726,0.0018705576125419726
116.65400000000001,0.003432627030846462,0.003432627030846462
116.655,0.004072718893347651,0.004072718893347651
116.656,0.003614851770821086,0.003614851770821086
116.65700000000001,0.0022318673408611264,0.0022318673408611264
116.658,0.0003722974379803039,0.0003722974379803039
116.659,0.0014043660090193259,-0.0014043660090193259
116.66000000000001,0.002623918891708219,-0.002623918891708219
116.661,0.0030552027386715787,-0.0030552027386715787
116.662,0.0027741689232966492,-0.0027741689232966492
116.66300000000001,0.002113139656375164,-0.002113139656375164
116.664,0.0015153907668067734,-0.0015153907668067734
116.665,0.0013490157964846363,-0.0013490157964846363
116.66600000000001,0.0017486388647128704,-0.0017486388647128704
116.667,0.0025439140601938234,-0.0025439140601938234
116.668,0.0033033590325188262,-0.0033033590325188262
116.66900000000001,0.003481578129012455,-0.003481578129012455
116.67,0.00262138866138192,-0.00262138866138192
116.671,0.0005423160866434601,-0.0005423160866434601
116.67200000000001,0.0025498905080677584,0.0025498905080677584
116.673,0.006072922065519258,0.006072922065519258
116.674,0.009198516658881285,0.009198516658881285
116.67500000000001,0.011067008668615753,0.011067008668615753
116.676,0.011022450356669175,0.011022450356669175
116.677,0.00879918234615658,0.00879918234615658
116.67800000000001,0.004606706193190802,0.004606706193190802
116.679,0.000908633897277602,-0.000908633897277602
116.68,0.006810171009670615,-0.006810171009670615
116.68100000000001,0.012081095965749368,-0.012081095965749368
116.682,0.015839823129745884,-0.015839823129745884
116.683,0.017506677769415727,-0.017506677769415727
116.68400000000001,0.01688782888931992,-0.01688782888931992
116.685,0.014169363975466245,-0.014169363975466245
116.686,0.009839097255914041,-0.009839097255914041
116.68700000000001,0.00456859922589343,-0.00456859922589343
116.688,0.0009101197802804686,0.0009101197802804686
116.68900000000001,0.005907991145994748,0.005907991145994748
116.69000000000001,0.00985170249519484,0.00985170249519484
116.691,0.012328663353390897,0.012328663353390897
116.69200000000001,0.013113690376820884,0.013113690376820884
116.69300000000001,0.01218565987883836,0.01218565987883836
116.694,0.009735124788337152,0.009735124788337152
116.69500000000001,0.0061556194567806985,0.0061556194567806985
116.69600000000001,0.0020073465683239627,0.0020073465683239627
116.697,0.0020546107462185046,-0.0020546107462185046
116.69800000000001,0.005384787429478979,-0.005384787429478979
116.69900000000001,0.00746783868648229,-0.00746783868648229
116.7,0.008026969920313369,-0.008026969920313369
116.70100000000001,0.007088954332518204,-0.007088954332518204
116.70200000000001,0.004982044284269039,-0.004982044284269039
116.703,0.0022603559541546302,-0.0022603559541546302
116.70400000000001,0.0004299610180453428,0.0004299610180453428
116.70500000000001,0.0025085842545742184,0.0025085842545742184
116.706,0.0035995364881882563,0.0035995364881882563
116.70700000000001,0.003611252538630995,0.003611252538630995
116.70800000000001,0.0027360076114568994,0.0027360076114568994
116.709,0.0013708539148188019,0.0013708539148188019
116.71000000000001,1.3970202193108802e-05,-1.3970202193108802e-05
116.71100000000001,0.0010177668229910965,-0.0010177668229910965
116.712,0.0014198632639348425,-0.0014198632639348425
116.71300000000001,0.0012263998028281128,-0.0012263998028281128
116.71400000000001,0.0006435399667662366,-0.0006435399667662366
116.715,8.988510603013215e-06,8.988510603013215e-06
116.71600000000001,0.0004120928724402468,0.0004120928724402468
116.71700000000001,0.0003508094165083844,0.0003508094165083844
116.718,0.0002247964290237274,-0.0002247964290237274
116.71900000000001,0.001196582760735942,-0.001196582760735942
116.72000000000001,0.0023280161549189588,-0.0023280161549189588
116.721,0.00334460852756719,-0.00334460852756719
116.72200000000001,0.004015366838748426,-0.004015366838748426
116.72300000000001,0.0042088421271184685,-0.0042088421271184685
116.724,0.003909634623681557,-0.003909634623681557
116.72500000000001,0.00319717406078353,-0.00319717406078353
116.72600000000001,0.002201996987672269,-0.002201996987672269
116.727,0.0010607284470897079,-0.0010607284470897079
116.72800000000001,0.00011215157712916507,0.00011215157712916507
116.72900000000001,0.001227951611005181,0.001227951611005181
116.73,0.002207737338496354,0.002207737338496354
116.73100000000001,0.0029612146454965223,0.0029612146454965223
116.73200000000001,0.003377664217526985,0.003377664217526985
116.733,0.003340424102249474,0.003340424102249474
116.73400000000001,0.002764935923922009,0.002764935923922009
116.73500000000001,0.001647859783354762,0.001647859783354762
116.736,0.00010657870123561223,0.00010657870123561223
116.73700000000001,0.001611674842849543,-0.001611674842849543
116.73800000000001,0.0031631753113233892,-0.0031631753113233892
116.739,0.004181028699359901,-0.004181028699359901
116.74000000000001,0.00437062410396115,-0.00437062410396115
116.74100000000001,0.0035991034485863484,-0.0035991034485863484
116.742,0.0019496495784061352,-0.0019496495784061352
116.74300000000001,0.0002796216501751814,0.0002796216501751814
116.74400000000001,0.0026360272782929304,0.0026360272782929304
116.745,0.004617469888069177,0.004617469888069177
116.74600000000001,0.005793746705087219,0.005793746705087219
116.74700000000001,0.005910146389229202,0.005910146389229202
116.748,0.004944831654003851,0.004944831654003851
116.74900000000001,0.003105564347172392,0.003105564347172392
116.75000000000001,0.0007693152834954508,0.0007693152834954508
116.751,0.0016156705735358658,-0.0016156705735358658
116.75200000000001,0.003636656592272924,-0.003636656592272924
116.753,0.005003489982330361,-0.005003489982330361
116.754,0.005595970419598535,-0.005595970419598535
116.75500000000001,0.005464929473522664,-0.005464929473522664
116.756,0.004793924990523475,-0.004793924990523475
116.757,0.003837754349279581,-0.003837754349279581
116.75800000000001,0.002856825786206282,-0.002856825786206282
116.759,0.002063082053835264,-0.002063082053835264
116.76,0.0015860633711807439,-0.0015860633711807439
116.76100000000001,0.0014601782719612369,-0.0014601782719612369
116.762,0.0016291626809212113,-0.0016291626809212113
116.763,0.001962288467620335,-0.001962288467620335
116.76400000000001,0.002278453081371692,-0.002278453081371692
116.765,0.0023767876683665665,-0.0023767876683665665
116.766,0.0020735648768760813,-0.0020735648768760813
116.76700000000001,0.0012436296019700348,-0.0012436296019700348
116.768,0.00013933287038017536,0.00013933287038017536
116.769,0.001973665210754853,0.001973665210754853
116.77000000000001,0.00402365662450414,0.00402365662450414
116.771,0.005945832550860422,0.005945832550860422
116.772,0.007349348423752755,0.007349348423752755
116.77300000000001,0.007881418050710054,0.007881418050710054
116.774,0.0073182956722127246,0.0073182956722127246
116.775,0.00563647905240583,0.00563647905240583
116.77600000000001,0.00304059327410676,0.00304059327410676
116.777,6.553817910045713e-05,-6.553817910045713e-05
116.778,0.0031622347704683015,-0.0031622347704683015
116.77900000000001,0.005732412144001048,-0.005732412144001048
116.78,0.007383638525556828,-0.007383638525556828
116.781,0.007939301731061627,-0.007939301731061627
116.78200000000001,0.007472267443766289,-0.007472267443766289
116.783,0.006271101962157759,-0.006271101962157759
116.784,0.004749265866405964,-0.004749265866405964
116.78500000000001,0.003325033598823189,-0.003325033598823189
116.786,0.002308467281807187,-0.002308467281807187
116.787,0.0018286693550829602,-0.0018286693550829602
116.78800000000001,0.0018208146864696893,-0.0018208146864696893
116.789,0.002072808366603238,-0.002072808366603238
116.79,0.0023125239512611644,-0.0023125239512611644
116.79100000000001,0.0023047881026755533,-0.0023047881026755533
116.792,0.0019263413979739748,-0.0019263413979739748
116.793,0.0011967835890221545,-0.0011967835890221545
116.79400000000001,0.0002600950535095909,-0.0002600950535095909
116.795,0.0006714794049904639,0.0006714794049904639
116.796,0.001387763457995774,0.001387763457995774
116.79700000000001,0.0017395807897861131,0.0017395807897861131
116.798,0.001668108903887698,0.001668108903887698
116.799,0.0012001002370307212,0.0012001002370307212
116.80000000000001,0.00041850457721170757,0.00041850457721170757
116.801,0.0005731219081272386,-0.0005731219081272386
116.802,0.0016738730660041561,-0.0016738730660041561
116.80300000000001,0.002786222722560246,-0.002786222722560246
116.804,0.003797173458445957,-0.003797173458445957
116.805,0.00455485368323516,-0.00455485368323516
116.80600000000001,0.004861035785731501,-0.004861035785731501
116.807,0.004495821664816969,-0.004495821664816969
116.808,0.003277751878485933,-0.003277751878485933
116.80900000000001,0.0011455466468640245,-0.0011455466468640245
116.81,0.0017665681087694774,0.0017665681087694774
116.811,0.0050930580879201695,0.0050930580879201695
116.81200000000001,0.008266403582950154,0.008266403582950154
116.813,0.010618293093469592,0.010618293093469592
116.81400000000001,0.011534935480592479,0.011534935480592479
116.81500000000001,0.010627002908029651,0.010627002908029651
116.816,0.007863909486233705,0.007863909486233705
116.81700000000001,0.0036271720544006907,0.0036271720544006907
116.81800000000001,0.0013418303370433973,-0.0013418303370433973
116.819,0.006094046889331721,-0.006094046889331721
116.82000000000001,0.009688615684849033,-0.009688615684849033
116.82100000000001,0.011415245094714145,-0.011415245094714145
116.822,0.010962043365855354,-0.010962043365855354
116.82300000000001,0.008482515846506262,-0.008482515846506262
116.82400000000001,0.004544569289417913,-0.004544569289417913
116.825,2.1356873897154633e-05,2.1356873897154633e-05
116.82600000000001,0.004329376201096835,0.004329376201096835
116.82700000000001,0.007640984920174471,0.007640984920174471
116.828,0.00950909369139146,0.00950909369139146
116.82900000000001,0.009830167584155542,0.009830167584155542
116.83000000000001,0.008801705198582371,0.008801705198582371
116.831,0.006811147385039731,0.006811147385039731
116.83200000000001,0.0043002625357036,0.0043002625357036
116.83300000000001,0.001650804378309277,0.001650804378309277
116.834,0.0008766749517634344,-0.0008766749517634344
116.83500000000001,0.0031425385460956785,-0.0031425385460956785
116.83600000000001,0.005082049499058648,-0.005082049499058648
116.837,0.006645034091728071,-0.006645034091728071
116.83800000000001,0.007754491537838533,-0.007754491537838533
116.83900000000001,0.008305473689727448,-0.008305473689727448
116.84,0.008205089854843667,-0.008205089854843667
116.84100000000001,0.007433994898229558,-0.007433994898229558
116.84200000000001,0.006097639480664765,-0.006097639480664765
116.843,0.0044370570373096566,-0.0044370570373096566
116.84400000000001,0.002783884852242521,-0.002783884852242521
116.84500000000001,0.0014671790801420292,-0.0014671790801420292
116.846,0.0007015427861537004,-0.0007015427861537004
116.84700000000001,0.0004982348861342766,-0.0004982348861342766
116.84800000000001,0.0006376953312409375,-0.0006376953312409375
116.849,0.0007233242736430022,-0.0007233242736430022
116.85000000000001,0.0003082371354546638,-0.0003082371354546638
116.85100000000001,0.0009411444336599353,0.0009411444336599353
116.852,0.00309813222042628,0.00309813222042628
116.85300000000001,0.005898635029825799,0.005898635029825799
116.85400000000001,0.008768019778320814,0.008768019778320814
116.855,0.010953823619969386,0.010953823619969386
116.85600000000001,0.011730943308853313,0.011730943308853313
116.85700000000001,0.010619688326040988,0.010619688326040988
116.858,0.00754915254627356,0.00754915254627356
116.85900000000001,0.002912185324631681,0.002912185324631681
116.86000000000001,0.002509945835113041,-0.002509945835113041
116.861,0.007735212342387479,-0.007735212342387479
116.86200000000001,0.01182765204565954,-0.01182765204565954
116.86300000000001,0.014131287995908027,-0.014131287995908027
116.864,0.014422674898688627,-0.014422674898688627
116.86500000000001,0.012938759214576214,-0.012938759214576214
116.86600000000001,0.010275377928489279,-0.010275377928489279
116.867,0.007191416059627661,-0.007191416059627661
116.86800000000001,0.00438167445194602,-0.00438167445194602
116.86900000000001,0.0022890448974113267,-0.0022890448974113267
116.87,0.001011586771849723,-0.001011586771849723
116.87100000000001,0.00032784202958682914,-0.00032784202958682914
116.87200000000001,0.00017498130048527473,0.00017498130048527473
116.873,0.0009178072792509978,0.0009178072792509978
116.87400000000001,0.0021552259056545433,0.0021552259056545433
116.87500000000001,0.0038681659144689856,0.0038681659144689856
116.876,0.005757897251260104,0.005757897251260104
116.87700000000001,0.007340971838591792,0.007340971838591792
116.878,0.008111387048647521,0.008111387048647521
116.879,0.007715032501982473,0.007715032501982473
116.88000000000001,0.006078869003054893,0.006078869003054893
116.881,0.0034534681348442936,0.0034534681348442936
116.882,0.00035652395380534707,0.00035652395380534707
116.88300000000001,0.002563215510091247,-0.002563215510091247
116.884,0.004697927302509397,-0.004697927302509397
116.885,0.005635825093267798,-0.005635825093267798
116.88600000000001,0.005254802515819127,-0.005254802515819127
116.887,0.0037318358658272694,-0.0037318358658272694
116.888,0.001472900227136751,-0.001472900227136751
116.88900000000001,0.0010080137441410778,0.0010080137441410778
116.89,0.0032196473159730576,0.0032196473159730576
116.891,0.004794899000829848,0.004794899000829848
116.89200000000001,0.0055386108747263385,0.0055386108747263385
116.893,0.005418748063967748,0.005418748063967748
116.894,0.0045178838094756275,0.0045178838094756275
116.89500000000001,0.0029732878981696235,0.0029732878981696235
116.896,0.0009332586431400564,0.0009332586431400564
116.897,0.0014542956143891782,-0.0014542956143891782
116.89800000000001,0.0040224965358087,-0.0040224965358087
116.899,0.00655294402845234,-0.00655294402845234
116.9,0.008755747631523567,-0.008755747631523567
116.90100000000001,0.010284693299765507,-0.010284693299765507
116.902,0.01079637229918093,-0.01079637229918093
116.903,0.010042881790222245,-0.010042881790222245
116.90400000000001,0.007970328993247797,-0.007970328993247797
116.905,0.004786833219381847,-0.004786833219381847
116.906,0.0009681090596948933,-0.0009681090596948933
116.90700000000001,0.0028144002425027816,0.0028144002425027816
116.908,0.00583347572393237,0.00583347572393237
116.909,0.0074808782258827915,0.0074808782258827915
116.91000000000001,0.007428496953860385,0.007428496953860385
116.911,0.005726946288852898,0.005726946288852898
116.912,0.0028079046388260393,0.0028079046388260393
116.91300000000001,0.0006165190526390461,-0.0006165190526390461
116.914,0.00373344414987965,-0.00373344414987965
116.915,0.005839244361614313,-0.005839244361614313
116.91600000000001,0.006520576086039998,-0.006520576086039998
116.917,0.005754168712307846,-0.005754168712307846
116.918,0.0038963516283433987,-0.0038963516283433987
116.91900000000001,0.001565730440740064,-0.001565730440740064
116.92,0.0005458081145659387,0.0005458081145659387
116.921,0.0018773040380686238,0.0018773040380686238
116.92200000000001,0.0021575252268426783,0.0021575252268426783
116.923,0.0014720238879091956,0.0014720238879091956
116.924,0.0002204104604461878,0.0002204104604461878
116.92500000000001,0.0010206622858865636,-0.0010206622858865636
116.926,0.0016849374031406982,-0.0016849374031406982
116.927,0.0013960394982772,-0.0013960394982772
116.92800000000001,8.43047979669197e-05,-8.43047979669197e-05
116.929,0.0019933076575259423,0.0019933076575259423
116.93,0.004333906060042646,0.004333906060042646
116.93100000000001,0.006342612839228318,0.006342612839228318
116.932,0.007510615427220552,0.007510615427220552
116.933,0.007562160737324147,0.007562160737324147
116.93400000000001,0.006526609501676375,0.006526609501676375
116.935,0.004716236192188188,0.004716236192188188
116.936,0.002620245553952132,0.002620245553952132
116.93700000000001,0.0007509723105504446,0.0007509723105504446
116.938,0.0005084369031747304,-0.0005084369031747304
116.93900000000001,0.0010081651644098634,-0.0010081651644098634
116.94000000000001,0.0008581245235351913,-0.0008581245235351913
116.941,0.00037270731101498683,-0.00037270731101498683
116.94200000000001,4.432001937679606e-05,4.432001937679606e-05
116.94300000000001,3.5435238562244756e-05,3.5435238562244756e-05
116.944,0.000598043536637092,-0.000598043536637092
116.94500000000001,0.0018400551932762103,-0.0018400551932762103
116.94600000000001,0.00347423787131713,-0.00347423787131713
116.947,0.0051592045773121405,-0.0051592045773121405
116.94800000000001,0.006536524636489864,-0.006536524636489864
116.94900000000001,0.007335008522151701,-0.007335008522151701
116.95,0.00743902016081731,-0.00743902016081731
116.95100000000001,0.006902887336268305,-0.006902887336268305
116.95200000000001,0.005912570901547761,-0.005912570901547761
116.953,0.004712843871950795,-0.004712843871950795
116.95400000000001,0.003527685799674758,-0.003527685799674758
116.95500000000001,0.0025007730776994814,-0.0025007730776994814
116.956,0.0016729511683346134,-0.0016729511683346134
116.95700000000001,0.0009986766266931882,-0.0009986766266931882
116.95800000000001,0.00038934765636432277,-0.00038934765636432277
116.959,0.00023674609477459488,0.00023674609477459488
116.96000000000001,0.0009178720035503049,0.0009178720035503049
116.96100000000001,0.0016377911820214183,0.0016377911820214183
116.962,0.002340323799307811,0.002340323799307811
116.96300000000001,0.002958748575500281,0.002958748575500281
116.96400000000001,0.0034437464561967064,0.0034437464561967064
116.965,0.0037756299254094656,0.0037756299254094656
116.96600000000001,0.003955110621588654,0.003955110621588654
116.96700000000001,0.0039780989886980265,0.0039780989886980265
116.968,0.0038090497110951265,0.0038090497110951265
116.96900000000001,0.0033700139854653402,0.0033700139854653402
116.97000000000001,0.002557210648910424,0.002557210648910424
116.971,0.0012852628982975066,0.0012852628982975066
116.97200000000001,0.00045426078807576036,-0.00045426078807576036
116.97300000000001,0.002543092724346009,-0.002543092724346009
116.974,0.004719761881996949,-0.004719761881996949
116.97500000000001,0.006612186584165002,-0.006612186584165002
116.97600000000001,0.007818808285818442,-0.007818808285818442
116.977,0.008019005197496874,-0.008019005197496874
116.97800000000001,0.007079441786825281,-0.007079441786825281
116.97900000000001,0.005119398705062907,-0.005119398705062907
116.98,0.002507471664539521,-0.002507471664539521
116.98100000000001,0.00021774210253292797,0.00021774210253292797
116.98200000000001,0.0024854445841967,0.0024854445841967
116.983,0.0038502103715312166,0.0038502103715312166
116.98400000000001,0.004120852292302756,0.004120852292302756
116.98500000000001,0.003417979975960205,0.003417979975960205
116.986,0.00213821264699119,0.00213821264699119
116.98700000000001,0.0008321347825937055,0.0008321347825937055
116.98800000000001,3.1384055744012924e-05,3.1384055744012924e-05
116.989,7.81658478843541e-05,7.81658478843541e-05
116.99000000000001,0.0010115518310515358,0.0010115518310515358
116.99100000000001,0.0025481624422842527,0.0025481624422842527
116.992,0.004165272749273625,0.004165272749273625
116.99300000000001,0.0052615079046644956,0.0052615079046644956
116.99400000000001,0.005344955447134655,0.005344955447134655
116.995,0.004189259294658844,0.004189259294658844
116.99600000000001,0.001908356621025297,0.001908356621025297
116.99700000000001,0.0010732110430337408,-0.0010732110430337408
116.998,0.004143696893507755,-0.004143696893507755
116.99900000000001,0.006680491951919738,-0.006680491951919738
117.00000000000001,0.008222354126117552,-0.008222354126117552
117.001,0.008583305889481772,-0.008583305889481772
117.00200000000001,0.007874824388144692,-0.007874824388144692
117.003,0.006434527153626889,-0.006434527153626889
117.004,0.004690976067743485,-0.004690976067743485
117.00500000000001,0.0030147084351272915,-0.0030147084351272915
117.006,0.0016082352733301248,-0.0016082352733301248
117.007,0.00047184898421173335,-0.00047184898421173335
117.00800000000001,0.00054654721265346,0.00054654721265346
117.009,0.0016405018130502145,0.0016405018130502145
117.01,0.00291841996216147,0.00291841996216147
117.01100000000001,0.004312664783537431,0.004312664783537431
117.012,0.005562812668688222,0.005562812668688222
117.013,0.006284315297447148,0.006284315297447148
117.01400000000001,0.006101906248757614,0.006101906248757614
117.015,0.004801821055041132,0.004801821055041132
117.016,0.00244741115062949,0.00244741115062949
117.01700000000001,0.0005872818113836429,-0.0005872818113836429
117.018,0.0036850449905162386,-0.0036850449905162386
117.019,0.006139220616020668,-0.006139220616020668
117.02000000000001,0.007348816262492552,-0.007348816262492552
117.021,0.006994555993124949,-0.006994555993124949
117.022,0.005139640651286276,-0.005139640651286276
117.02300000000001,0.002221843520588715,-0.002221843520588715
117.024,0.0010624090664783873,0.0010624090664783873
117.025,0.0039473575064783205,0.0039473575064783205
117.02600000000001,0.005803262229467733,0.005803262229467733
117.027,0.006296217965411602,0.006296217965411602
117.028,0.005456299478095846,0.005456299478095846
117.02900000000001,0.003637606192995771,0.003637606192995771
117.03,0.0013877635383909776,0.0013877635383909776
117.031,0.0007283757788274467,-0.0007283757788274467
117.03200000000001,0.0022942207927905993,-0.0022942207927905993
117.033,0.003146148676695087,-0.003146148676695087
117.034,0.0033895888135162164,-0.0033895888135162164
117.03500000000001,0.0033283282961959924,-0.0033283282961959924
117.036,0.0033360970655091416,-0.0033360970655091416
117.037,0.0037155839151219124,-0.0037155839151219124
117.03800000000001,0.004590535720573519,-0.004590535720573519
117.039,0.005862467147007627,-0.005862467147007627
117.04,0.007240495521078259,-0.007240495521078259
117.04100000000001,0.00832917296503734,-0.00832917296503734
117.042,0.008742711720703289,-0.008742711720703289
117.043,0.008209397742798533,-0.008209397742798533
117.04400000000001,0.0066375100685047575,-0.0066375100685047575
117.045,0.004129784976766468,-0.004129784976766468
117.046,0.0009510334455129286,-0.0009510334455129286
117.04700000000001,0.0025333568637893058,0.0025333568637893058
117.048,0.005925592650900491,0.005925592650900491
117.049,0.00885196807700466,0.00885196807700466
117.05000000000001,0.01099922543584639,0.01099922543584639
117.051,0.012133103335831756,0.012133103335831756
117.052,0.012108296910772108,0.012108296910772108
117.05300000000001,0.010879434351021927,0.010879434351021927
117.054,0.008516948328218242,0.008516948328218242
117.055,0.005223080156153057,0.005223080156153057
117.05600000000001,0.0013362290847489689,0.0013362290847489689
117.057,0.0026896470258852725,-0.0026896470258852725
117.058,0.0063382892825905104,-0.0063382892825905104
117.05900000000001,0.00911361307099306,-0.00911361307099306
117.06,0.01063536938799547,-0.01063536938799547
117.061,0.010723082952073497,-0.010723082952073497
117.06200000000001,0.009442333737293057,-0.009442333737293057
117.063,0.00709567856103416,-0.00709567856103416
117.06400000000001,0.004155933295138449,-0.004155933295138449
117.06500000000001,0.0011572209608606292,-0.0011572209608606292
117.066,0.0014269609583730826,0.0014269609583730826
117.06700000000001,0.003284438582061981,0.003284438582061981
117.06800000000001,0.004315638763033004,0.004315638763033004
117.069,0.004622574718559479,0.004622574718559479
117.07000000000001,0.004442265330534203,0.004442265330534203
117.07100000000001,0.004048598668288382,0.004048598668288382
117.072,0.0036557701408181857,0.0036557701408181857
117.07300000000001,0.00335434152848983,0.00335434152848983
117.07400000000001,0.0030985438815669094,0.0030985438815669094
117.075,0.0027451457747991754,0.0027451457747991754
117.07600000000001,0.0021264907408385415,0.0021264907408385415
117.07700000000001,0.0011293298434455392,0.0011293298434455392
117.078,0.0002494989896140559,-0.0002494989896140559
117.07900000000001,0.001889769056335543,-0.001889769056335543
117.08000000000001,0.0035799257152870395,-0.0035799257152870395
117.081,0.005080789272439049,-0.005080789272439049
117.08200000000001,0.006196097987038799,-0.006196097987038799
117.08300000000001,0.006823556586004655,-0.006823556586004655
117.084,0.006968424772186174,-0.006968424772186174
117.08500000000001,0.006716645662199622,-0.006716645662199622
117.08600000000001,0.006180361357774804,-0.006180361357774804
117.087,0.005439391660156849,-0.005439391660156849
117.08800000000001,0.004503794117911242,-0.004503794117911242
117.08900000000001,0.0033143453877564986,-0.0033143453877564986
117.09,0.0017827263135834048,-0.0017827263135834048
117.09100000000001,0.0001430349233877692,0.0001430349233877692
117.09200000000001,0.002413579058412091,0.002413579058412091
117.093,0.004841327808415177,0.004841327808415177
117.09400000000001,0.007110857848848087,0.007110857848848087
117.09500000000001,0.008839589190095337,0.008839589190095337
117.096,0.009673670858678422,0.009673670858678422
117.09700000000001,0.009390181509295832,0.009390181509295832
117.09800000000001,0.007972441059656386,0.007972441059656386
117.099,0.005632167429663676,0.005632167429663676
117.10000000000001,0.002768328935606099,0.002768328935606099
117.10100000000001,0.00012744770700677793,-0.00012744770700677793
117.102,0.0025918306954732465,-0.0025918306954732465
117.10300000000001,0.0043013590627404485,-0.0043013590627404485
117.10400000000001,0.005141724703197264,-0.005141724703197264
117.105,0.005215208587612473,-0.005215208587612473
117.10600000000001,0.004786191810607423,-0.004786191810607423
117.10700000000001,0.004183839150316601,-0.004183839150316601
117.108,0.0036937317518964566,-0.0036937317518964566
117.10900000000001,0.0034724634255214417,-0.0034724634255214417
117.11000000000001,0.003510581050363458,-0.003510581050363458
117.111,0.003652869876753003,-0.003652869876753003
117.11200000000001,0.0036664007855136244,-0.0036664007855136244
117.11300000000001,0.0033320208519838383,-0.0033320208519838383
117.114,0.002528640557086698,-0.002528640557086698
117.11500000000001,0.0012833905489812072,-0.0012833905489812072
117.11600000000001,0.00022719312387894428,0.00022719312387894428
117.117,0.0017236350144909035,0.0017236350144909035
117.11800000000001,0.002901449720319751,0.002901449720319751
117.11900000000001,0.0035154189251569057,0.0035154189251569057
117.12,0.0034445727634549784,0.0034445727634549784
117.12100000000001,0.0027197241279285213,0.0027197241279285213
117.12200000000001,0.0015080028560314732,0.0015080028560314732
117.123,6.221003528743262e-05,6.221003528743262e-05
117.12400000000001,0.0013472947777977767,-0.0013472947777977767
117.12500000000001,0.0024968705719848453,-0.0024968705719848453
117.126,0.0032520440459666423,-0.0032520440459666423
117.12700000000001,0.0035787160187097,-0.0035787160187097
117.128,0.0035243947376395863,-0.0035243947376395863
117.129,0.0031799677756877767,-0.0031799677756877767
117.13000000000001,0.0026375385931014014,-0.0026375385931014014
117.131,0.001959426061637236,-0.001959426061637236
117.132,0.0011681466392076466,-0.0011681466392076466
117.13300000000001,0.0002591168753733359,-0.0002591168753733359
117.134,0.0007703295308426982,0.0007703295308426982
117.135,0.0018876761827117646,0.0018876761827117646
117.13600000000001,0.0030013422055867565,0.0030013422055867565
117.137,0.003956993648709172,0.003956993648709172
117.138,0.0045586316573878564,0.0045586316573878564
117.13900000000001,0.004611296297579434,0.004611296297579434
117.14,0.00397516829173054,0.00397516829173054
117.141,0.002616423403322274,0.002616423403322274
117.14200000000001,0.0006396133988293798,0.0006396133988293798
117.143,0.0017101378837825808,-0.0017101378837825808
117.144,0.004079963369011679,-0.004079963369011679
117.14500000000001,0.006073265400549785,-0.006073265400549785
117.146,0.007332611597292262,-0.007332611597292262
117.147,0.00762307420271776,-0.00762307420271776
117.14800000000001,0.006895470487103682,-0.006895470487103682
117.149,0.005311809579055127,-0.005311809579055127
117.15,0.0032228578372275243,-0.0032228578372275243
117.15100000000001,0.0010987038503696635,-0.0010987038503696635
117.152,0.0005748872732399845,0.0005748872732399845
117.153,0.0014116637283729959,0.0014116637283729959
117.15400000000001,0.001223917443318446,0.001223917443318446
117.155,7.931109584409617e-05,7.931109584409617e-05
117.156,0.001701928715885945,-0.001701928715885945
117.15700000000001,0.0036129366712311563,-0.0036129366712311563
117.158,0.005076727265111686,-0.005076727265111686
117.159,0.0055868718534831776,-0.0055868718534831776
117.16000000000001,0.004838038581536359,-0.004838038581536359
117.161,0.0028128591452933074,-0.0028128591452933074
117.162,0.0001987020167402032,0.0001987020167402032
117.16300000000001,0.0036548064362674775,0.0036548064362674775
117.164,0.006880282065262921,0.006880282065262921
117.165,0.00921995931122973,0.00921995931122973
117.16600000000001,0.010189103849441087,0.010189103849441087
117.167,0.009583672709394433,0.009583672709394433
117.168,0.0075233789978569054,0.0075233789978569054
117.16900000000001,0.004417880373369438,0.004417880373369438
117.17,0.0008660656678218467,0.0008660656678218467
117.171,0.0024849439477593696,-0.0024849439477593696
117.17200000000001,0.005085243356756576,-0.005085243356756576
117.173,0.006596627183164784,-0.006596627183164784
117.174,0.006950223315795597,-0.006950223315795597
117.17500000000001,0.0063370095393290304,-0.0063370095393290304
117.176,0.005138146975223962,-0.005138146975223962
117.177,0.003816225220393191,-0.003816225220393191
117.17800000000001,0.002796221235829232,-0.002796221235829232
117.179,0.0023648761759017334,-0.0023648761759017334
117.18,0.0026101717015091018,-0.0026101717015091018
117.18100000000001,0.0034112393754420177,-0.0034112393754420177
117.182,0.004476721347792034,-0.004476721347792034
117.183,0.005419380287972391,-0.005419380287972391
117.18400000000001,0.0058486016194607545,-0.0058486016194607545
117.185,0.005460900133608351,-0.005460900133608351
117.186,0.0041109685684302235,-0.0041109685684302235
117.18700000000001,0.001850827588430669,-0.001850827588430669
117.188,0.0010691805604744838,0.0010691805604744838
117.18900000000001,0.004237534014534174,0.004237534014534174
117.19000000000001,0.007150984320208624,0.007150984320208624
117.191,0.009305423312378411,0.009305423312378411
117.19200000000001,0.01029320094750869,0.01029320094750869
117.19300000000001,0.009889430663337246,0.009889430663337246
117.194,0.008109736303994051,0.008109736303994051
117.19500000000001,0.005225084036457258,0.005225084036457258
117.19600000000001,0.0017261629947011284,0.0017261629947011284
117.197,0.001760379557032535,-0.001760379557032535
117.19800000000001,0.004590453455379407,-0.004590453455379407
117.19900000000001,0.006232751116731035,-0.006232751116731035
117.2,0.006382356941062499,-0.006382356941062499
117.20100000000001,0.005030676380002212,-0.005030676380002212
117.20200000000001,0.0024730172522932606,-0.0024730172522932606
117.203,0.0007507905051408973,0.0007507905051408973
117.20400000000001,0.003970998269644058,0.003970998269644058
117.20500000000001,0.006531768187217455,0.006531768187217455
117.206,0.007930208518668361,0.007930208518668361
117.20700000000001,0.007917382294935956,0.007917382294935956
117.20800000000001,0.006537755766988097,0.006537755766988097
117.209,0.004099630550420466,0.004099630550420466
117.21000000000001,0.0010870718920279153,0.0010870718920279153
117.21100000000001,0.0019614039683867987,-0.0019614039683867987
117.212,0.004574752422935922,-0.004574752422935922
117.21300000000001,0.006441246587981502,-0.006441246587981502
117.21400000000001,0.007449925914739849,-0.007449925914739849
117.215,0.007676717135135671,-0.007676717135135671
117.21600000000001,0.007325926954726251,-0.007325926954726251
117.21700000000001,0.006649038161487447,-0.006649038161487447
117.218,0.005866543078932096,-0.005866543078932096
117.21900000000001,0.005114378917759591,-0.005114378917759591
117.22000000000001,0.004426379839936383,-0.004426379839936383
117.221,0.003751763198189941,-0.003751763198189941
117.22200000000001,0.002996167297585083,-0.002996167297585083
117.22300000000001,0.002069315232160928,-0.002069315232160928
117.224,0.0009231834541071948,-0.0009231834541071948
117.22500000000001,0.0004294310597548545,0.0004294310597548545
117.22600000000001,0.0019175562286644693,0.0019175562286644693
117.227,0.00342987498718707,0.00342987498718707
117.22800000000001,0.004837628781212958,0.004837628781212958
117.22900000000001,0.006013079958868997,0.006013079958868997
117.23,0.0068385317883716806,0.0068385317883716806
117.23100000000001,0.007207082128964658,0.007207082128964658
117.23200000000001,0.007021327070743093,0.007021327070743093
117.233,0.006197898026971734,0.006197898026971734
117.23400000000001,0.004683207815485067,0.004683207815485067
117.23500000000001,0.002480036386402829,0.002480036386402829
117.236,0.0003220782092886963,-0.0003220782092886963
117.23700000000001,0.003524454299517181,-0.003524454299517181
117.23800000000001,0.006817361176749787,-0.006817361176749787
117.239,0.009806851623027938,-0.009806851623027938
117.24000000000001,0.012070521589869286,-0.012070521589869286
117.24100000000001,0.013232982371804394,-0.013232982371804394
117.242,0.013044244068231618,-0.013044244068231618
117.24300000000001,0.011441138734972293,-0.011441138734972293
117.24400000000001,0.008574658658709352,-0.008574658658709352
117.245,0.004794083916322937,-0.004794083916322937
117.24600000000001,0.000589754056579008,-0.000589754056579008
117.24700000000001,0.003492939984346741,0.003492939984346741
117.248,0.006948473080709341,0.006948473080709341
117.24900000000001,0.009393363724431938,0.009393363724431938
117.25000000000001,0.01061808411145034,0.01061808411145034
117.251,0.010599799442369549,0.010599799442369549
117.25200000000001,0.0094774946100501,0.0094774946100501
117.253,0.00750027332387802,0.00750027332387802
117.254,0.004965088153416428,0.004965088153416428
117.25500000000001,0.0021606358720681175,0.0021606358720681175
117.256,0.0006700553034223236,-0.0006700553034223236
117.257,0.0033430532936748725,-0.0033430532936748725
117.25800000000001,0.005725531941107412,-0.005725531941107412
117.259,0.007715055714281949,-0.007715055714281949
117.26,0.009217589393730252,-0.009217589393730252
117.26100000000001,0.010134581409308101,-0.010134581409308101
117.262,0.010365195944027858,-0.010365195944027858
117.263,0.009823876448147823,-0.009823876448147823
117.26400000000001,0.008467804297652612,-0.008467804297652612
117.265,0.006325134131461137,-0.006325134131461137
117.266,0.003514129594431628,-0.003514129594431628
117.26700000000001,0.0002455848256401239,-0.0002455848256401239
117.268,0.003194558001341017,0.003194558001341017
117.269,0.006480044080571492,0.006480044080571492
117.27000000000001,0.009289436166316436,0.009289436166316436
117.271,0.011351543440484469,0.011351543440484469
117.272,0.012481062580160338,0.012481062580160338
117.27300000000001,0.012597024568795788,0.012597024568795788
117.274,0.011721346579353984,0.011721346579353984
117.275,0.009960188900826363,0.009960188900826363
117.27600000000001,0.0074753373002341824,0.0074753373002341824
117.277,0.004455085118031419,0.004455085118031419
117.278,0.001093300133141753,0.001093300133141753
117.27900000000001,0.0024183483438550805,-0.0024183483438550805
117.28,0.005885580744072733,-0.005885580744072733
117.281,0.009100303282753106,-0.009100303282753106
117.28200000000001,0.011832854105196997,-0.011832854105196997
117.283,0.013837687909143472,-0.013837687909143472
117.284,0.014878581442581121,-0.014878581442581121
117.28500000000001,0.01477232289917299,-0.01477232289917299
117.286,0.013441629972399416,-0.013441629972399416
117.287,0.010961564472730905,-0.010961564472730905
117.28800000000001,0.007581646728178889,-0.007581646728178889
117.289,0.0037097492682338115,-0.0037097492682338115
117.29,0.00014666065750094356,0.00014666065750094356
117.29100000000001,0.0034736009949045818,0.0034736009949045818
117.292,0.005857453271719739,0.005857453271719739
117.293,0.007077678078535211,0.007077678078535211
117.29400000000001,0.007157875540836163,0.007157875540836163
117.295,0.006356957347765534,0.006356957347765534
117.296,0.0050982800772817975,0.0050982800772817975
117.29700000000001,0.00385302419199188,0.00385302419199188
117.298,0.003009153559960561,0.003009153559960561
117.299,0.0027637716350742527,0.0027637716350742527
117.30000000000001,0.003071773444259649,0.003071773444259649
117.301,0.003668071903960824,0.003668071903960824
117.302,0.004158636306700033,0.004158636306700033
117.30300000000001,0.0041538367232897885,0.0041538367232897885
117.304,0.0034032132480920785,0.0034032132480920785
117.305,0.0018888612164785102,0.0018888612164785102
117.30600000000001,0.0001536069556175167,-0.0001536069556175167
117.307,0.0022953185693306427,-0.0022953185693306427
117.308,0.004038547889237274,-0.004038547889237274
117.30900000000001,0.004967084150662569,-0.004967084150662569
117.31,0.004875107756024258,-0.004875107756024258
117.311,0.003833132022370248,-0.003833132022370248
117.31200000000001,0.0021692618908379416,-0.0021692618908379416
117.313,0.000371168558375918,-0.000371168558375918
117.31400000000001,0.0010601228320930047,0.0010601228320930047
117.31500000000001,0.0017579017324157928,0.0017579017324157928
117.316,0.001591966779838097,0.001591966779838097
117.31700000000001,0.0006938502072011217,0.0006938502072011217
117.31800000000001,0.0006005104359365528,-0.0006005104359365528
117.319,0.0018686697175066794,-0.0018686697175066794
117.32000000000001,0.002738432351266926,-0.002738432351266926
117.32100000000001,0.0029967236192815425,-0.0029967236192815425
117.322,0.0026352078644998195,-0.0026352078644998195
117.32300000000001,0.0018210271903462971,-0.0018210271903462971
117.32400000000001,0.0008085927653656503,-0.0008085927653656503
117.325,0.0001702618194205996,0.0001702618194205996
117.32600000000001,0.0009931617757270557,0.0009931617757270557
117.32700000000001,0.0016761673756800863,0.0016761673756800863
117.328,0.002333198832606117,0.002333198832606117
117.32900000000001,0.0030826980682388113,0.0030826980682388113
117.33000000000001,0.003941203961428093,0.003941203961428093
117.331,0.0047518378191537015,0.0047518378191537015
117.33200000000001,0.005185492288225304,0.005185492288225304
117.33300000000001,0.004826581717625872,0.004826581717625872
117.334,0.003322368917455811,0.003322368917455811
117.33500000000001,0.0005470395863858172,0.0005470395863858172
117.33600000000001,0.0032803622663712157,-0.0032803622663712157
117.337,0.007575623687878381,-0.007575623687878381
117.33800000000001,0.011489074605140343,-0.011489074605140343
117.33900000000001,0.014107922739679429,-0.014107922739679429
117.34,0.014706660697314832,-0.014706660697314832
117.34100000000001,0.012969698359021233,-0.012969698359021233
117.34200000000001,0.009113328093411378,-0.009113328093411378
117.343,0.0038617420856063506,-0.0038617420856063506
117.34400000000001,0.0017239872024989728,0.0017239872024989728
117.34500000000001,0.006518391888243131,0.006518391888243131
117.346,0.009626362607410656,0.009626362607410656
117.34700000000001,0.010612006633298931,0.010612006633298931
117.34800000000001,0.009592773197071011,0.009592773197071011
117.349,0.0071718396852161834,0.0071718396852161834
117.35000000000001,0.004232614929885817,0.004232614929885817
117.35100000000001,0.0016623972964001175,0.0016623972964001175
117.352,9.340321708062481e-05,9.340321708062481e-05
117.35300000000001,0.00025847225791655854,-0.00025847225791655854
117.35400000000001,0.000389044312951132,0.000389044312951132
117.355,0.0015086281332126017,0.0015086281332126017
117.35600000000001,0.002479196511593358,0.002479196511593358
117.35700000000001,0.0028149934002377527,0.0028149934002377527
117.358,0.0023278209657561417,0.0023278209657561417
117.35900000000001,0.0011685184237132705,0.0011685184237132705
117.36000000000001,0.0002617167616839834,-0.0002617167616839834
117.361,0.0014925334102535396,-0.0014925334102535396
117.36200000000001,0.0021875393647599437,-0.0021875393647599437
117.36300000000001,0.0022913926380672685,-0.0022913926380672685
117.364,0.0020638612775773506,-0.0020638612775773506
117.36500000000001,0.001985559678670006,-0.001985559678670006
117.36600000000001,0.0025677318270340877,-0.0025677318270340877
117.367,0.004134994299907341,-0.004134994299907341
117.36800000000001,0.006662112683550381,-0.006662112683550381
117.36900000000001,0.009728930707727809,-0.009728930707727809
117.37,0.012617052154722459,-0.012617052154722459
117.37100000000001,0.014521775053613063,-0.014521775053613063
117.37200000000001,0.014810676695691976,-0.014810676695691976
117.373,0.013241178283376088,-0.013241178283376088
117.37400000000001,0.010060551822064097,-0.010060551822064097
117.37500000000001,0.005949876405011056,-0.005949876405011056
117.376,0.001825680298879563,-0.001825680298879563
117.37700000000001,0.001438405650477178,0.001438405650477178
117.378,0.003279487205785326,0.003279487205785326
117.379,0.0036143980696381707,0.0036143980696381707
117.38000000000001,0.0028535475848765575,0.0028535475848765575
117.381,0.0017545740910821438,0.0017545740910821438
117.382,0.0011638975958687674,0.0011638975958687674
117.38300000000001,0.0017313253238002667,0.0017313253238002667
117.384,0.0036913409414291234,0.0036913409414291234
117.385,0.006781862708155494,0.006781862708155494
117.38600000000001,0.010325008601304237,0.010325008601304237
117.387,0.01344057236425514,0.01344057236425514
117.388,0.015319735524124089,0.015319735524124089
117.38900000000001,0.015468424088879,0.015468424088879
117.39,0.013842347427356131,0.013842347427356131
117.391,0.010834248241869179,0.010834248241869179
117.39200000000001,0.007124616464054099,0.007124616464054099
117.393,0.003452508753846919,0.003452508753846919
117.394,0.00038777004881964473,0.00038777004881964473
117.39500000000001,0.001818082936438162,-0.001818082936438162
117.396,0.003255675799559007,-0.003255675799559007
117.397,0.0042555767466545494,-0.0042555767466545494
117.39800000000001,0.005204237966603188,-0.005204237966603188
117.399,0.006350339471744889,-0.006350339471744889
117.4,0.007675575140479254,-0.007675575140479254
117.40100000000001,0.008879170261372091,-0.008879170261372091
117.402,0.00948323855734262,-0.00948323855734262
117.403,0.009021565125698006,-0.009021565125698006
117.40400000000001,0.007243279074650703,-0.007243279074650703
117.405,0.004256050071982111,-0.004256050071982111
117.406,0.0005532257332896077,-0.0005532257332896077
117.40700000000001,0.003091232495561707,0.003091232495561707
117.408,0.005830759634994054,0.005830759634994054
117.409,0.006992160362366177,0.006992160362366177
117.41000000000001,0.006280650261736689,0.006280650261736689
117.411,0.00387753219255137,0.00387753219255137
117.412,0.0003984565344432711,0.0003984565344432711
117.41300000000001,0.0032752497030982225,-0.0032752497030982225
117.414,0.006239925501261785,-0.006239925501261785
117.415,0.00781325759295254,-0.00781325759295254
117.41600000000001,0.0077062531792092825,-0.0077062531792092825
117.417,0.006076441284477432,-0.006076441284477432
117.418,0.003453829954639485,-0.003453829954639485
117.41900000000001,0.000570170772072914,-0.000570170772072914
117.42,0.0018510816018116236,0.0018510816018116236
117.421,0.0032799327401810898,0.0032799327401810898
117.42200000000001,0.0034898979819119207,0.0034898979819119207
117.423,0.002571122877533404,0.002571122877533404
117.424,0.0008570150785189927,0.0008570150785189927
117.42500000000001,0.001200145572220507,-0.001200145572220507
117.426,0.0031589775518458493,-0.0031589775518458493
117.427,0.004684953172362222,-0.004684953172362222
117.42800000000001,0.005592146938230597,-0.005592146938230597
117.429,0.005833257306895758,-0.005833257306895758
117.43,0.005458353521959652,-0.005458353521959652
117.43100000000001,0.0045696074591101135,-0.0045696074591101135
117.432,0.003293548287576742,-0.003293548287576742
117.433,0.0017778663888847921,-0.0017778663888847921
117.43400000000001,0.0002035871272512404,-0.0002035871272512404
117.435,0.0012070062015851822,0.0012070062015851822
117.436,0.0022062168516241345,0.0022062168516241345
117.43700000000001,0.0025692335289829987,0.0025692335289829987
117.438,0.002166510254161712,0.002166510254161712
117.43900000000001,0.0010359441134429504,0.0010359441134429504
117.44000000000001,0.0005768770749727412,-0.0005768770749727412
117.441,0.002236802190874966,-0.002236802190874966
117.44200000000001,0.0034047001230493976,-0.0034047001230493976
117.44300000000001,0.0035756929709501234,-0.0035756929709501234
117.444,0.00243340153434177,-0.00243340153434177
117.44500000000001,2.7729885888487745e-05,2.7729885888487745e-05
117.44600000000001,0.003455536233282624,0.003455536233282624
117.447,0.007192227086329209,0.007192227086329209
117.44800000000001,0.010419371267827226,0.010419371267827226
117.44900000000001,0.012359816657447299,0.012359816657447299
117.45,0.012480628550538594,0.012480628550538594
117.45100000000001,0.010638146695133344,0.010638146695133344
117.45200000000001,0.007121833993475715,0.007121833993475715
117.453,0.002583119826458769,0.002583119826458769
117.45400000000001,0.0021303809282323984,-0.0021303809282323984
117.45500000000001,0.006186989374253626,-0.006186989374253626
117.456,0.008968393520846692,-0.008968393520846692
117.45700000000001,0.010197643700966848,-0.010197643700966848
117.45800000000001,0.00996591496175989,-0.00996591496175989
117.459,0.008658101262300722,-0.008658101262300722
117.46000000000001,0.006807635353615422,-0.006807635353615422
117.46100000000001,0.004930103339958469,-0.004930103339958469
117.462,0.0033876190802920726,-0.0033876190802920726
117.46300000000001,0.0023216482479116486,-0.0023216482479116486
117.46400000000001,0.0016666177603594451,-0.0016666177603594451
117.465,0.0012292022122225032,-0.0012292022122225032
117.46600000000001,0.0007978691788073045,-0.0007978691788073045
117.46700000000001,0.00024043273646021722,-0.00024043273646021722
117.468,0.0004445389527968595,0.0004445389527968595
117.46900000000001,0.0011372874013831963,0.0011372874013831963
117.47000000000001,0.0016589959302811496,0.0016589959302811496
117.471,0.0018592383125154576,0.0018592383125154576
117.47200000000001,0.0016933587176760601,0.0016933587176760601
117.47300000000001,0.0012592881254164226,0.0012592881254164226
117.474,0.000778899718939381,0.000778899718939381
117.47500000000001,0.0005293959516956941,0.0005293959516956941
117.47600000000001,0.0007481100733228411,0.0007481100733228411
117.477,0.0015434057667799285,0.0015434057667799285
117.47800000000001,0.0028422182011438417,0.0028422182011438417
117.47900000000001,0.004392391705104716,0.004392391705104716
117.48,0.005819942158765603,0.005819942158765603
117.48100000000001,0.006723961650881335,0.006723961650881335
117.48200000000001,0.00678076549273117,0.00678076549273117
117.483,0.005827272443083202,0.005827272443083202
117.48400000000001,0.003901353996236059,0.003901353996236059
117.48500000000001,0.0012307799157620328,0.0012307799157620328
117.486,0.0018224983440398893,-0.0018224983440398893
117.48700000000001,0.004844471167592819,-0.004844471167592819
117.48800000000001,0.007454544903006422,-0.007454544903006422
117.489,0.009373760734458938,-0.009373760734458938
117.49000000000001,0.010462954749619077,-0.010462954749619077
117.49100000000001,0.010727852974883762,-0.010727852974883762
117.492,0.010296463212445905,-0.010296463212445905
117.49300000000001,0.009378811712599619,-0.009378811712599619
117.49400000000001,0.008219632061341168,-0.008219632061341168
117.495,0.007052257416116538,-0.007052257416116538
117.49600000000001,0.006058762773493593,-0.006058762773493593
117.49700000000001,0.005339212736774955,-0.005339212736774955
117.498,0.004892491391509734,-0.004892491391509734
117.49900000000001,0.004612067295010271,-0.004612067295010271
117.50000000000001,0.0043006384710750035,-0.0043006384710750035
117.501,0.003706245679063992,-0.003706245679063992
117.50200000000001,0.00257830274597711,-0.00257830274597711
117.50300000000001,0.0007356815990458493,-0.0007356815990458493
117.504,0.0018674559336653122,0.0018674559336653122
117.50500000000001,0.00509619509805977,0.00509619509805977
117.506,0.008626667581843814,0.008626667581843814
117.507,0.011984848144532335,0.011984848144532335
117.50800000000001,0.014630196928640517,0.014630196928640517
117.509,0.016068569541833017,0.016068569541833017
117.51,0.01596809602042746,0.01596809602042746
117.51100000000001,0.01424760045908613,0.01424760045908613
117.512,0.011111704886119386,0.011111704886119386
117.513,0.007019467834312582,0.007019467834312582
117.51400000000001,0.002590984866403712,0.002590984866403712
117.515,0.0015262325945186888,-0.0015262325945186888
117.516,0.004797370088287893,-0.004797370088287893
117.51700000000001,0.006910558801642155,-0.006910558801642155
117.518,0.007828631164159546,-0.007828631164159546
117.519,0.007769746673626789,-0.007769746673626789
117.52000000000001,0.007123880109578526,-0.007123880109578526
117.521,0.006329687463801031,-0.006329687463801031
117.522,0.005746604556592428,-0.005746604556592428
117.52300000000001,0.005557323924870141,-0.005557323924870141
117.524,0.005726209136391565,-0.005726209136391565
117.525,0.006022809873862378,-0.006022809873862378
117.52600000000001,0.0061013691451307405,-0.0061013691451307405
117.527,0.005612308605932166,-0.005612308605932166
117.528,0.004314124243144765,-0.004314124243144765
117.52900000000001,0.0021555600856890634,-0.0021555600856890634
117.53,0.000692664577253634,0.000692664577253634
117.531,0.003863079584437304,0.003863079584437304
117.53200000000001,0.006865318957847533,0.006865318957847533
117.533,0.00918880542526985,0.00918880542526985
117.534,0.010408950278666547,0.010408950278666547
117.53500000000001,0.010272739262690133,0.010272739262690133
117.536,0.008746355299527326,0.008746355299527326
117.537,0.006017498174514329,0.006017498174514329
117.53800000000001,0.0024554990850053624,0.0024554990850053624
117.539,0.0014592438609353335,-0.0014592438609353335
117.54,0.005220101994904511,-0.005220101994904511
117.54100000000001,0.008376041044503957,-0.008376041044503957
117.542,0.010595801766996643,-0.010595801766996643
117.543,0.011704897637246562,-0.011704897637246562
117.54400000000001,0.011692111140078471,-0.011692111140078471
117.545,0.01068825023229097,-0.01068825023229097
117.546,0.008924820046101001,-0.008924820046101001
117.54700000000001,0.006683220425346489,-0.006683220425346489
117.548,0.004245681990171574,-0.004245681990171574
117.549,0.0018573722444097658,-0.0018573722444097658
117.55000000000001,0.0002946519818410018,0.0002946519818410018
117.551,0.0020848429478103046,0.0020848429478103046
117.552,0.003438901428127531,0.003438901428127531
117.55300000000001,0.004317266076722308,0.004317266076722308
117.554,0.004700777356197216,0.004700777356197216
117.555,0.004585155132767859,0.004585155132767859
117.55600000000001,0.003986802676631524,0.003986802676631524
117.557,0.0029572670419636435,0.0029572670419636435
117.558,0.0015992162548867236,0.0015992162548867236
117.55900000000001,7.472449790394257e-05,7.472449790394257e-05
117.56,0.0014020229737508197,-0.0014020229737508197
117.561,0.0025909249141445015,-0.0025909249141445015
117.56200000000001,0.0032678990776644702,-0.0032678990776644702
117.563,0.0032731640792910918,-0.0032731640792910918
117.56400000000001,0.0025527538287785398,-0.0025527538287785398
117.56500000000001,0.0011804939803202797,-0.0011804939803202797
117.566,0.0006477010167289116,0.0006477010167289116
117.56700000000001,0.002647723613150568,0.002647723613150568
117.56800000000001,0.004501669260469908,0.004501669260469908
117.569,0.005918998447148583,0.005918998447148583
117.57000000000001,0.006688934642424658,0.006688934642424658
117.57100000000001,0.006711662620151927,0.006711662620151927
117.572,0.006002800998156964,0.006002800998156964
117.57300000000001,0.004673905838927293,0.004673905838927293
117.57400000000001,0.00289848953171334,0.00289848953171334
117.575,0.0008758825940481941,0.0008758825940481941
117.57600000000001,0.0011966124028324478,-0.0011966124028324478
117.57700000000001,0.0031384354465515125,-0.0031384354465515125
117.578,0.004789402033167807,-0.004789402033167807
117.57900000000001,0.006009513617050358,-0.006009513617050358
117.58000000000001,0.006683458280043276,-0.006683458280043276
117.581,0.006734980483632436,-0.006734980483632436
117.58200000000001,0.006149726709434888,-0.006149726709434888
117.58300000000001,0.004998235768197894,-0.004998235768197894
117.584,0.003446720190908016,-0.003446720190908016
117.58500000000001,0.0017445089545057527,-0.0017445089545057527
117.58600000000001,0.0001837981410668751,-0.0001837981410668751
117.587,0.0009623634012848448,0.0009623634012848448
117.58800000000001,0.0015079413304662091,0.0015079413304662091
117.58900000000001,0.001406214377965992,0.001406214377965992
117.59,0.0007669540245397611,0.0007669540245397611
117.59100000000001,0.00017148672346258697,-0.00017148672346258697
117.59200000000001,0.0011105275912042863,-0.0011105275912042863
117.593,0.0017807819015553813,-0.0017807819015553813
117.59400000000001,0.0020238578074415307,-0.0020238578074415307
117.59500000000001,0.0018380249570419463,-0.0018380249570419463
117.596,0.0013697937817167619,-0.0013697937817167619
117.59700000000001,0.0008515232113751292,-0.0008515232113751292
117.59800000000001,0.0005048031551861591,-0.0005048031551861591
117.599,0.00044348836167996215,-0.00044348836167996215
117.60000000000001,0.0006132292655411532,-0.0006132292655411532
117.60100000000001,0.0007940943265780176,-0.0007940943265780176
117.602,0.0006719955515061553,-0.0006719955515061553
117.60300000000001,4.022891128740397e-05,4.022891128740397e-05
117.60400000000001,0.0014714321964057566,0.0014714321964057566
117.605,0.0034977735654019826,0.0034977735654019826
117.60600000000001,0.005724475039054623,0.005724475039054623
117.60700000000001,0.0075602177177121616,0.0075602177177121616
117.608,0.008370344941559617,0.008370344941559617
117.60900000000001,0.007666967522190731,0.007666967522190731
117.61000000000001,0.005278032351250845,0.005278032351250845
117.611,0.0014396224167569326,0.0014396224167569326
117.61200000000001,0.0032234975099899245,-0.0032234975099899245
117.61300000000001,0.007830769760861044,-0.007830769760861044
117.614,0.011458454522942332,-0.011458454522942332
117.61500000000001,0.013372326790050742,-0.013372326790050742
117.61600000000001,0.013213122457930018,-0.013213122457930018
117.617,0.011080823675197872,-0.011080823675197872
117.61800000000001,0.007494382578569359,-0.007494382578569359
117.61900000000001,0.003241321432664381,-0.003241321432664381
117.62,0.0008354224983064499,0.0008354224983064499
117.62100000000001,0.004048636068172615,0.004048636068172615
117.62200000000001,0.006014721827869505,0.006014721827869505
117.623,0.006699988737218898,0.006699988737218898
117.62400000000001,0.006361172156128355,0.006361172156128355
117.62500000000001,0.005409838785874877,0.005409838785874877
117.626,0.004252539650578393,0.004252539650578393
117.62700000000001,0.0031621637938798984,0.0031621637938798984
117.62800000000001,0.0022205104287319733,0.0022205104287319733
117.629,0.001343823094197191,0.001343823094197191
117.63000000000001,0.0003723780241230923,0.0003723780241230923
117.631,0.0008168583845792744,-0.0008168583845792744
117.632,0.002221449269442757,-0.002221449269442757
117.63300000000001,0.003683857554488114,-0.003683857554488114
117.634,0.0049318480330606046,-0.0049318480330606046
117.635,0.005672117891938651,-0.005672117891938651
117.63600000000001,0.005699784634751728,-0.005699784634751728
117.637,0.004980464932564639,-0.004980464932564639
117.638,0.0036724142851913195,-0.0036724142851913195
117.63900000000001,0.0020792796552385876,-0.0020792796552385876
117.64,0.0005505793377911502,-0.0005505793377911502
117.641,0.0006330291219576894,0.0006330291219576894
117.64200000000001,0.0013468382995348606,0.0013468382995348606
117.643,0.0016492046807110045,0.0016492046807110045
117.644,0.0017391820067630033,0.0017391820067630033
117.64500000000001,0.001861637663662109,0.001861637663662109
117.646,0.0021968668813431365,0.0021968668813431365
117.647,0.0027776995219995163,0.0027776995219995163
117.64800000000001,0.0034666552930457633,0.0034666552930457633
117.649,0.004002721473095278,0.004002721473095278
117.65,0.004100477355245591,0.004100477355245591
117.65100000000001,0.003563796215211788,0.003563796215211788
117.652,0.0023701295485919825,0.0023701295485919825
117.653,0.0006919879255803763,0.0006919879255803763
117.65400000000001,0.0011541387701796966,-0.0011541387701796966
117.655,0.0028133732842790214,-0.0028133732842790214
117.656,0.004013108197638389,-0.004013108197638389
117.65700000000001,0.004652625188764215,-0.004652625188764215
117.658,0.004826537094964449,-0.004826537094964449
117.659,0.004771718314488015,-0.004771718314488015
117.66000000000001,0.00475689144015305,-0.00475689144015305
117.661,0.004957075954212627,-0.004957075954212627
117.662,0.005362674415575764,-0.005362674415575764
117.66300000000001,0.005761681300990346,-0.005761681300990346
117.664,0.005806991311644333,-0.005806991311644333
117.665,0.0051485462043943525,-0.0051485462043943525
117.66600000000001,0.003584024200181932,-0.003584024200181932
117.667,0.0011719245553928341,-0.0011719245553928341
117.668,0.0017385066979548633,0.0017385066979548633
117.66900000000001,0.004578210374670276,0.004578210374670276
117.67,0.006712329314722548,0.006712329314722548
117.671,0.007629108612629569,0.007629108612629569
117.67200000000001,0.007101267689342025,0.007101267689342025
117.673,0.005264909588616346,0.005264909588616346
117.674,0.002587950570650675,0.002587950570650675
117.67500000000001,0.00026288714629947227,-0.00026288714629947227
117.676,0.002613318348488906,-0.002613318348488906
117.677,0.003968606215464708,-0.003968606215464708
117.67800000000001,0.004136746528954517,-0.004136746528954517
117.679,0.003251171398168235,-0.003251171398168235
117.68,0.0016918312161383051,-0.0016918312161383051
117.68100000000001,6.173449663015836e-05,6.173449663015836e-05
117.682,0.0015900926868049163,0.0015900926868049163
117.683,0.002650136303081829,0.002650136303081829
117.68400000000001,0.0032110598189358146,0.0032110598189358146
117.685,0.0034055316954629544,0.0034055316954629544
117.686,0.0034240651065351323,0.0034240651065351323
117.68700000000001,0.0034011407799783844,0.0034011407799783844
117.688,0.0033425113015420967,0.0033425113015420967
117.68900000000001,0.0031242451191378024,0.0031242451191378024
117.69000000000001,0.0025630223088483127,0.0025630223088483127
117.691,0.0015263166152318125,0.0015263166152318125
117.69200000000001,3.2781834621655815e-05,3.2781834621655815e-05
117.69300000000001,0.0017049594129713273,-0.0017049594129713273
117.694,0.0033210299568860804,-0.0033210299568860804
117.69500000000001,0.004412613736400269,-0.004412613736400269
117.69600000000001,0.004691345706944447,-0.004691345706944447
117.697,0.004110944921682416,-0.004110944921682416
117.69800000000001,0.0029163628058510387,-0.0029163628058510387
117.69900000000001,0.001585935192528441,-0.001585935192528441
117.7,0.0006774556143347454,-0.0006774556143347454
117.70100000000001,0.000627270238818779,-0.000627270238818779
117.70200000000001,0.0015736945439896051,-0.0015736945439896051
117.703,0.003272838432229775,-0.003272838432229775
117.70400000000001,0.005145976638703646,-0.005145976638703646
117.70500000000001,0.006452223451820972,-0.006452223451820972
117.706,0.006534347842006298,-0.006534347842006298
117.70700000000001,0.005055933124882745,-0.005055933124882745
117.70800000000001,0.0021463511254133615,-0.0021463511254133615
117.709,0.0016019100175613337,0.0016019100175613337
117.71000000000001,0.005290005478882657,0.005290005478882657
117.71100000000001,0.007976810181462691,0.007976810181462691
117.712,0.00896497219865081,0.00896497219865081
117.71300000000001,0.008013827950484432,0.008013827950484432
117.71400000000001,0.005407306819924563,0.005407306819924563
117.715,0.001853731139990892,0.001853731139990892
117.71600000000001,0.0017480418532461013,-0.0017480418532461013
117.71700000000001,0.004595619257661923,-0.004595619257661923
117.718,0.006224583787512431,-0.006224583787512431
117.71900000000001,0.006622480775580683,-0.006622480775580683
117.72000000000001,0.00617895838990439,-0.00617895838990439
117.721,0.005494472220843018,-0.005494472220843018
117.72200000000001,0.005120741313079452,-0.005120741313079452
117.72300000000001,0.0053305980900835844,-0.0053305980900835844
117.724,0.0060039239706950395,-0.0060039239706950395
117.72500000000001,0.006673609325703865,-0.006673609325703865
117.72600000000001,0.006716090867018019,-0.006716090867018019
117.727,0.005616419720556632,-0.005616419720556632
117.72800000000001,0.003208010983193289,-0.003208010983193289
117.72900000000001,0.0002064336700278549,0.0002064336700278549
117.73,0.0039054131885838377,0.0039054131885838377
117.73100000000001,0.006961705797727847,0.006961705797727847
117.73200000000001,0.008549123102835525,0.008549123102835525
117.733,0.008236967601262397,0.008236967601262397
117.73400000000001,0.006166097584824353,0.006166097584824353
117.73500000000001,0.0030382543791386113,0.0030382543791386113
117.736,8.660649452387449e-05,-8.660649452387449e-05
117.73700000000001,0.0021235656659017695,-0.0021235656659017695
117.73800000000001,0.0023182570913930175,-0.0023182570913930175
117.739,0.0005059318006113223,-0.0005059318006113223
117.74000000000001,0.00281444236515254,0.00281444236515254
117.74100000000001,0.00661875611090513,0.00661875611090513
117.742,0.009666059855365595,0.009666059855365595
117.74300000000001,0.010877325983218767,0.010877325983218767
117.74400000000001,0.00966266186160477,0.00966266186160477
117.745,0.006093334818518616,0.006093334818518616
117.74600000000001,0.0008677575869601909,0.0008677575869601909
117.74700000000001,0.004910715219130864,-0.004910715219130864
117.748,0.010065436482895469,-0.010065436482895469
117.74900000000001,0.013676333814333369,-0.013676333814333369
117.75000000000001,0.0153030096754414,-0.0153030096754414
117.751,0.015037671092822233,-0.015037671092822233
117.75200000000001,0.013385771044554498,-0.013385771044554498
117.75300000000001,0.011031130548657184,-0.011031130548657184
117.754,0.008578204750270072,-0.008578204750270072
117.75500000000001,0.006365264142923721,-0.006365264142923721
117.756,0.004409597779727956,-0.004409597779727956
117.757,0.0024925632121467946,-0.0024925632121467946
117.75800000000001,0.0003386679124526781,-0.0003386679124526781
117.759,0.0021912838672779786,0.0021912838672779786
117.76,0.004975416544129696,0.004975416544129696
117.76100000000001,0.007627419287194177,0.007627419287194177
117.762,0.009618056702454884,0.009618056702454884
117.763,0.010474379883783308,0.010474379883783308
117.76400000000001,0.009977127136884647,0.009977127136884647
117.765,0.008275185580492856,0.008275185580492856
117.766,0.005865948593575403,0.005865948593575403
117.76700000000001,0.00344093349133792,0.00344093349133792
117.768,0.0016482811151080695,0.0016482811151080695
117.769,0.0008580326844963452,0.0008580326844963452
117.77000000000001,0.001019074732557433,0.001019074732557433
117.771,0.0016664491501296756,0.0016664491501296756
117.772,0.0020846396949121054,0.0020846396949121054
117.77300000000001,0.0015753485638054995,0.0015753485638054995
117.774,0.00026214179755116934,-0.00026214179755116934
117.775,0.003338633368039969,-0.003338633368039969
117.77600000000001,0.00704441309117964,-0.00704441309117964
117.777,0.010400330456913031,-0.010400330456913031
117.778,0.012348238446166414,-0.012348238446166414
117.77900000000001,0.01208931627760281,-0.01208931627760281
117.78,0.009359900798146317,-0.009359900798146317
117.781,0.004552619048564102,-0.004552619048564102
117.78200000000001,0.0013601385422379732,0.0013601385422379732
117.783,0.0070796440236184765,0.0070796440236184765
117.784,0.011333631169249255,0.011333631169249255
117.78500000000001,0.013219971992704221,0.013219971992704221
117.786,0.01243740651139433,0.01243740651139433
117.787,0.009337492774069624,0.009337492774069624
117.78800000000001,0.004789840456753941,0.004789840456753941
117.789,8.914815669863793e-05,-8.914815669863793e-05
117.79,0.004254395361909007,-0.004254395361909007
117.79100000000001,0.006998806495871885,-0.006998806495871885
117.792,0.00809338358039382,-0.00809338358039382
117.793,0.007771342023346616,-0.007771342023346616
117.79400000000001,0.006578374128655986,-0.006578374128655986
117.795,0.005151350945721981,-0.005151350945721981
117.796,0.004004058116211266,-0.004004058116211266
117.79700000000001,0.0033875566222316576,-0.0033875566222316576
117.798,0.003260498960109996,-0.003260498960109996
117.799,0.0033640267102458326,-0.0033640267102458326
117.80000000000001,0.003361356544561726,-0.003361356544561726
117.801,0.0029850391308399084,-0.0029850391308399084
117.802,0.002139287931867075,-0.002139287931867075
117.80300000000001,0.0009269231251072433,-0.0009269231251072433
117.804,0.0003993357630714512,0.0003993357630714512
117.805,0.0015348516806555632,0.0015348516806555632
117.80600000000001,0.002229959583954634,0.002229959583954634
117.807,0.0023675980101709342,0.0023675980101709342
117.808,0.0019891105750885776,0.0019891105750885776
117.80900000000001,0.001267171422773061,0.001267171422773061
117.81,0.0004434233975565977,0.0004434233975565977
117.811,0.0002424923043690061,-0.0002424923043690061
117.81200000000001,0.0006083910148384008,-0.0006083910148384008
117.813,0.0005567303115912714,-0.0005567303115912714
117.81400000000001,7.484429139595603e-05,-7.484429139595603e-05
117.81500000000001,0.0007802132725222236,0.0007802132725222236
117.816,0.0018983429418076901,0.0018983429418076901
117.81700000000001,0.0031263673728666474,0.0031263673728666474
117.81800000000001,0.004272870518821863,0.004272870518821863
117.819,0.005117693469187885,0.005117693469187885
117.82000000000001,0.005437567049830151,0.005437567049830151
117.82100000000001,0.005052833153972872,0.005052833153972872
117.822,0.0038879133367122135,0.0038879133367122135
117.82300000000001,0.0020258356708462615,0.0020258356708462615
117.82400000000001,0.0002687527802861669,-0.0002687527802861669
117.825,0.002578726357057211,-0.002578726357057211
117.82600000000001,0.004420699365004366,-0.004420699365004366
117.82700000000001,0.005371668064965237,-0.005371668064965237
117.828,0.005200174385718711,-0.005200174385718711
117.82900000000001,0.003957538594484614,-0.003957538594484614
117.83000000000001,0.0019919073775088794,-0.0019919073775088794
117.831,0.00012985597177110798,0.00012985597177110798
117.83200000000001,0.001776747143186012,0.001776747143186012
117.83300000000001,0.0024405639034337746,0.0024405639034337746
117.834,0.0018957686140787851,0.0018957686140787851
117.83500000000001,0.00027734287320726434,0.00027734287320726434
117.83600000000001,0.0019539589185170528,-0.0019539589185170528
117.837,0.004152786379305649,-0.004152786379305649
117.83800000000001,0.005693856939873049,-0.005693856939873049
117.83900000000001,0.00617353176974225,-0.00617353176974225
117.84,0.005540315363815641,-0.005540315363815641
117.84100000000001,0.004108576934237897,-0.004108576934237897
117.84200000000001,0.0024487958496250684,-0.0024487958496250684
117.843,0.0011901118870821662,-0.0011901118870821662
117.84400000000001,0.0008019875312824654,-0.0008019875312824654
117.84500000000001,0.0014300952413694543,-0.0014300952413694543
117.846,0.00284368360730167,-0.00284368360730167
117.84700000000001,0.004513468142722247,-0.004513468142722247
117.84800000000001,0.005793720459550386,-0.005793720459550386
117.849,0.006145650937822843,-0.006145650937822843
117.85000000000001,0.005324438756071806,-0.005324438756071806
117.85100000000001,0.0034647672786925873,-0.0034647672786925873
117.852,0.0010352148890058115,-0.0010352148890058115
117.85300000000001,0.0013221546254269555,0.0013221546254269555
117.85400000000001,0.0030104560367915016,0.0030104560367915016
117.855,0.0036782180278285967,0.0036782180278285967
117.85600000000001,0.003331554544145826,0.003331554544145826
117.85700000000001,0.0023202638376788945,0.0023202638376788945
117.858,0.0012046607215092924,0.0012046607215092924
117.85900000000001,0.0005518817227746977,0.0005518817227746977
117.86000000000001,0.0007345198818074586,0.0007345198818074586
117.861,0.0018023199708068313,0.0018023199708068313
117.86200000000001,0.0034703859144531446,0.0034703859144531446
117.86300000000001,0.005225062799697147,0.005225062799697147
117.864,0.0065067990666078275,0.0065067990666078275
117.86500000000001,0.006902955032011584,0.006902955032011584
117.86600000000001,0.006281941076789396,0.006281941076789396
117.867,0.004823329550302718,0.004823329550302718
117.86800000000001,0.00293769800530631,0.00293769800530631
117.86900000000001,0.0011102681448800472,0.0011102681448800472
117.87,0.00027095707739271794,-0.00027095707739271794
117.87100000000001,0.0010384566533179773,-0.0010384566533179773
117.87200000000001,0.0012763832317070397,-0.0012763832317070397
117.873,0.0012526787898391083,-0.0012526787898391083
117.87400000000001,0.0012833863517175122,-0.0012833863517175122
117.87500000000001,0.0015859565330997552,-0.0015859565330997552
117.876,0.0021815129868045587,-0.0021815129868045587
117.87700000000001,0.002885786193109161,-0.002885786193109161
117.87800000000001,0.0033926283844479305,-0.0033926283844479305
117.879,0.0034165158825455876,-0.0034165158825455876
117.88000000000001,0.0028357814020713644,-0.0028357814020713644
117.881,0.0017762442630816226,-0.0017762442630816226
117.882,0.0005966158429642697,-0.0005966158429642697
117.88300000000001,0.0002253521450872689,0.0002253521450872689
117.884,0.0002676591455565035,0.0002676591455565035
117.885,0.0006645549098038485,-0.0006645549098038485
117.88600000000001,0.002437698671113011,-0.002437698671113011
117.887,0.004602163040497399,-0.004602163040497399
117.888,0.00652165792969823,-0.00652165792969823
117.88900000000001,0.0075792096119876185,-0.0075792096119876185
117.89,0.007389344528532647,-0.007389344528532647
117.891,0.005940519694631086,-0.005940519694631086
117.89200000000001,0.0036139226071160413,-0.0036139226071160413
117.893,0.00106709832355385,-0.00106709832355385
117.894,0.0009813379200858644,0.0009813379200858644
117.89500000000001,0.0019934741342256283,0.0019934741342256283
117.896,0.0017966220540776145,0.0017966220540776145
117.897,0.0006449291252453196,0.0006449291252453196
117.89800000000001,0.0008659920978693484,-0.0008659920978693484
117.899,0.0020047383866869683,-0.0020047383866869683
117.9,0.002161215424957258,-0.002161215424957258
117.90100000000001,0.0010674908386840696,-0.0010674908386840696
117.902,0.0010939349597949863,0.0010939349597949863
117.903,0.003733098600798019,0.003733098600798019
117.90400000000001,0.006034380912508384,0.006034380912508384
117.905,0.007217859800263087,0.007217859800263087
117.906,0.0067942128907089875,0.0067942128907089875
117.90700000000001,0.004729570511197341,0.004729570511197341
117.908,0.0014670463366775904,0.0014670463366775904
117.909,0.0022007574432463713,-0.0022007574432463713
117.91000000000001,0.005365494624814796,-0.005365494624814796
117.911,0.007267139394776389,-0.007267139394776389
117.912,0.00750518553849177,-0.00750518553849177
117.91300000000001,0.006133912937198656,-0.006133912937198656
117.914,0.003618342279877704,-0.003618342279877704
117.915,0.0006727165377525706,-0.0006727165377525706
117.91600000000001,0.0019611162655840254,0.0019611162655840254
117.917,0.0037233216215479888,0.0037233216215479888
117.918,0.004371162980771897,0.004371162980771897
117.91900000000001,0.004005939471534091,0.004005939471534091
117.92,0.0029953530246314072,0.0029953530246314072
117.921,0.0018273084929136235,0.0018273084929136235
117.92200000000001,0.0009484955869418513,0.0009484955869418513
117.923,0.0006391144616713872,0.0006391144616713872
117.924,0.0009565795362698953,0.0009565795362698953
117.92500000000001,0.0017541918198071447,0.0017541918198071447
117.926,0.002755834612781055,0.002755834612781055
117.927,0.0036530862276958937,0.0036530862276958937
117.92800000000001,0.004190417497907902,0.004190417497907902
117.929,0.0042154648726913215,0.0042154648726913215
117.93,0.003688626739903661,0.003688626739903661
117.93100000000001,0.0026618886184474025,0.0026618886184474025
117.932,0.0012449941161664134,0.0012449941161664134
117.933,0.0004241650630738754,-0.0004241650630738754
117.93400000000001,0.002196516670359749,-0.002196516670359749
117.935,0.003918234679347519,-0.003918234679347519
117.936,0.00543580559338349,-0.00543580559338349
117.93700000000001,0.006609145192605279,-0.006609145192605279
117.938,0.007335740189337666,-0.007335740189337666
117.93900000000001,0.007579268963384826,-0.007579268963384826
117.94000000000001,0.007388821001058086,-0.007388821001058086
117.941,0.006894150294926494,-0.006894150294926494
117.94200000000001,0.006269843986916212,-0.006269843986916212
117.94300000000001,0.005674457565245489,-0.005674457565245489
117.944,0.00518407841946753,-0.00518407841946753
117.94500000000001,0.004747107476934816,-0.004747107476934816
117.94600000000001,0.004183897752998908,-0.004183897752998908
117.947,0.003240926631994467,-0.003240926631994467
117.94800000000001,0.0016887001225435825,-0.0016887001225435825
117.94900000000001,0.000566832868617604,0.000566832868617604
117.95,0.003399905549615454,0.003399905549615454
117.95100000000001,0.006444122166135474,0.006444122166135474
117.95200000000001,0.00915323973192607,0.00915323973192607
117.953,0.010934117990405803,0.010934117990405803
117.95400000000001,0.011315456337461557,0.011315456337461557
117.95500000000001,0.010099532385752596,0.010099532385752596
117.956,0.007445179156465432,0.007445179156465432
117.95700000000001,0.0038495852050413667,0.0038495852050413667
117.95800000000001,2.8412427306059258e-05,2.8412427306059258e-05
117.959,0.003272443033477946,-0.003272443033477946
117.96000000000001,0.005476215260809559,-0.005476215260809559
117.96100000000001,0.006323318088061766,-0.006323318088061766
117.962,0.00592153165836574,-0.00592153165836574
117.96300000000001,0.004683741302883276,-0.004683741302883276
117.96400000000001,0.003175836743279258,-0.003175836743279258
117.965,0.0019269269701795288,-0.0019269269701795288
117.96600000000001,0.001265610119276705,-0.001265610119276705
117.96700000000001,0.0012356294634795918,-0.0012356294634795918
117.968,0.0016156013608502958,-0.0016156013608502958
117.96900000000001,0.0020308414646178995,-0.0020308414646178995
117.97000000000001,0.0021136621274606892,-0.0021136621274606892
117.971,0.0016529894506343216,-0.0016529894506343216
117.97200000000001,0.0006799733819685635,-0.0006799733819685635
117.97300000000001,0.0005390871644693518,0.0005390871644693518
117.974,0.0015969893361442796,0.0015969893361442796
117.97500000000001,0.0020903632942160457,0.0020903632942160457
117.97600000000001,0.0017613155960288008,0.0017613155960288008
117.977,0.0005855189833078442,0.0005855189833078442
117.97800000000001,0.0012222732509814312,-0.0012222732509814312
117.97900000000001,0.0032830179994898134,-0.0032830179994898134
117.98,0.005176998034367264,-0.005176998034367264
117.98100000000001,0.006568541068660727,-0.006568541068660727
117.98200000000001,0.007286597768023072,-0.007286597768023072
117.983,0.007335638086639673,-0.007335638086639673
117.98400000000001,0.0068401812577397764,-0.0068401812577397764
117.98500000000001,0.005952791029434216,-0.005952791029434216
117.986,0.004769094290141206,-0.004769094290141206
117.98700000000001,0.0032889592941786005,-0.0032889592941786005
117.98800000000001,0.0014422196586205609,-0.0014422196586205609
117.989,0.0008314303123763006,0.0008314303123763006
117.99000000000001,0.003483905649868784,0.003483905649868784
117.99100000000001,0.0062882816971821555,0.0062882816971821555
117.992,0.00883527542263752,0.00883527542263752
117.99300000000001,0.010610954106105963,0.010610954106105963
117.99400000000001,0.011137769546674524,0.011137769546674524
117.995,0.010133550129850951,0.010133550129850951
117.99600000000001,0.007631365619894205,0.007631365619894205
117.99700000000001,0.004012569479584727,0.004012569479584727
117.998,6.670647037374841e-05,-6.670647037374841e-05
117.99900000000001,0.0038384696930387394,-0.0038384696930387394
118.00000000000001,0.006625697102238305,-0.006625697102238305
118.001,0.008019844091450519,-0.008019844091450519
118.00200000000001,0.007974984660538666,-0.007974984660538666
118.00300000000001,0.006788587813904688,-0.006788587813904688
118.004,0.004978040428162752,-0.004978040428162752
118.00500000000001,0.0030981038352348436,-0.0030981038352348436
118.006,0.0015643520463430585,-0.0015643520463430585
118.007,0.0005439026293970118,-0.0005439026293970118
118.00800000000001,5.1324916161274346e-05,5.1324916161274346e-05
118.009,0.0004724489633525217,0.0004724489633525217
118.01,0.0009834243263978537,0.0009834243263978537
118.01100000000001,0.0017153098067332203,0.0017153098067332203
118.012,0.002585290221583031,0.002585290221583031
118.013,0.003315209049557,0.003315209049557
118.01400000000001,0.0035448973460773243,0.0035448973460773243
118.015,0.002996982817526439,0.002996982817526439
118.016,0.0016269449459970946,0.0016269449459970946
118.01700000000001,0.000305781405174247,-0.000305781405174247
118.018,0.0022827347276634484,-0.0022827347276634484
118.019,0.0036815734968351325,-0.0036815734968351325
118.02000000000001,0.003992477811763765,-0.003992477811763765
118.021,0.0030196145697841473,-0.0030196145697841473
118.022,0.0009910411190241963,-0.0009910411190241963
118.02300000000001,0.0014717835990583803,0.0014717835990583803
118.024,0.003526497553624682,0.003526497553624682
118.025,0.004375475959859731,0.004375475959859731
118.02600000000001,0.0035398671073179396,0.0035398671073179396
118.027,0.001049265420446709,0.001049265420446709
118.028,0.0025220543932265482,-0.0025220543932265482
118.02900000000001,0.006193193576600798,-0.006193193576600798
118.03,0.00885288322726155,-0.00885288322726155
118.031,0.009591297155457326,-0.009591297155457326
118.03200000000001,0.007984478652645299,-0.007984478652645299
118.033,0.00424147074039763,-0.00424147074039763
118.034,0.0008334730109537543,0.0008334730109537543
118.03500000000001,0.006053548605907949,0.006053548605907949
118.036,0.010172727268926438,0.010172727268926438
118.037,0.012222407961193726,0.012222407961193726
118.03800000000001,0.011762219473601319,0.011762219473601319
118.039,0.008975005292485922,0.008975005292485922
118.04,0.004585886097323969,0.004585886097323969
118.04100000000001,0.0003609543555654661,-0.0003609543555654661
118.042,0.004793785280047917,-0.004793785280047917
118.043,0.007884344461466991,-0.007884344461466991
118.04400000000001,0.009223304845830485,-0.009223304845830485
118.045,0.008861017457995907,-0.008861017457995907
118.046,0.007219071070413949,-0.007219071070413949
118.04700000000001,0.0049165632530154746,-0.0049165632530154746
118.048,0.0025751061410434696,-0.0025751061410434696
118.049,0.0006637476385066355,-0.0006637476385066355
118.05000000000001,0.0005773819200117166,0.0005773819200117166
118.051,0.001128005405239074,0.001128005405239074
118.052,0.0011162076475095708,0.0011162076475095708
118.05300000000001,0.0007246658811241102,0.0007246658811241102
118.054,0.00011479116677552027,0.00011479116677552027
118.055,0.0006060269595670651,-0.0006060269595670651
118.05600000000001,0.0013715008421758006,-0.0013715008421758006
118.057,0.0021159599480303996,-0.0021159599480303996
118.058,0.0027351873306115755,-0.0027351873306115755
118.05900000000001,0.0030748447951031484,-0.0030748447951031484
118.06,0.002958728809294686,-0.002958728809294686
118.061,0.0022500049133174814,-0.0022500049133174814
118.06200000000001,0.0009223874918437007,-0.0009223874918437007
118.063,0.000888571937489352,0.000888571937489352
118.06400000000001,0.002878803756219971,0.002878803756219971
118.06500000000001,0.004623454545633294,0.004623454545633294
118.066,0.005669918166938605,0.005669918166938605
118.06700000000001,0.005651130218077926,0.005651130218077926
118.06800000000001,0.004386780017655297,0.004386780017655297
118.069,0.0019435533578100231,0.0019435533578100231
118.07000000000001,0.0013620578290837238,-0.0013620578290837238
118.07100000000001,0.005018254459102753,-0.005018254459102753
118.072,0.008414615315023088,-0.008414615315023088
118.07300000000001,0.010956939817248915,-0.010956939817248915
118.07400000000001,0.012175151638601233,-0.012175151638601233
118.075,0.011804659210425193,-0.011804659210425193
118.07600000000001,0.00983030461824276,-0.00983030461824276
118.07700000000001,0.006490344893477542,-0.006490344893477542
118.078,0.0022434169838266,-0.0022434169838266
118.07900000000001,0.002296112819034521,0.002296112819034521
118.08000000000001,0.006448017623107074,0.006448017623107074
118.081,0.009573103827166139,0.009573103827166139
118.08200000000001,0.011184979900489429,0.011184979900489429
118.08300000000001,0.011049050876239698,0.011049050876239698
118.084,0.009246717946620875,0.009246717946620875
118.08500000000001,0.006183152994988932,0.006183152994988932
118.08600000000001,0.002524947123523794,0.002524947123523794
118.087,0.000930445618185662,-0.000930445618185662
118.08800000000001,0.0034315570569580134,-0.0034315570569580134
118.08900000000001,0.0044559859093901465,-0.0044559859093901465
118.09,0.003850450688883557,-0.003850450688883557
118.09100000000001,0.0018835577290222366,-0.0018835577290222366
118.09200000000001,0.0008128039245198278,0.0008128039245198278
118.093,0.0034066278098997065,0.0034066278098997065
118.09400000000001,0.005094040006866722,0.005094040006866722
118.09500000000001,0.005329539590901003,0.005329539590901003
118.096,0.0039894873741675805,0.0039894873741675805
118.09700000000001,0.0014160597775070072,0.0014160597775070072
118.09800000000001,0.0016770069608996658,-0.0016770069608996658
118.099,0.004413245086181766,-0.004413245086181766
118.10000000000001,0.006016158079788328,-0.006016158079788328
118.10100000000001,0.006045819371070801,-0.006045819371070801
118.102,0.0045351104237366805,-0.0045351104237366805
118.10300000000001,0.001981220769910852,-0.001981220769910852
118.10400000000001,0.0008069176267150024,0.0008069176267150024
118.105,0.0029587430644749954,0.0029587430644749954
118.10600000000001,0.0038116053271924732,0.0038116053271924732
118.10700000000001,0.003114883001802526,0.003114883001802526
118.108,0.001104460752510777,0.001104460752510777
118.10900000000001,0.0015752276763452392,-0.0015752276763452392
118.11000000000001,0.004075718508329838,-0.004075718508329838
118.111,0.005609776893213323,-0.005609776893213323
118.11200000000001,0.005693335773351303,-0.005693335773351303
118.11300000000001,0.004289189172214547,-0.004289189172214547
118.114,0.0018105072923894588,-0.0018105072923894588
118.11500000000001,0.0010122788567835201,0.0010122788567835201
118.11600000000001,0.0033549458427945132,0.0033549458427945132
118.117,0.004540904641203135,0.004540904641203135
118.11800000000001,0.0042265195080938974,0.0042265195080938974
118.11900000000001,0.002478373927950262,0.002478373927950262
118.12,0.00027213584717733676,-0.00027213584717733676
118.12100000000001,0.0033722202288539575,-0.0033722202288539575
118.12200000000001,0.006136379036412968,-0.006136379036412968
118.123,0.008019199405422887,-0.008019199405422887
118.12400000000001,0.008723583373687071,-0.008723583373687071
118.12500000000001,0.008222909199137127,-0.008222909199137127
118.126,0.006706739619970444,-0.006706739619970444
118.12700000000001,0.004483408261573984,-0.004483408261573984
118.12800000000001,0.0018814513220070327,-0.0018814513220070327
118.129,0.0008160977830227008,0.0008160977830227008
118.13000000000001,0.0033902503027873113,0.0033902503027873113
118.131,0.005665727613866612,0.005665727613866612
118.132,0.007476186698666208,0.007476186698666208
118.13300000000001,0.008643075651552473,0.008643075651552473
118.134,0.008986681310211218,0.008986681310211218
118.135,0.0083701003764554,0.0083701003764554
118.13600000000001,0.006758813525191713,0.006758813525191713
118.137,0.004268247475769441,0.004268247475769441
118.138,0.0011737520057628456,0.0011737520057628456
118.13900000000001,0.002128869205300307,-0.002128869205300307
118.14,0.005204364723225681,-0.005204364723225681
118.141,0.007675087038537746,-0.007675087038537746
118.14200000000001,0.00930070034053018,-0.00930070034053018
118.143,0.010012586580663759,-0.010012586580663759
118.144,0.009891978916104379,-0.009891978916104379
118.14500000000001,0.00910280781466967,-0.00910280781466967
118.146,0.007808341281032253,-0.007808341281032253
118.147,0.006107394146079332,-0.006107394146079332
118.14800000000001,0.004018013058474262,-0.004018013058474262
118.149,0.0015167564271879063,-0.0015167564271879063
118.15,0.0013824381584896803,0.0013824381584896803
118.15100000000001,0.004544617678484354,0.004544617678484354
118.152,0.007665772441607955,0.007665772441607955
118.153,0.010290018153802554,0.010290018153802554
118.15400000000001,0.01189792981962909,0.01189792981962909
118.155,0.012043897181080123,0.012043897181080123
118.156,0.010498698926353795,0.010498698926353795
118.15700000000001,0.007346997930487887,0.007346997930487887
118.158,0.0030014969019331417,0.0030014969019331417
118.159,0.0018775250186130689,-0.0018775250186130689
118.16000000000001,0.0065360693207598825,-0.0065360693207598825
118.161,0.010306288890433038,-0.010306288890433038
118.162,0.012755094208966727,-0.012755094208966727
118.16300000000001,0.013754704949846127,-0.013754704949846127
118.164,0.013455857362353035,-0.013455857362353035
118.165,0.0121790728553187,-0.0121790728553187
118.16600000000001,0.010268544167070643,-0.010268544167070643
118.167,0.007965856444206111,-0.007965856444206111
118.168,0.005351934161783238,-0.005351934161783238
118.16900000000001,0.002378261944744883,-0.002378261944744883
118.17,0.0010274197501677475,0.0010274197501677475
118.171,0.004826633258635352,0.004826633258635352
