Czas,AbsSum,Sum
251.052,0.11196206583787793,0.11196206583787793
251.053,0.06285009055020352,-0.06285009055020352
251.054,0.22343739349947866,-0.22343739349947866
251.055,0.3292887706234682,-0.3292887706234682
251.056,0.3567485721586219,-0.3567485721586219
251.057,0.3065948794229115,-0.3065948794229115
251.058,0.2038340693147329,-0.2038340693147329
251.059,0.08950595694026309,-0.08950595694026309
251.06,0.006949347843475562,-0.006949347843475562
251.061,0.01307841505546814,0.01307841505546814
251.062,0.0365173634262943,-0.0365173634262943
251.063,0.13575329783262136,-0.13575329783262136
251.064,0.24327492406849893,-0.24327492406849893
251.065,0.309657165279016,-0.309657165279016
251.066,0.29418066413110966,-0.29418066413110966
251.067,0.17964729949767788,-0.17964729949767788
251.068,0.01977269156149908,0.01977269156149908
251.069,0.26057747366245443,0.26057747366245443
251.07,0.4816504408602771,0.4816504408602771
251.071,0.6222970613118592,0.6222970613118592
251.072,0.641075844780362,0.641075844780362
251.073,0.5294506418774154,0.5294506418774154
251.074,0.31574969714335244,0.31574969714335244
251.075,0.057854119161200535,0.057854119161200535
251.076,0.17345471506335974,-0.17345471506335974
251.077,0.3155881500880695,-0.3155881500880695
251.078,0.33329537952601906,-0.33329537952601906
251.079,0.22995422759120898,-0.22995422759120898
251.08,0.04741893112278184,-0.04741893112278184
251.081,0.1457209072270147,0.1457209072270147
251.082,0.2741112775895409,0.2741112775895409
251.083,0.2779876220424562,0.2779876220424562
251.084,0.1313487890724907,0.1313487890724907
251.085,0.1493546719361707,-0.1493546719361707
251.086,0.5085018823188181,-0.5085018823188181
251.087,0.8655284149533037,-0.8655284149533037
251.088,1.0,-1.0
251.089,1.0,-1.0
251.09,1.0,-1.0
251.091,0.9413590655208836,-0.9413590655208836
251.092,0.5691207266168627,-0.5691207266168627
251.093,0.14010841259417084,-0.14010841259417084
251.094,0.26800443641810934,0.26800443641810934
251.095,0.5900484409599793,0.5900484409599793
251.096,0.7870122206268451,0.7870122206268451
251.097,0.8517888924459234,0.8517888924459234
251.098,0.8063587083129082,0.8063587083129082
251.099,0.6921152232758672,0.6921152232758672
251.1,0.556674380211662,0.556674380211662
251.101,0.44102471976014024,0.44102471976014024
251.102,0.37027185742027746,0.37027185742027746
251.103,0.34982189962196064,0.34982189962196064
251.104,0.3671498451494115,0.3671498451494115
251.105,0.397833925025632,0.397833925025632
251.106,0.41367729223628347,0.41367729223628347
251.107,0.39061353519458253,0.39061353519458253
251.108,0.3145889211926416,0.3145889211926416
251.109,0.18445657821750805,0.18445657821750805
251.11,0.011789000687344231,0.011789000687344231
251.111,0.18182984581362527,-0.18182984581362527
251.112,0.369139836264173,-0.369139836264173
251.113,0.5222321315349447,-0.5222321315349447
251.114,0.6174585750144324,-0.6174585750144324
251.115,0.6395728602877038,-0.6395728602877038
251.116,0.5845720269946433,-0.5845720269946433
251.117,0.4607923474636535,-0.4607923474636535
251.118,0.2879381919106082,-0.2879381919106082
251.119,0.09396741510065709,-0.09396741510065709
251.12,0.08984931145887676,0.08984931145887676
251.121,0.23489757322957794,0.23489757322957794
251.122,0.32100000213694035,0.32100000213694035
251.123,0.34061530720688604,0.34061530720688604
251.124,0.30026484771229156,0.30026484771229156
251.125,0.21860078156607088,0.21860078156607088
251.126,0.1214109363712701,0.1214109363712701
251.127,0.03476294268473801,0.03476294268473801
251.128,0.021874259484991332,-0.021874259484991332
251.129,0.040571207588301905,-0.040571207588301905
251.13,0.026462271067988374,-0.026462271067988374
251.131,0.004647713929732511,0.004647713929732511
251.132,0.03190792246458862,0.03190792246458862
251.133,0.0365682644088936,0.0365682644088936
251.134,0.00842499786484252,0.00842499786484252
251.135,0.05047639509875046,-0.05047639509875046
251.136,0.12608164835222058,-0.12608164835222058
251.137,0.1964699565823017,-0.1964699565823017
251.138,0.2386121168765326,-0.2386121168765326
251.139,0.23561928849206681,-0.23561928849206681
251.14,0.18220081422055057,-0.18220081422055057
251.141,0.08662926147392647,-0.08662926147392647
251.142,0.03136552522958769,0.03136552522958769
251.143,0.14605697134647277,0.14605697134647277
251.144,0.2327823783737606,0.2327823783737606
251.145,0.2744040596169013,0.2744040596169013
251.146,0.26525218921107774,0.26525218921107774
251.147,0.21152286965572142,0.21152286965572142
251.148,0.12829113395714575,0.12829113395714575
251.149,0.03437019475290959,0.03437019475290959
251.15,0.0531514482567913,-0.0531514482567913
251.151,0.1229171865752996,-0.1229171865752996
251.152,0.1707335347879263,-0.1707335347879263
251.153,0.19830748041071178,-0.19830748041071178
251.154,0.2101479170091365,-0.2101479170091365
251.155,0.2100904135374002,-0.2100904135374002
251.156,0.1989296267441013,-0.1989296267441013
251.157,0.1741062087134312,-0.1741062087134312
251.158,0.13151414037533882,-0.13151414037533882
251.159,0.06861037881113552,-0.06861037881113552
251.16,0.012543459466797025,0.012543459466797025
251.161,0.10369119949241035,0.10369119949241035
251.162,0.19109886993723535,0.19109886993723535
251.163,0.2585603100858851,0.2585603100858851
251.164,0.2917842444106098,0.2917842444106098
251.165,0.2826830800377709,0.2826830800377709
251.166,0.23204663673792258,0.23204663673792258
251.167,0.14960412482609797,0.14960412482609797
251.168,0.0513720061238474,0.0513720061238474
251.169,0.04486746164707511,-0.04486746164707511
251.17,0.12445511977565737,-0.12445511977565737
251.171,0.17948203619926673,-0.17948203619926673
251.172,0.2099770062657823,-0.2099770062657823
251.173,0.22234644014430216,-0.22234644014430216
251.174,0.22573522463284323,-0.22573522463284323
251.175,0.22770930137774759,-0.22770930137774759
251.176,0.2308847467527535,-0.2308847467527535
251.177,0.2317631180015597,-0.2317631180015597
251.178,0.22221004143217327,-0.22221004143217327
251.179,0.1930300893395317,-0.1930300893395317
251.18,0.1383014361439866,-0.1383014361439866
251.181,0.05882530032334332,-0.05882530032334332
251.182,0.036667447992156044,0.036667447992156044
251.183,0.1331255889210674,0.1331255889210674
251.184,0.2131714673053109,0.2131714673053109
251.185,0.2621813807636133,0.2621813807636133
251.186,0.2727351793428956,0.2727351793428956
251.187,0.24689908078174483,0.24689908078174483
251.188,0.19552818610001466,0.19552818610001466
251.189,0.13478865963293996,0.13478865963293996
251.19,0.0810510226684018,0.0810510226684018
251.191,0.045863932962962206,0.045863932962962206
251.192,0.03268816486914505,0.03268816486914505
251.193,0.036464028136279136,0.036464028136279136
251.194,0.046112841483692435,0.046112841483692435
251.195,0.04907032712182957,0.04907032712182957
251.196,0.03626085087807196,0.03626085087807196
251.197,0.005779381417270857,0.005779381417270857
251.198,0.036003660657502934,-0.036003660657502934
251.199,0.07631909599748532,-0.07631909599748532
251.2,0.10025158189094863,-0.10025158189094863
251.201,0.09596354328809575,-0.09596354328809575
251.202,0.0591609173931027,-0.0591609173931027
251.203,0.004681629036124457,0.004681629036124457
251.204,0.08109358013652379,0.08109358013652379
251.205,0.1501837973861424,0.1501837973861424
251.206,0.19195502976908485,0.19195502976908485
251.207,0.19178623336197842,0.19178623336197842
251.208,0.14450493615521642,0.14450493615521642
251.209,0.055941597144939514,0.055941597144939514
251.21,0.05837231795921238,-0.05837231795921238
251.211,0.1768883144110216,-0.1768883144110216
251.212,0.27702551010622145,-0.27702551010622145
251.213,0.3401315970725074,-0.3401315970725074
251.214,0.355244176502713,-0.355244176502713
251.215,0.32091833522428914,-0.32091833522428914
251.216,0.24494737948884304,-0.24494737948884304
251.217,0.14230289722600997,-0.14230289722600997
251.218,0.03193247050793935,-0.03193247050793935
251.219,0.06685795668323835,0.06685795668323835
251.22,0.13779765161859348,0.13779765161859348
251.221,0.1703517967597874,0.1703517967597874
251.222,0.16142522104883583,0.16142522104883583
251.223,0.11588005765925247,0.11588005765925247
251.224,0.04575819899095057,0.04575819899095057
251.225,0.03180090842531602,-0.03180090842531602
251.226,0.09778293230332646,-0.09778293230332646
251.227,0.13523877895858238,-0.13523877895858238
251.228,0.13323046823484908,-0.13323046823484908
251.229,0.08986455150610095,-0.08986455150610095
251.23,0.01349743087633748,-0.01349743087633748
251.231,0.07850879565693591,0.07850879565693591
251.232,0.16352833368006792,0.16352833368006792
251.233,0.2192362482425123,0.2192362482425123
251.234,0.22966342492728997,0.22966342492728997
251.235,0.1900593487915183,0.1900593487915183
251.236,0.1090105263612613,0.1090105263612613
251.237,0.006907022768243731,0.006907022768243731
251.238,0.08913265406933923,-0.08913265406933923
251.239,0.1526661753750087,-0.1526661753750087
251.24,0.1656164517640517,-0.1656164517640517
251.241,0.12393756838120229,-0.12393756838120229
251.242,0.0393982961307312,-0.0393982961307312
251.243,0.06330102276175786,0.06330102276175786
251.244,0.1534594548687387,0.1534594548687387
251.245,0.20343481673096742,0.20343481673096742
251.246,0.19713980845353674,0.19713980845353674
251.247,0.135320472260684,0.135320472260684
251.248,0.0358416047922836,0.0358416047922836
251.249,0.07131416144741776,-0.07131416144741776
251.25,0.15298736006712843,-0.15298736006712843
251.251,0.1830949066625085,-0.1830949066625085
251.252,0.15106394389856437,-0.15106394389856437
251.253,0.06577404779638851,-0.06577404779638851
251.254,0.04635863233463211,0.04635863233463211
251.255,0.1487575645899959,0.1487575645899959
251.256,0.20544318928138394,0.20544318928138394
251.257,0.19201724421532473,0.19201724421532473
251.258,0.1035909174725218,0.1035909174725218
251.259,0.04276217696604723,-0.04276217696604723
251.26,0.21185087382261714,-0.21185087382261714
251.261,0.35948914268326393,-0.35948914268326393
251.262,0.44434439012204185,-0.44434439012204185
251.263,0.4391913578231935,-0.4391913578231935
251.264,0.33846029820723456,-0.33846029820723456
251.265,0.1600649838675401,-0.1600649838675401
251.266,0.0588705195100756,0.0588705195100756
251.267,0.27109416662398655,0.27109416662398655
251.268,0.4305952390981378,0.4305952390981378
251.269,0.5032752715542119,0.5032752715542119
251.27,0.47431444867495864,0.47431444867495864
251.271,0.35067267178321493,0.35067267178321493
251.272,0.15852187967808296,0.15852187967808296
251.273,0.0633321710311261,-0.0633321710311261
251.274,0.27214681942326624,-0.27214681942326624
251.275,0.42992522108445386,-0.42992522108445386
251.276,0.51027260541752,-0.51027260541752
251.277,0.5023082578249972,-0.5023082578249972
251.278,0.41132385986285913,-0.41132385986285913
251.279,0.25656552799929,-0.25656552799929
251.28,0.06694244609323119,-0.06694244609323119
251.281,0.12438858594844371,0.12438858594844371
251.282,0.2856675743082029,0.2856675743082029
251.283,0.39164805130943514,0.39164805130943514
251.284,0.42756153625547055,0.42756153625547055
251.285,0.391407092116578,0.391407092116578
251.286,0.2941591871152016,0.2941591871152016
251.287,0.15769240529732897,0.15769240529732897
251.288,0.010567171640102124,0.010567171640102124
251.289,0.11771552138160202,-0.11771552138160202
251.29,0.2029108254037848,-0.2029108254037848
251.291,0.23128968670357108,-0.23128968670357108
251.292,0.20259239856022127,-0.20259239856022127
251.293,0.12973984213515333,-0.12973984213515333
251.294,0.035160783630837855,-0.035160783630837855
251.295,0.05544676233373069,0.05544676233373069
251.296,0.12027035233887706,0.12027035233887706
251.297,0.1473956289427929,0.1473956289427929
251.298,0.13782142731182967,0.13782142731182967
251.299,0.10443878644598015,0.10443878644598015
251.3,0.06715480583493272,0.06715480583493272
251.301,0.045596103222473205,0.045596103222473205
251.302,0.051699984645755315,0.051699984645755315
251.303,0.08467394814690321,0.08467394814690321
251.304,0.13016783756368322,0.13016783756368322
251.305,0.16421515176571,0.16421515176571
251.306,0.16094776652801057,0.16094776652801057
251.307,0.10177141730503503,0.10177141730503503
251.308,0.016942417400438226,-0.016942417400438226
251.309,0.18029354090220884,-0.18029354090220884
251.31,0.35688581437433387,-0.35688581437433387
251.311,0.5062091951170596,-0.5062091951170596
251.312,0.5894113781387695,-0.5894113781387695
251.313,0.5803413366905013,-0.5803413366905013
251.314,0.47353612367949505,-0.47353612367949505
251.315,0.2866535589605528,-0.2866535589605528
251.316,0.0564864673103983,-0.0564864673103983
251.317,0.17037513758731548,0.17037513758731548
251.318,0.3495464939455677,0.3495464939455677
251.319,0.4500303413033333,0.4500303413033333
251.32,0.4613729436936045,0.4613729436936045
251.321,0.3948508083862463,0.3948508083862463
251.322,0.2785855654251024,0.2785855654251024
251.323,0.1483146826313737,0.1483146826313737
251.324,0.03678862396622029,0.03678862396622029
251.325,0.034957927718985427,-0.034957927718985427
251.326,0.061962224325564086,-0.061962224325564086
251.327,0.05432144812973616,-0.05432144812973616
251.328,0.03156556187573034,-0.03156556187573034
251.329,0.014589473027641575,-0.014589473027641575
251.33,0.017966245322406205,-0.017966245322406205
251.331,0.0451583337335566,-0.0451583337335566
251.332,0.0880289434710505,-0.0880289434710505
251.333,0.13053492478583184,-0.13053492478583184
251.334,0.1550794047441708,-0.1550794047441708
251.335,0.14917993876463953,-0.14917993876463953
251.336,0.1101164644947158,-0.1101164644947158
251.337,0.046023285201660546,-0.046023285201660546
251.338,0.026824370522230634,0.026824370522230634
251.339,0.08946343524050038,0.08946343524050038
251.34,0.12647459937104366,0.12647459937104366
251.341,0.1308434385065711,0.1308434385065711
251.342,0.10585626554861371,0.10585626554861371
251.343,0.06351142266789012,0.06351142266789012
251.344,0.0201333289086989,0.0201333289086989
251.345,0.009204867440424147,-0.009204867440424147
251.346,0.01551633889078019,-0.01551633889078019
251.347,0.001591107791549362,0.001591107791549362
251.348,0.0344424467003408,0.0344424467003408
251.349,0.07049218279933123,0.07049218279933123
251.35,0.09692988150766646,0.09692988150766646
251.351,0.10502224194446752,0.10502224194446752
251.352,0.09271002492903446,0.09271002492903446
251.353,0.06467503934102758,0.06467503934102758
251.354,0.030026885271156933,0.030026885271156933
251.355,0.0014086424461819957,-0.0014086424461819957
251.356,0.022776090171140795,-0.022776090171140795
251.357,0.03251507466131842,-0.03251507466131842
251.358,0.034545600821008327,-0.034545600821008327
251.359,0.03634717342084259,-0.03634717342084259
251.36,0.045726823011486895,-0.045726823011486895
251.361,0.06751417942043147,-0.06751417942043147
251.362,0.1014013451594804,-0.1014013451594804
251.363,0.1416888854532128,-0.1416888854532128
251.364,0.17898892707296954,-0.17898892707296954
251.365,0.20323733614490724,-0.20323733614490724
251.366,0.2069287368447189,-0.2069287368447189
251.367,0.18745551276802497,-0.18745551276802497
251.368,0.14779728653246005,-0.14779728653246005
251.369,0.09542010287537128,-0.09542010287537128
251.37,0.039871946902526934,-0.039871946902526934
251.371,0.010023214678221981,0.010023214678221981
251.372,0.04840489886721433,0.04840489886721433
251.373,0.07336780267732834,0.07336780267732834
251.374,0.08653616619359172,0.08653616619359172
251.375,0.09158340809648968,0.09158340809648968
251.376,0.09241043359446643,0.09241043359446643
251.377,0.09174233975867985,0.09174233975867985
251.378,0.09064464640980252,0.09064464640980252
251.379,0.08901499315200079,0.08901499315200079
251.38,0.08666253287172698,0.08666253287172698
251.381,0.0843280448699053,0.0843280448699053
251.382,0.08402936223897117,0.08402936223897117
251.383,0.08842720173275254,0.08842720173275254
251.384,0.09937040348180415,0.09937040348180415
251.385,0.11620630210142724,0.11620630210142724
251.386,0.13464977779612575,0.13464977779612575
251.387,0.14689234199874468,0.14689234199874468
251.388,0.1432217402597451,0.1432217402597451
251.389,0.11485287801390465,0.11485287801390465
251.39,0.0571517749864221,0.0571517749864221
251.391,0.027831893474585923,-0.027831893474585923
251.392,0.13050201804550776,-0.13050201804550776
251.393,0.23503440916808027,-0.23503440916808027
251.394,0.3227027993597107,-0.3227027993597107
251.395,0.3763642106478595,-0.3763642106478595
251.396,0.38482495232244307,-0.38482495232244307
251.397,0.34578039237941194,-0.34578039237941194
251.398,0.26642007867610185,-0.26642007867610185
251.399,0.16149372510367965,-0.16149372510367965
251.4,0.049415698578735845,-0.049415698578735845
251.401,0.052411315451992735,0.052411315451992735
251.402,0.13164862922665965,0.13164862922665965
251.403,0.18327383728759883,0.18327383728759883
251.404,0.2094617804472616,0.2094617804472616
251.405,0.2173012107113672,0.2173012107113672
251.406,0.21524700415704467,0.21524700415704467
251.407,0.20958668469493036,0.20958668469493036
251.408,0.20214376219662689,0.20214376219662689
251.409,0.18997459931539917,0.18997459931539917
251.41,0.16710266688095032,0.16710266688095032
251.411,0.12761743959958616,0.12761743959958616
251.412,0.06898655047467894,0.06898655047467894
251.413,0.005651535166145583,-0.005651535166145583
251.414,0.087106480458087,-0.087106480458087
251.415,0.1619128569081214,-0.1619128569081214
251.416,0.21577689685162849,-0.21577689685162849
251.417,0.2376281358342981,-0.2376281358342981
251.418,0.22298162632409235,-0.22298162632409235
251.419,0.17551051133954432,-0.17551051133954432
251.42,0.10628248074735869,-0.10628248074735869
251.421,0.030846803527691757,-0.030846803527691757
251.422,0.03496541357864391,0.03496541357864391
251.423,0.07926230917365484,0.07926230917365484
251.424,0.09706493937314087,0.09706493937314087
251.425,0.091158650770929,0.091158650770929
251.426,0.07061036966543965,0.07061036966543965
251.427,0.04746141832876871,0.04746141832876871
251.428,0.03265911329356941,0.03265911329356941
251.429,0.03250626355485364,0.03250626355485364
251.43,0.04672372265953917,0.04672372265953917
251.431,0.06870048336314061,0.06870048336314061
251.432,0.08781476924646103,0.08781476924646103
251.433,0.09306443176387336,0.09306443176387336
251.434,0.07684445345395474,0.07684445345395474
251.435,0.037674078629668095,0.037674078629668095
251.436,0.018987159772787088,-0.018987159772787088
251.437,0.08209389743243845,-0.08209389743243845
251.438,0.1381208018139206,-0.1381208018139206
251.439,0.17495493343789892,-0.17495493343789892
251.44,0.18536460770798058,-0.18536460770798058
251.441,0.16896608680924263,-0.16896608680924263
251.442,0.13207761253044215,-0.13207761253044215
251.443,0.08551230579838076,-0.08551230579838076
251.444,0.0410136384609362,-0.0410136384609362
251.445,0.007476466390508141,-0.007476466390508141
251.446,0.011817731732567616,0.011817731732567616
251.447,0.02002520876019065,0.02002520876019065
251.448,0.025303609771796687,0.025303609771796687
251.449,0.03752304864250022,0.03752304864250022
251.45,0.06415870165733817,0.06415870165733817
251.451,0.10672126239815283,0.10672126239815283
251.452,0.15898502484247978,0.15898502484247978
251.453,0.20776813401588257,0.20776813401588257
251.454,0.23624350907502079,0.23624350907502079
251.455,0.22894110451724337,0.22894110451724337
251.456,0.17699645674377207,0.17699645674377207
251.457,0.08200848808946382,0.08200848808946382
251.458,0.04282448069028255,-0.04282448069028255
251.459,0.1748831275064574,-0.1748831275064574
251.46,0.2872446082993373,-0.2872446082993373
251.461,0.35545119895664135,-0.35545119895664135
251.462,0.3640678625305386,-0.3640678625305386
251.463,0.31112376416903875,-0.31112376416903875
251.464,0.20906096039967692,-0.20906096039967692
251.465,0.08177845736457279,-0.08177845736457279
251.466,0.04151264437619617,0.04151264437619617
251.467,0.13395260282967736,0.13395260282967736
251.468,0.17805847195371483,0.17805847195371483
251.469,0.17009908831839948,0.17009908831839948
251.47,0.12055570855436937,0.12055570855436937
251.471,0.05054473873104803,0.05054473873104803
251.472,0.014727459340193705,-0.014727459340193705
251.473,0.05352370342938417,-0.05352370342938417
251.474,0.05389510029430267,-0.05389510029430267
251.475,0.016888758489129407,-0.016888758489129407
251.476,0.04427361583468303,0.04427361583468303
251.477,0.10872947239318065,0.10872947239318065
251.478,0.1547698210654347,0.1547698210654347
251.479,0.16675931273410471,0.16675931273410471
251.48,0.14002810299422608,0.14002810299422608
251.481,0.08223229377785923,0.08223229377785923
251.482,0.010795166911141907,0.010795166911141907
251.483,0.052729243971255224,-0.052729243971255224
251.484,0.08957127008146037,-0.08957127008146037
251.485,0.08975348175032705,-0.08975348175032705
251.486,0.05530591190360723,-0.05530591190360723
251.487,0.00030932262185690007,0.00030932262185690007
251.488,0.05637197109488268,0.05637197109488268
251.489,0.09136776376803901,0.09136776376803901
251.49,0.08973896602100662,0.08973896602100662
251.491,0.04685260914996703,0.04685260914996703
251.492,0.029309645138090867,-0.029309645138090867
251.493,0.12021768076613604,-0.12021768076613604
251.494,0.2019546837501307,-0.2019546837501307
251.495,0.2519090913110259,-0.2519090913110259
251.496,0.2550276733406365,-0.2550276733406365
251.497,0.20786038339805468,-0.20786038339805468
251.498,0.1193419393221884,-0.1193419393221884
251.499,0.008241454972702567,-0.008241454972702567
251.5,0.10184230526433424,0.10184230526433424
251.501,0.18843611052611386,0.18843611052611386
251.502,0.23544931928781776,0.23544931928781776
251.503,0.23642309748016244,0.23642309748016244
251.504,0.19513832024644184,0.19513832024644184
251.505,0.1237273079038308,0.1237273079038308
251.506,0.039074583746490754,0.039074583746490754
251.507,0.04137644179636368,-0.04137644179636368
251.508,0.10332277399189083,-0.10332277399189083
251.509,0.13804079265735103,-0.13804079265735103
251.51,0.14326416290849542,-0.14326416290849542
251.511,0.12264063074844456,-0.12264063074844456
251.512,0.08419546174291626,-0.08419546174291626
251.513,0.03831565635363843,-0.03831565635363843
251.514,0.004311674876404492,0.004311674876404492
251.515,0.03453242054155292,0.03453242054155292
251.516,0.04619600694983972,0.04619600694983972
251.517,0.03718979313254267,0.03718979313254267
251.518,0.009942998404288694,0.009942998404288694
251.519,0.028743194212991208,-0.028743194212991208
251.52,0.06868349443874566,-0.06868349443874566
251.521,0.09815292391850683,-0.09815292391850683
251.522,0.10640950595908627,-0.10640950595908627
251.523,0.08644793243355786,-0.08644793243355786
251.524,0.03732130673395462,-0.03732130673395462
251.525,0.03468373636599065,0.03468373636599065
251.526,0.11655436343782122,0.11655436343782122
251.527,0.19088004694727934,0.19088004694727934
251.528,0.23962449846086975,0.23962449846086975
251.529,0.24848620485764905,0.24848620485764905
251.53,0.21072102565082274,0.21072102565082274
251.531,0.12934703476212572,0.12934703476212572
251.532,0.017031694020865462,0.017031694020865462
251.533,0.10642188635937233,-0.10642188635937233
251.534,0.21840067148275455,-0.21840067148275455
251.535,0.29851117137263494,-0.29851117137263494
251.536,0.33300379846494044,-0.33300379846494044
251.537,0.31746748049199447,-0.31746748049199447
251.538,0.2571814260761235,-0.2571814260761235
251.539,0.16518672259948952,-0.16518672259948952
251.54,0.05876647321549944,-0.05876647321549944
251.541,0.04459346210296378,0.04459346210296378
251.542,0.1306578707502013,0.1306578707502013
251.543,0.19050949736704736,0.19050949736704736
251.544,0.22094966621955936,0.22094966621955936
251.545,0.2234972875307042,0.2234972875307042
251.546,0.20263740146276654,0.20263740146276654
251.547,0.16407930074819288,0.16407930074819288
251.548,0.11360500289721043,0.11360500289721043
251.549,0.05671607849674132,0.05671607849674132
251.55,0.0011186067080014572,-0.0011186067080014572
251.551,0.0540855362508641,-0.0540855362508641
251.552,0.09602773564562261,-0.09602773564562261
251.553,0.12112486879996887,-0.12112486879996887
251.554,0.1251913956701819,-0.1251913956701819
251.555,0.107171072958271,-0.107171072958271
251.556,0.07020142831801135,-0.07020142831801135
251.557,0.021670300280186683,-0.021670300280186683
251.558,0.028013059755928493,0.028013059755928493
251.559,0.06775875084706828,0.06775875084706828
251.56,0.08863885656403125,0.08863885656403125
251.561,0.08636855694789092,0.08636855694789092
251.562,0.06259986705042309,0.06259986705042309
251.563,0.024535698858560107,0.024535698858560107
251.564,0.017101586684129644,-0.017101586684129644
251.565,0.05117053082121481,-0.05117053082121481
251.566,0.0693337374627161,-0.0693337374627161
251.567,0.06839473369296156,-0.06839473369296156
251.568,0.051012405268969996,-0.051012405268969996
251.569,0.024579228424650212,-0.024579228424650212
251.57,0.001352732523804523,0.001352732523804523
251.571,0.018242419151027978,0.018242419151027978
251.572,0.021285031797339204,0.021285031797339204
251.573,0.010811214571169625,0.010811214571169625
251.574,0.008068059165053265,-0.008068059165053265
251.575,0.027409930945542227,-0.027409930945542227
251.576,0.03929381630350959,-0.03929381630350959
251.577,0.03860510265268191,-0.03860510265268191
251.578,0.02481426071635373,-0.02481426071635373
251.579,0.0021695995341839414,-0.0021695995341839414
251.58,0.021739365547482237,0.021739365547482237
251.581,0.03854917338116981,0.03854917338116981
251.582,0.041956328751999505,0.041956328751999505
251.583,0.02988116083169068,0.02988116083169068
251.584,0.005260336083073414,0.005260336083073414
251.585,0.02477598198156028,-0.02477598198156028
251.586,0.05106292106684118,-0.05106292106684118
251.587,0.06519780071568537,-0.06519780071568537
251.588,0.06209371532909935,-0.06209371532909935
251.589,0.04150809412833356,-0.04150809412833356
251.59,0.008103458273458375,-0.008103458273458375
251.591,0.029941419290245186,0.029941419290245186
251.592,0.06331700553431552,0.06331700553431552
251.593,0.08423436759306036,0.08423436759306036
251.594,0.08856436537189616,0.08856436537189616
251.595,0.07686870675707813,0.07686870675707813
251.596,0.05406918227084323,0.05406918227084323
251.597,0.02789426228383518,0.02789426228383518
251.598,0.006572035392676812,0.006572035392676812
251.599,0.0035792988788512226,-0.0035792988788512226
251.6,1.280364424793845e-05,-1.280364424793845e-05
251.601,0.015217727379463142,0.015217727379463142
251.602,0.035867478264329566,0.035867478264329566
251.603,0.05304617107257381,0.05304617107257381
251.604,0.05752494256491958,0.05752494256491958
251.605,0.04225383608271338,0.04225383608271338
251.606,0.00448832734070348,0.00448832734070348
251.607,0.05299797270063822,-0.05299797270063822
251.608,0.12194702593404949,-0.12194702593404949
251.609,0.18996307966667825,-0.18996307966667825
251.61,0.2429464130556912,-0.2429464130556912
251.611,0.26812648959353,-0.26812648959353
251.612,0.2570344562255201,-0.2570344562255201
251.613,0.20771980365275056,-0.20771980365275056
251.614,0.12564249095939595,-0.12564249095939595
251.615,0.022948377110663776,-0.022948377110663776
251.616,0.08379024065932406,0.08379024065932406
251.617,0.17690308828925305,0.17690308828925305
251.618,0.24126181036439265,0.24126181036439265
251.619,0.26736361942526754,0.26736361942526754
251.62,0.2531084592581925,0.2531084592581925
251.621,0.2038470396226708,0.2038470396226708
251.622,0.13073214305668457,0.13073214305668457
251.623,0.04785992629843561,0.04785992629843561
251.624,0.030994603220850903,-0.030994603220850903
251.625,0.09516336747791143,-0.09516336747791143
251.626,0.13869314351632844,-0.13869314351632844
251.627,0.1604714221238719,-0.1604714221238719
251.628,0.1630434155784274,-0.1630434155784274
251.629,0.15069599167877012,-0.15069599167877012
251.63,0.1275769906227937,-0.1275769906227937
251.631,0.09653622132473305,-0.09653622132473305
251.632,0.05904767002441824,-0.05904767002441824
251.633,0.016118894449250742,-0.016118894449250742
251.634,0.030320682202093385,0.030320682202093385
251.635,0.07627972485245027,0.07627972485245027
251.636,0.11547478192181915,0.11547478192181915
251.637,0.14033472747282594,0.14033472747282594
251.638,0.14407143548168855,0.14407143548168855
251.639,0.12317744878593762,0.12317744878593762
251.64,0.07944325846071076,0.07944325846071076
251.641,0.020637194040668216,0.020637194040668216
251.642,0.040634163351337405,-0.040634163351337405
251.643,0.08977927995506885,-0.08977927995506885
251.644,0.11407700230879836,-0.11407700230879836
251.645,0.10641086350951856,-0.10641086350951856
251.646,0.06769820034197538,-0.06769820034197538
251.647,0.007160771003604904,-0.007160771003604904
251.648,0.05978507732925631,0.05978507732925631
251.649,0.11550634230170487,0.11550634230170487
251.65,0.14488877038064807,0.14488877038064807
251.651,0.1394565725786967,0.1394565725786967
251.652,0.09966842161421385,0.09966842161421385
251.653,0.0347259974764651,0.0347259974764651
251.654,0.04001884430875824,-0.04001884430875824
251.655,0.10725769785644612,-0.10725769785644612
251.656,0.15226732021096567,-0.15226732021096567
251.657,0.16649463785380858,-0.16649463785380858
251.658,0.14923191431032157,-0.14923191431032157
251.659,0.1070559631776764,-0.1070559631776764
251.66,0.051393922090167354,-0.051393922090167354
251.661,0.004896019380106864,0.004896019380106864
251.662,0.05083634102238155,0.05083634102238155
251.663,0.0796017879492692,0.0796017879492692
251.664,0.08925999549037944,0.08925999549037944
251.665,0.08204132676725884,0.08204132676725884
251.666,0.0626612438377887,0.0626612438377887
251.667,0.03644255125203966,0.03644255125203966
251.668,0.007915356674896179,0.007915356674896179
251.669,0.019734528180067934,-0.019734528180067934
251.67,0.04440395184372026,-0.04440395184372026
251.671,0.06437220692545742,-0.06437220692545742
251.672,0.0776816958642863,-0.0776816958642863
251.673,0.08202486356831606,-0.08202486356831606
251.674,0.0752825427357281,-0.0752825427357281
251.675,0.056517669961619665,-0.056517669961619665
251.676,0.026972332629520923,-0.026972332629520923
251.677,0.00944586096082678,0.00944586096082678
251.678,0.046540885814387645,0.046540885814387645
251.679,0.07709843164849373,0.07709843164849373
251.68,0.0947200423969381,0.0947200423969381
251.681,0.09564064059803501,0.09564064059803501
251.682,0.07990643152574961,0.07990643152574961
251.683,0.051479465924906265,0.051479465924906265
251.684,0.017189969054334897,0.017189969054334897
251.685,0.015151429256742843,-0.015151429256742843
251.686,0.03888538802621444,-0.03888538802621444
251.687,0.05020899669606349,-0.05020899669606349
251.688,0.04894334573539971,-0.04894334573539971
251.689,0.03818311813385744,-0.03818311813385744
251.69,0.02302551296252564,-0.02302551296252564
251.691,0.00886323086491303,-0.00886323086491303
251.692,0.00017524584859129888,0.00017524584859129888
251.693,0.0021690156786349224,0.0021690156786349224
251.694,0.002467878113835753,-0.002467878113835753
251.695,0.011563329108943532,-0.011563329108943532
251.696,0.022125862291651255,-0.022125862291651255
251.697,0.03123594286298592,-0.03123594286298592
251.698,0.03658968400278506,-0.03658968400278506
251.699,0.036617627742543846,-0.036617627742543846
251.7,0.030330433661765688,-0.030330433661765688
251.701,0.01717189276666542,-0.01717189276666542
251.702,0.0028722251332156112,0.0028722251332156112
251.703,0.0288397352003944,0.0288397352003944
251.704,0.058204915080263486,0.058204915080263486
251.705,0.08650002993035999,0.08650002993035999
251.706,0.10753831137258207,0.10753831137258207
251.707,0.11446495889387642,0.11446495889387642
251.708,0.10154298625489755,0.10154298625489755
251.709,0.06622526706425469,0.06622526706425469
251.71,0.01082135049366073,0.01082135049366073
251.711,0.056942333119008204,-0.056942333119008204
251.712,0.12490744135890908,-0.12490744135890908
251.713,0.17898087641943206,-0.17898087641943206
251.714,0.20658320495488125,-0.20658320495488125
251.715,0.20009241894657726,-0.20009241894657726
251.716,0.15922213232983506,-0.15922213232983506
251.717,0.09152168644968162,-0.09152168644968162
251.718,0.010727143506765624,-0.010727143506765624
251.719,0.06664236259772971,0.06664236259772971
251.72,0.125481266781428,0.125481266781428
251.721,0.15585432600408966,0.15585432600408966
251.722,0.1552065152141422,0.1552065152141422
251.723,0.12840772550145152,0.12840772550145152
251.724,0.08570415806161225,0.08570415806161225
251.725,0.039307194197071293,0.039307194197071293
251.726,0.0002450051732582059,-0.0002450051732582059
251.727,0.026801860742602157,-0.026801860742602157
251.728,0.03960900682765078,-0.03960900682765078
251.729,0.04244684432342671,-0.04244684432342671
251.73,0.0413770379077788,-0.0413770379077788
251.731,0.042016052560526984,-0.042016052560526984
251.732,0.0473465049135845,-0.0473465049135845
251.733,0.0568020298535189,-0.0568020298535189
251.734,0.06683661416211684,-0.06683661416211684
251.735,0.07262024735030881,-0.07262024735030881
251.736,0.07010425794182129,-0.07010425794182129
251.737,0.05761524609481361,-0.05761524609481361
251.738,0.0363848273907752,-0.0363848273907752
251.739,0.009892658220751693,-0.009892658220751693
251.74,0.017602855055577127,0.017602855055577127
251.741,0.04265026709691533,0.04265026709691533
251.742,0.06359408867095073,0.06359408867095073
251.743,0.08054504724114508,0.08054504724114508
251.744,0.094386155162965,0.094386155162965
251.745,0.10532951757519848,0.10532951757519848
251.746,0.11178341004131931,0.11178341004131931
251.747,0.11020212190357159,0.11020212190357159
251.748,0.09619080618250542,0.09619080618250542
251.749,0.0665749573707568,0.0665749573707568
251.75,0.021647332635363448,0.021647332635363448
251.751,0.0334089666610633,-0.0334089666610633
251.752,0.08873676429565369,-0.08873676429565369
251.753,0.13192631743732208,-0.13192631743732208
251.754,0.15157956513174187,-0.15157956513174187
251.755,0.14121878953751976,-0.14121878953751976
251.756,0.10215559301636512,-0.10215559301636512
251.757,0.04414354321903846,-0.04414354321903846
251.758,0.01669514200988753,0.01669514200988753
251.759,0.06226108453762835,0.06226108453762835
251.76,0.07792890141823006,0.07792890141823006
251.761,0.057328844038790905,0.057328844038790905
251.762,0.004832910938816104,0.004832910938816104
251.763,0.0652064551966971,-0.0652064551966971
251.764,0.1323797354353876,-0.1323797354353876
251.765,0.17616648479496266,-0.17616648479496266
251.766,0.1820601408371888,-0.1820601408371888
251.767,0.1459264313014894,-0.1459264313014894
251.768,0.07520291351108377,-0.07520291351108377
251.769,0.013425152361756565,0.013425152361756565
251.77,0.0990826078490612,0.0990826078490612
251.771,0.1628208374480311,0.1628208374480311
251.772,0.19280795644588467,0.19280795644588467
251.773,0.18697777039279662,0.18697777039279662
251.774,0.152437168897408,0.152437168897408
251.775,0.10206344288630209,0.10206344288630209
251.776,0.04966887388406427,0.04966887388406427
251.777,0.0055360215041049265,0.0055360215041049265
251.778,0.02611039944169624,-0.02611039944169624
251.779,0.046931972468023275,-0.046931972468023275
251.78,0.061905756541478674,-0.061905756541478674
251.781,0.07557936758025519,-0.07557936758025519
251.782,0.08881614056606157,-0.08881614056606157
251.783,0.09748161925574572,-0.09748161925574572
251.784,0.09373559259827902,-0.09373559259827902
251.785,0.06952791239076739,-0.06952791239076739
251.786,0.020956393545779828,-0.020956393545779828
251.787,0.04830351094329077,0.04830351094329077
251.788,0.1260564260423327,0.1260564260423327
251.789,0.19384271439436462,0.19384271439436462
251.79,0.231931980942776,0.231931980942776
251.791,0.2255262692365727,0.2255262692365727
251.792,0.17007963913717372,0.17007963913717372
251.793,0.0738068862514154,0.0738068862514154
251.794,0.04367980498473012,-0.04367980498473012
251.795,0.1563870440890085,-0.1563870440890085
251.796,0.2391372871166303,-0.2391372871166303
251.797,0.274692416068536,-0.274692416068536
251.798,0.2585220986260287,-0.2585220986260287
251.799,0.19968539467547775,-0.19968539467547775
251.8,0.11757131493237571,-0.11757131493237571
251.801,0.03561075211302733,-0.03561075211302733
251.802,0.025942564378159005,0.025942564378159005
251.803,0.055798901719443794,0.055798901719443794
251.804,0.054164209693654986,0.054164209693654986
251.805,0.03134396524874705,0.03134396524874705
251.806,0.003099424927043737,0.003099424927043737
251.807,0.0154813004517389,-0.0154813004517389
251.808,0.015395258552412305,-0.015395258552412305
251.809,0.0034400440943282984,0.0034400440943282984
251.81,0.03280284936400779,0.03280284936400779
251.811,0.05984641821057868,0.05984641821057868
251.812,0.0723677038646433,0.0723677038646433
251.813,0.06366792835373536,0.06366792835373536
251.814,0.03521923670708693,0.03521923670708693
251.815,0.00379541042708198,-0.00379541042708198
251.816,0.039831598257353384,-0.039831598257353384
251.817,0.059929391755885186,-0.059929391755885186
251.818,0.05640542356798384,-0.05640542356798384
251.819,0.029574060140595493,-0.029574060140595493
251.82,0.012457705687252796,0.012457705687252796
251.821,0.05677909221953348,0.05677909221953348
251.822,0.09028267541341162,0.09028267541341162
251.823,0.10415383994348537,0.10415383994348537
251.824,0.09659286338201767,0.09659286338201767
251.825,0.07282143412681052,0.07282143412681052
251.826,0.04247170090029262,0.04247170090029262
251.827,0.015450446836078102,0.015450446836078102
251.828,0.002060912834672246,-0.002060912834672246
251.829,0.009881166003822828,-0.009881166003822828
251.83,0.013472894334648045,-0.013472894334648045
251.831,0.021086063258025978,-0.021086063258025978
251.832,0.039531857581186824,-0.039531857581186824
251.833,0.07029662534282755,-0.07029662534282755
251.834,0.10763834325485144,-0.10763834325485144
251.835,0.1396051701640475,-0.1396051701640475
251.836,0.1518265119090184,-0.1518265119090184
251.837,0.13284878141219036,-0.13284878141219036
251.838,0.07912168720955515,-0.07912168720955515
251.839,0.0022555647686830493,0.0022555647686830493
251.84,0.0942260440653675,0.0942260440653675
251.841,0.17395017489487863,0.17395017489487863
251.842,0.21929528258198916,0.21929528258198916
251.843,0.21562133041488196,0.21562133041488196
251.844,0.1606631730585648,0.1606631730585648
251.845,0.06586903342153483,0.06586903342153483
251.846,0.04632852216587591,-0.04632852216587591
251.847,0.1485343605745164,-0.1485343605745164
251.848,0.2158857952416643,-0.2158857952416643
251.849,0.232755275628018,-0.232755275628018
251.85,0.1966851401946107,-0.1966851401946107
251.851,0.11849152078030323,-0.11849152078030323
251.852,0.018691193429924757,-0.018691193429924757
251.853,0.0784834550622524,0.0784834550622524
251.854,0.1515674099793607,0.1515674099793607
251.855,0.186929475194618,0.186929475194618
251.856,0.18111385981955097,0.18111385981955097
251.857,0.14011861510046075,0.14011861510046075
251.858,0.07625696471175081,0.07625696471175081
251.859,0.003916972656694329,0.003916972656694329
251.86,0.06430638945943878,-0.06430638945943878
251.861,0.11998786262412509,-0.11998786262412509
251.862,0.15932992905713417,-0.15932992905713417
251.863,0.182021929858448,-0.182021929858448
251.864,0.18934629451800522,-0.18934629451800522
251.865,0.18251318460898813,-0.18251318460898813
251.866,0.16193926501745004,-0.16193926501745004
251.867,0.12766276052510173,-0.12766276052510173
251.868,0.08053636005288578,-0.08053636005288578
251.869,0.023486645717673116,-0.023486645717673116
251.87,0.037894495807109685,0.037894495807109685
251.871,0.09586183176726437,0.09586183176726437
251.872,0.14208256363745497,0.14208256363745497
251.873,0.1697421008131459,0.1697421008131459
251.874,0.17542356874369114,0.17542356874369114
251.875,0.16005459046979076,0.16005459046979076
251.876,0.12855898840768543,0.12855898840768543
251.877,0.08833769069382891,0.08833769069382891
251.878,0.04713592405972933,0.04713592405972933
251.879,0.011061449426254644,0.011061449426254644
251.88,0.016576912136736066,-0.016576912136736066
251.881,0.035294956027069224,-0.035294956027069224
251.882,0.04647131443313324,-0.04647131443313324
251.883,0.051930184267280355,-0.051930184267280355
251.884,0.05274877718934112,-0.05274877718934112
251.885,0.048825409644567386,-0.048825409644567386
251.886,0.0393711835288143,-0.0393711835288143
251.887,0.02404560819288515,-0.02404560819288515
251.888,0.004133846267368013,-0.004133846267368013
251.889,0.016897057928324744,0.016897057928324744
251.89,0.033887955753599375,0.033887955753599375
251.891,0.04150124669758859,0.04150124669758859
251.892,0.03625972526197607,0.03625972526197607
251.893,0.018306959981683413,0.018306959981683413
251.894,0.007907097499726401,-0.007907097499726401
251.895,0.03447105795899297,-0.03447105795899297
251.896,0.0522827846121906,-0.0522827846121906
251.897,0.05406855889066908,-0.05406855889066908
251.898,0.037114608814057704,-0.037114608814057704
251.899,0.004684658641327832,-0.004684658641327832
251.9,0.034503661008743025,0.034503661008743025
251.901,0.06870974791106632,0.06870974791106632
251.902,0.0867854405704589,0.0867854405704589
251.903,0.08178998667362514,0.08178998667362514
251.904,0.053365542317800774,0.053365542317800774
251.905,0.008024012911166833,0.008024012911166833
251.906,0.04279740330599302,-0.04279740330599302
251.907,0.08627927710282812,-0.08627927710282812
251.908,0.11216460629801628,-0.11216460629801628
251.909,0.11576347080326388,-0.11576347080326388
251.91,0.09901004276717773,-0.09901004276717773
251.911,0.06926103051968058,-0.06926103051968058
251.912,0.03633341995226902,-0.03633341995226902
251.913,0.008905122769317875,-0.008905122769317875
251.914,0.008386121026498161,0.008386121026498161
251.915,0.01609285235497726,0.01609285235497726
251.916,0.01897904976625031,0.01897904976625031
251.917,0.02335197189012428,0.02335197189012428
251.918,0.03379894958920926,0.03379894958920926
251.919,0.05066582974814193,0.05066582974814193
251.92,0.06934530447944143,0.06934530447944143
251.921,0.08175530930489328,0.08175530930489328
251.922,0.07953104727323779,0.07953104727323779
251.923,0.05774946495058719,0.05774946495058719
251.924,0.017724361852895054,0.017724361852895054
251.925,0.03232463142903674,-0.03232463142903674
251.926,0.07919307356002747,-0.07919307356002747
251.927,0.1087197110670185,-0.1087197110670185
251.928,0.11061887241514368,-0.11061887241514368
251.929,0.08242875925167625,-0.08242875925167625
251.93,0.03109380421120378,-0.03109380421120378
251.931,0.028551340452517504,0.028551340452517504
251.932,0.07808254946792492,0.07808254946792492
251.933,0.10127438057817018,0.10127438057817018
251.934,0.08950407009202532,0.08950407009202532
251.935,0.044947371899496824,0.044947371899496824
251.936,0.01958755167054882,-0.01958755167054882
251.937,0.08426332988299023,-0.08426332988299023
251.938,0.12819926581930885,-0.12819926581930885
251.939,0.1359840386961344,-0.1359840386961344
251.94,0.10265681222305123,-0.10265681222305123
251.941,0.035564967524687074,-0.035564967524687074
251.942,0.04751093866906242,0.04751093866906242
251.943,0.12340004514270464,0.12340004514270464
251.944,0.17020409664237945,0.17020409664237945
251.945,0.17355525331808863,0.17355525331808863
251.946,0.13061326076192326,0.13061326076192326
251.947,0.050689532126642955,0.050689532126642955
251.948,0.04755498805815517,-0.04755498805815517
251.949,0.14136503081373686,-0.14136503081373686
251.95,0.2099550663319788,-0.2099550663319788
251.951,0.23961238739465385,-0.23961238739465385
251.952,0.22649197855014114,-0.22649197855014114
251.953,0.17655249163484465,-0.17655249163484465
251.954,0.10297117024110558,-0.10297117024110558
251.955,0.02206762652599792,-0.02206762652599792
251.956,0.05093641379484515,0.05093641379484515
251.957,0.1051415466813248,0.1051415466813248
251.958,0.1354889289363308,0.1354889289363308
251.959,0.14250904975441547,0.14250904975441547
251.96,0.1307765125165028,0.1307765125165028
251.961,0.10683039884151557,0.10683039884151557
251.962,0.07729476076380726,0.07729476076380726
251.963,0.04766362770763366,0.04766362770763366
251.964,0.021844413599468204,0.021844413599468204
251.965,0.0022440544131492324,0.0022440544131492324
251.966,0.009953144020193094,-0.009953144020193094
251.967,0.01460281652094575,-0.01460281652094575
251.968,0.012600361672180038,-0.012600361672180038
251.969,0.005934221496255776,-0.005934221496255776
251.97,0.0024524865349244696,0.0024524865349244696
251.971,0.009189113407560123,0.009189113407560123
251.972,0.01139621494584575,0.01139621494584575
251.973,0.007749230819884767,0.007749230819884767
251.974,0.0007393191454656556,-0.0007393191454656556
251.975,0.010652329758258028,-0.010652329758258028
251.976,0.017048302736308196,-0.017048302736308196
251.977,0.015170713017768844,-0.015170713017768844
251.978,0.00249417581400857,-0.00249417581400857
251.979,0.019626449845347782,0.019626449845347782
251.98,0.045427885120223,0.045427885120223
251.981,0.06576105910179364,0.06576105910179364
251.982,0.0705910888042307,0.0705910888042307
251.983,0.052350861554022465,0.052350861554022465
251.984,0.009123444992094054,0.009123444992094054
251.985,0.05346276862420518,-0.05346276862420518
251.986,0.12245980391418365,-0.12245980391418365
251.987,0.18018541920443853,-0.18018541920443853
251.988,0.20867217698499685,-0.20867217698499685
251.989,0.19484154281265897,-0.19484154281265897
251.99,0.13492742039345396,-0.13492742039345396
251.991,0.0367687588402944,-0.0367687588402944
251.992,0.08088800432366683,0.08088800432366683
251.993,0.19212863512954903,0.19212863512954903
251.994,0.269843087156308,0.269843087156308
251.995,0.2924560315657745,0.2924560315657745
251.996,0.24967248409042897,0.24967248409042897
251.997,0.14570109436738354,0.14570109436738354
251.998,0.0009562564462523016,-0.0009562564462523016
251.999,0.16118722147550557,-0.16118722147550557
252.0,0.3015814804400595,-0.3015814804400595
252.001,0.391873470704875,-0.391873470704875
252.002,0.41174768240164095,-0.41174768240164095
252.003,0.35541423907959924,-0.35541423907959924
252.004,0.23291975715270619,-0.23291975715270619
252.005,0.06794385881097365,-0.06794385881097365
252.006,0.10735434367714847,0.10735434367714847
252.007,0.25922528493014974,0.25922528493014974
252.008,0.3593925165397549,0.3593925165397549
252.009,0.39074750404814473,0.39074750404814473
252.01,0.35048959723208584,0.35048959723208584
252.011,0.2501259049427911,0.2501259049427911
252.012,0.11244907042770413,0.11244907042770413
252.013,0.03373754702898857,-0.03373754702898857
252.014,0.15991462912794763,-0.15991462912794763
252.015,0.2437478361478429,-0.2437478361478429
252.016,0.2733159227849685,-0.2733159227849685
252.017,0.24880486797883838,-0.24880486797883838
252.018,0.18141336201209868,-0.18141336201209868
252.019,0.08987138992831101,-0.08987138992831101
252.02,0.0044748176172717535,0.0044748176172717535
252.021,0.08274685138021032,0.08274685138021032
252.022,0.13253231930812315,0.13253231930812315
252.023,0.14987434559047474,0.14987434559047474
252.024,0.138899197046352,0.138899197046352
252.025,0.1093826455304463,0.1093826455304463
252.026,0.07311074730509493,0.07311074730509493
252.027,0.04018679827080418,0.04018679827080418
252.028,0.016385209140738377,0.016385209140738377
252.029,0.0022700011764491546,0.0022700011764491546
252.03,0.005800872211207508,-0.005800872211207508
252.031,0.013285173508313597,-0.013285173508313597
252.032,0.024624272731856522,-0.024624272731856522
252.033,0.04103404819605616,-0.04103404819605616
252.034,0.05973734835450695,-0.05973734835450695
252.035,0.07492394284296966,-0.07492394284296966
252.036,0.080085263057881,-0.080085263057881
252.037,0.0708486852986141,-0.0708486852986141
252.038,0.04721791812282072,-0.04721791812282072
252.039,0.014299693738065944,-0.014299693738065944
252.04,0.018885467128073596,0.018885467128073596
252.041,0.042220885720871904,0.042220885720871904
252.042,0.048030211712231985,0.048030211712231985
252.043,0.03409511735785964,0.03409511735785964
252.044,0.005014188163080746,0.005014188163080746
252.045,0.028726544280710198,-0.028726544280710198
252.046,0.053836832145683355,-0.053836832145683355
252.047,0.05856211415187229,-0.05856211415187229
252.048,0.036888090404740836,-0.036888090404740836
252.049,0.008825249375525646,0.008825249375525646
252.05,0.06777154157324738,0.06777154157324738
252.051,0.12337913973920189,0.12337913973920189
252.052,0.15803701920215896,0.15803701920215896
252.053,0.1584567573878648,0.1584567573878648
252.054,0.12000022015570266,0.12000022015570266
252.055,0.04857751167592972,0.04857751167592972
252.056,0.04054818911753988,-0.04054818911753988
252.057,0.12675533214793677,-0.12675533214793677
252.058,0.1896913890372942,-0.1896913890372942
252.059,0.21485859716731415,-0.21485859716731415
252.06,0.1975038144850123,-0.1975038144850123
252.061,0.14369440860980975,-0.14369440860980975
252.062,0.06833523566607125,-0.06833523566607125
252.063,0.009192894473990298,0.009192894473990298
252.064,0.07040949256207063,0.07040949256207063
252.065,0.10252661376278849,0.10252661376278849
252.066,0.10132516743133158,0.10132516743133158
252.067,0.07144147563657466,0.07144147563657466
252.068,0.024208179215930103,0.024208179215930103
252.069,0.026097425291840448,-0.026097425291840448
252.07,0.06635969575368927,-0.06635969575368927
252.071,0.08788035199603439,-0.08788035199603439
252.072,0.08797749926893617,-0.08797749926893617
252.073,0.06972060525930035,-0.06972060525930035
252.074,0.04017600246090036,-0.04017600246090036
252.075,0.007915677198622184,-0.007915677198622184
252.076,0.019378926105636518,0.019378926105636518
252.077,0.03658643764401193,0.03658643764401193
252.078,0.04182003334351991,0.04182003334351991
252.079,0.036206813178192965,0.036206813178192965
252.08,0.023109899021251934,0.023109899021251934
252.081,0.007175262600876087,0.007175262600876087
252.082,0.006537705068289434,-0.006537705068289434
252.083,0.013277816866024694,-0.013277816866024694
252.084,0.009262782477529541,-0.009262782477529541
252.085,0.007609533519767675,0.007609533519767675
252.086,0.03700073946591442,0.03700073946591442
252.087,0.0755096806084199,0.0755096806084199
252.088,0.116523318290507,0.116523318290507
252.089,0.15088008829093247,0.15088008829093247
252.09,0.1684984940989207,0.1684984940989207
252.091,0.16078551617776604,0.16078551617776604
252.092,0.1232691251105571,0.1232691251105571
252.093,0.057653349847207824,0.057653349847207824
252.094,0.027496477120608098,-0.027496477120608098
252.095,0.11792057448737625,-0.11792057448737625
252.096,0.19662322478943528,-0.19662322478943528
252.097,0.24795604312845843,-0.24795604312845843
252.098,0.26170343667737905,-0.26170343667737905
252.099,0.23592532724937165,-0.23592532724937165
252.1,0.17760160870945696,-0.17760160870945696
252.101,0.10076007795233133,-0.10076007795233133
252.102,0.022560629449971947,-0.022560629449971947
252.103,0.04150968374270936,0.04150968374270936
252.104,0.08184508124039325,0.08184508124039325
252.105,0.09699929919986583,0.09699929919986583
252.106,0.09330493590384292,0.09330493590384292
252.107,0.08197385186337791,0.08197385186337791
252.108,0.07466234511364833,0.07466234511364833
252.109,0.07901359971578037,0.07901359971578037
252.11,0.09571385963211076,0.09571385963211076
252.111,0.11809785005125129,0.11809785005125129
252.112,0.13447442444082114,0.13447442444082114
252.113,0.1324058702107329,0.1324058702107329
252.114,0.1034851362779563,0.1034851362779563
252.115,0.046955333032858704,0.046955333032858704
252.116,0.029119350711159786,-0.029119350711159786
252.117,0.10961097650784535,-0.10961097650784535
252.118,0.17650864107105313,-0.17650864107105313
252.119,0.214194986394194,-0.214194986394194
252.12,0.21411042975182715,-0.21411042975182715
252.121,0.17728990918314635,-0.17728990918314635
252.122,0.1139574291623856,-0.1139574291623856
252.123,0.040333442387006535,-0.040333442387006535
252.124,0.026279813422725118,0.026279813422725118
252.125,0.07252555189002119,0.07252555189002119
252.126,0.092522705909587,0.092522705909587
252.127,0.08882527516756245,0.08882527516756245
252.128,0.07061776245477791,0.07061776245477791
252.129,0.0498760351467904,0.0498760351467904
252.13,0.03687483943904568,0.03687483943904568
252.131,0.03659165604232495,0.03659165604232495
252.132,0.047197859541971754,0.047197859541971754
252.133,0.06107842457933854,0.06107842457933854
252.134,0.06794559893734431,0.06794559893734431
252.135,0.058909697903377856,0.058909697903377856
252.136,0.030072913339942664,0.030072913339942664
252.137,0.015593299256950188,-0.015593299256950188
252.138,0.06872196710943845,-0.06872196710943845
252.139,0.11621190218398891,-0.11621190218398891
252.14,0.14519364025248782,-0.14519364025248782
252.141,0.14701109002816637,-0.14701109002816637
252.142,0.11995682383129203,-0.11995682383129203
252.143,0.06992944483245667,-0.06992944483245667
252.144,0.008855833583743644,-0.008855833583743644
252.145,0.04858999092352456,0.04858999092352456
252.146,0.08895464107300866,0.08895464107300866
252.147,0.10349866167465738,0.10349866167465738
252.148,0.09026768262290763,0.09026768262290763
252.149,0.054267647302705946,0.054267647302705946
252.15,0.005836029047785463,0.005836029047785463
252.151,0.04221939660636309,-0.04221939660636309
252.152,0.0778777628727666,-0.0778777628727666
252.153,0.09271692180344471,-0.09271692180344471
252.154,0.08365362653332398,-0.08365362653332398
252.155,0.05332354451161769,-0.05332354451161769
252.156,0.009159967057078333,-0.009159967057078333
252.157,0.03850133482110296,0.03850133482110296
252.158,0.07881585949537562,0.07881585949537562
252.159,0.10281623960922293,0.10281623960922293
252.16,0.10533708534351138,0.10533708534351138
252.161,0.08612865208476417,0.08612865208476417
252.162,0.049941802173714134,0.049941802173714134
252.163,0.005526799661329962,0.005526799661329962
252.164,0.03632066231927067,-0.03632066231927067
252.165,0.06532142690259035,-0.06532142690259035
252.166,0.07434387231263839,-0.07434387231263839
252.167,0.06145125960988784,-0.06145125960988784
252.168,0.030747787777291258,-0.030747787777291258
252.169,0.008369743523509277,0.008369743523509277
252.17,0.04355122552876889,0.04355122552876889
252.171,0.06294012528743886,0.06294012528743886
252.172,0.058825656792950376,0.058825656792950376
252.173,0.030396951507799308,0.030396951507799308
252.174,0.015375589364943876,-0.015375589364943876
252.175,0.0652345014957777,-0.0652345014957777
252.176,0.10329862349927676,-0.10329862349927676
252.177,0.11595130298795109,-0.11595130298795109
252.178,0.0964920955299603,-0.0964920955299603
252.179,0.0480010621838064,-0.0480010621838064
252.18,0.016713699935009263,0.016713699935009263
252.181,0.07836647631337557,0.07836647631337557
252.182,0.11689065744855842,0.11689065744855842
252.183,0.11794423794588749,0.11794423794588749
252.184,0.07816203625905072,0.07816203625905072
252.185,0.007315762068389464,0.007315762068389464
252.186,0.07360357670732132,-0.07360357670732132
252.187,0.13811541114205206,-0.13811541114205206
252.188,0.16226225948615458,-0.16226225948615458
252.189,0.1325173697235812,-0.1325173697235812
252.19,0.05105718078649224,-0.05105718078649224
252.191,0.06346401772485177,0.06346401772485177
252.192,0.18019131177252912,0.18019131177252912
252.193,0.2643919072585097,0.2643919072585097
252.194,0.28749574978687287,0.28749574978687287
252.195,0.23587964013815044,0.23587964013815044
252.196,0.11568225281428024,0.11568225281428024
252.197,0.047943636991638394,-0.047943636991638394
252.198,0.21708838123487506,-0.21708838123487506
252.199,0.35113043879895955,-0.35113043879895955
252.2,0.4176816417026008,-0.4176816417026008
252.201,0.401253764286327,-0.401253764286327
252.202,0.30714740113626327,-0.30714740113626327
252.203,0.15950490334719558,-0.15950490334719558
252.204,0.005781363135681117,0.005781363135681117
252.205,0.15110339376225013,0.15110339376225013
252.206,0.247106804679323,0.247106804679323
252.207,0.2797224570883805,0.2797224570883805
252.208,0.2523967416699613,0.2523967416699613
252.209,0.18319577311422441,0.18319577311422441
252.21,0.09802528794232845,0.09802528794232845
252.211,0.02230726709406805,0.02230726709406805
252.212,0.02624056644156858,-0.02624056644156858
252.213,0.04162281321132266,-0.04162281321132266
252.214,0.029459840232822776,-0.029459840232822776
252.215,0.0032262107693418196,-0.0032262107693418196
252.216,0.021556584495456166,0.021556584495456166
252.217,0.03303587211616299,0.03303587211616299
252.218,0.02673615970831711,0.02673615970831711
252.219,0.006193890877366659,0.006193890877366659
252.22,0.019396674675247638,-0.019396674675247638
252.221,0.039401772241486555,-0.039401772241486555
252.222,0.046129852706225716,-0.046129852706225716
252.223,0.037738216197397256,-0.037738216197397256
252.224,0.01867027373241026,-0.01867027373241026
252.225,0.002402787988274202,0.002402787988274202
252.226,0.016231495344666058,0.016231495344666058
252.227,0.01676441590167399,0.01676441590167399
252.228,0.003586733733170089,0.003586733733170089
252.229,0.017902142613880345,-0.017902142613880345
252.23,0.038624106778383016,-0.038624106778383016
252.231,0.049447599407686726,-0.049447599407686726
252.232,0.04491852703482557,-0.04491852703482557
252.233,0.025667137648534566,-0.025667137648534566
252.234,0.0014579958654541425,0.0014579958654541425
252.235,0.025647891021344904,0.025647891021344904
252.236,0.03602371270705196,0.03602371270705196
252.237,0.02578919029947957,0.02578919029947957
252.238,0.004852530952418332,-0.004852530952418332
252.239,0.04811132912725935,-0.04811132912725935
252.24,0.0906526274874414,-0.0906526274874414
252.241,0.1176648152917088,-0.1176648152917088
252.242,0.1176409396964937,-0.1176409396964937
252.243,0.08630107031379075,-0.08630107031379075
252.244,0.028349200120122986,-0.028349200120122986
252.245,0.04353738592742529,0.04353738592742529
252.246,0.11218817412111814,0.11218817412111814
252.247,0.16079722990030687,0.16079722990030687
252.248,0.17764119032017445,0.17764119032017445
252.249,0.159214263829335,0.159214263829335
252.25,0.11087449609383282,0.11087449609383282
252.251,0.04490646602920001,0.04490646602920001
252.252,0.0232838497170319,-0.0232838497170319
252.253,0.07957987462831229,-0.07957987462831229
252.254,0.1147927676409739,-0.1147927676409739
252.255,0.12648106333531206,-0.12648106333531206
252.256,0.11855404858080576,-0.11855404858080576
252.257,0.09899745608077593,-0.09899745608077593
252.258,0.07663714425720147,-0.07663714425720147
252.259,0.05809372044537042,-0.05809372044537042
252.26,0.04592069463286108,-0.04592069463286108
252.261,0.03843881265203153,-0.03843881265203153
252.262,0.03116044633692039,-0.03116044633692039
252.263,0.01915750004030714,-0.01915750004030714
252.264,0.0005572788243297655,0.0005572788243297655
252.265,0.02751088836645832,0.02751088836645832
252.266,0.05763262295881555,0.05763262295881555
252.267,0.08450135522754842,0.08450135522754842
252.268,0.10148764543415245,0.10148764543415245
252.269,0.10400176764333047,0.10400176764333047
252.27,0.09104807499528889,0.09104807499528889
252.271,0.06555528688436185,0.06555528688436185
252.272,0.03339708133786767,0.03339708133786767
252.273,0.0014775328076588323,0.0014775328076588323
252.274,0.02442811397068989,-0.02442811397068989
252.275,0.041319783718171244,-0.041319783718171244
252.276,0.0495466578700785,-0.0495466578700785
252.277,0.052138620331932284,-0.052138620331932284
252.278,0.05316717959478123,-0.05316717959478123
252.279,0.05575182934061007,-0.05575182934061007
252.28,0.06045701050191843,-0.06045701050191843
252.281,0.06469710677269502,-0.06469710677269502
252.282,0.06342579321210995,-0.06342579321210995
252.283,0.05094484014881262,-0.05094484014881262
252.284,0.023271079054040467,-0.023271079054040467
252.285,0.019721793209571237,0.019721793209571237
252.286,0.07314417940014506,0.07314417940014506
252.287,0.1274032514590917,0.1274032514590917
252.288,0.1700447604655273,0.1700447604655273
252.289,0.18871676734750342,0.18871676734750342
252.29,0.17448947846517804,0.17448947846517804
252.291,0.12461997918959189,0.12461997918959189
252.292,0.04396271614153169,0.04396271614153169
252.293,0.055434077158356354,-0.055434077158356354
252.294,0.15653346716218608,-0.15653346716218608
252.295,0.2408287873832503,-0.2408287873832503
252.296,0.29234007424023734,-0.29234007424023734
252.297,0.30112146013701657,-0.30112146013701657
252.298,0.2654332624718907,-0.2654332624718907
252.299,0.19206748868697243,-0.19206748868697243
252.3,0.09477403370376836,-0.09477403370376836
252.301,0.00880367749415556,0.00880367749415556
252.302,0.10092789900848231,0.10092789900848231
252.303,0.16739630219871993,0.16739630219871993
252.304,0.20017748351873732,0.20017748351873732
252.305,0.1985057301133264,0.1985057301133264
252.306,0.1682868048599846,0.1682868048599846
252.307,0.12007939444964455,0.12007939444964455
252.308,0.06624041904000899,0.06624041904000899
252.309,0.017980693943864257,0.017980693943864257
252.31,0.01695945504696239,-0.01695945504696239
252.311,0.035515732032721514,-0.035515732032721514
252.312,0.03920783038328768,-0.03920783038328768
252.313,0.03291223389080711,-0.03291223389080711
252.314,0.02293613037138531,-0.02293613037138531
252.315,0.01496984109291477,-0.01496984109291477
252.316,0.012476593404874059,-0.012476593404874059
252.317,0.015916136389131252,-0.015916136389131252
252.318,0.022944580835703277,-0.022944580835703277
252.319,0.029459038579940144,-0.029459038579940144
252.32,0.031134406344500043,-0.031134406344500043
252.321,0.024984860400026898,-0.024984860400026898
252.322,0.010497398591904683,-0.010497398591904683
252.323,0.009982136430970012,0.009982136430970012
252.324,0.031718848453267556,0.031718848453267556
252.325,0.048790266651414615,0.048790266651414615
252.326,0.05570066616497793,0.05570066616497793
252.327,0.0489790224533011,0.0489790224533011
252.328,0.02832995452534881,0.02832995452534881
252.329,0.0029870960469329244,-0.0029870960469329244
252.33,0.038687925681741064,-0.038687925681741064
252.331,0.0708154085655408,-0.0708154085655408
252.332,0.09161503882997557,-0.09161503882997557
252.333,0.09548937998246865,-0.09548937998246865
252.334,0.080540881986088,-0.080540881986088
252.335,0.04928418675248469,-0.04928418675248469
252.336,0.008289017038005553,-0.008289017038005553
252.337,0.03323197983671555,0.03323197983671555
252.338,0.0656054198560978,0.0656054198560978
252.339,0.0811427024146576,0.0811427024146576
252.34,0.07623122318531439,0.07623122318531439
252.341,0.0524941846620437,0.0524941846620437
252.342,0.016639661761861824,0.016639661761861824
252.343,0.021061571352025688,-0.021061571352025688
252.344,0.04936405207804628,-0.04936405207804628
252.345,0.059079499464079976,-0.059079499464079976
252.346,0.045757198589256975,-0.045757198589256975
252.347,0.011250961011119776,-0.011250961011119776
252.348,0.0363385477491156,0.0363385477491156
252.349,0.08444125774805245,0.08444125774805245
252.35,0.11913460948290844,0.11913460948290844
252.351,0.1288183002093275,0.1288183002093275
252.352,0.10746118225944712,0.10746118225944712
252.353,0.056501930160615554,0.056501930160615554
252.354,0.015178326356465988,-0.015178326356465988
252.355,0.09327100796970145,-0.09327100796970145
252.356,0.16153991475030183,-0.16153991475030183
252.357,0.2058665337876271,-0.2058665337876271
252.358,0.217727109012391,-0.217727109012391
252.359,0.19613757931875953,-0.19613757931875953
252.36,0.14754097575430447,-0.14754097575430447
252.361,0.08371258380887747,-0.08371258380887747
252.362,0.018340056950537642,-0.018340056950537642
252.363,0.03668139701906359,0.03668139701906359
252.364,0.07413616583862459,0.07413616583862459
252.365,0.0927352560162864,0.0927352560162864
252.366,0.09643639520928171,0.09643639520928171
252.367,0.09217103650045466,0.09217103650045466
252.368,0.08681739084372864,0.08681739084372864
252.369,0.08448376999476404,0.08448376999476404
252.37,0.08503708696008738,0.08503708696008738
252.371,0.08436944462414431,0.08436944462414431
252.372,0.0762878476252824,0.0762878476252824
252.373,0.05534175049554779,0.05534175049554779
252.374,0.019563628820613133,0.019563628820613133
252.375,0.027893192328800942,-0.027893192328800942
252.376,0.07887605273736875,-0.07887605273736875
252.377,0.12217801550485119,-0.12217801550485119
252.378,0.14674253091939682,-0.14674253091939682
252.379,0.14511231482188103,-0.14511231482188103
252.38,0.11598801122470592,-0.11598801122470592
252.381,0.0650212453347927,-0.0650212453347927
252.382,0.0035226818730230702,-0.0035226818730230702
252.383,0.05456313079670916,0.05456313079670916
252.384,0.09650016166396558,0.09650016166396558
252.385,0.11423530692519646,0.11423530692519646
252.386,0.10643557747140076,0.10643557747140076
252.387,0.07848217700967042,0.07848217700967042
252.388,0.040472634563046395,0.040472634563046395
252.389,0.003915269203295102,0.003915269203295102
252.39,0.021798950690655405,-0.021798950690655405
252.391,0.0320228629171333,-0.0320228629171333
252.392,0.027783161487630936,-0.027783161487630936
252.393,0.014801675708335238,-0.014801675708335238
252.394,0.0010318336599138833,-0.0010318336599138833
252.395,0.0063889697548082935,0.0063889697548082935
252.396,0.003709103033064709,0.003709103033064709
252.397,0.008206716553231908,-0.008206716553231908
252.398,0.024361154605628932,-0.024361154605628932
252.399,0.03759776589666608,-0.03759776589666608
252.4,0.041332824676015734,-0.041332824676015734
252.401,0.03207017896501396,-0.03207017896501396
252.402,0.010819820865439977,-0.010819820865439977
252.403,0.017064168267132862,0.017064168267132862
252.404,0.043558625841030096,0.043558625841030096
252.405,0.06057468314240699,0.06057468314240699
252.406,0.0625985584817017,0.0625985584817017
252.407,0.048482158951578924,0.048482158951578924
252.408,0.021799814503427273,0.021799814503427273
252.409,0.01031934933615375,-0.01031934933615375
252.41,0.03946406820884163,-0.03946406820884163
252.411,0.05854582888862525,-0.05854582888862525
252.412,0.06388028989202743,-0.06388028989202743
252.413,0.05609542020534264,-0.05609542020534264
252.414,0.039630583328031155,-0.039630583328031155
252.415,0.021064679638968298,-0.021064679638968298
252.416,0.006882675972930463,-0.006882675972930463
252.417,0.0014380377212389606,-0.0014380377212389606
252.418,0.0057551466461241985,-0.0057551466461241985
252.419,0.017493610754532818,-0.017493610754532818
252.42,0.031987311104405225,-0.031987311104405225
252.421,0.0439203855146314,-0.0439203855146314
252.422,0.049027116326787135,-0.049027116326787135
252.423,0.045252034889038506,-0.045252034889038506
252.424,0.03304794202959327,-0.03304794202959327
252.425,0.014824360869775566,-0.014824360869775566
252.426,0.006139106211715539,0.006139106211715539
252.427,0.026838343515805496,0.026838343515805496
252.428,0.04530225851332559,0.04530225851332559
252.429,0.060713549100809505,0.060713549100809505
252.43,0.0729276000179011,0.0729276000179011
252.431,0.0816811652192484,0.0816811652192484
252.432,0.08591357402932553,0.08591357402932553
252.433,0.08357938675923182,0.08357938675923182
252.434,0.07213017306168212,0.07213017306168212
252.435,0.049560996540819025,0.049560996540819025
252.436,0.015661236131286005,0.015661236131286005
252.437,0.027022306600129387,-0.027022306600129387
252.438,0.07295560083639285,-0.07295560083639285
252.439,0.11435141305136276,-0.11435141305136276
252.44,0.14278358795141,-0.14278358795141
252.441,0.15129002499555289,-0.15129002499555289
252.442,0.13637555809950286,-0.13637555809950286
252.443,0.0993081376267837,-0.0993081376267837
252.444,0.04627357253467046,-0.04627357253467046
252.445,0.012735084323579393,0.012735084323579393
252.446,0.0660617385657114,0.0660617385657114
252.447,0.10303932260640503,0.10303932260640503
252.448,0.11647732839686098,0.11647732839686098
252.449,0.1043522570232347,0.1043522570232347
252.45,0.07027839258407642,0.07027839258407642
252.451,0.022652421980854376,0.022652421980854376
252.452,0.027301974061124556,-0.027301974061124556
252.453,0.06810230868550504,-0.06810230868550504
252.454,0.0905734332823821,-0.0905734332823821
252.455,0.08982484391826495,-0.08982484391826495
252.456,0.06621674337641414,-0.06621674337641414
252.457,0.02514275315175829,-0.02514275315175829
252.458,0.024271582849505924,0.024271582849505924
252.459,0.07122515978286104,0.07122515978286104
252.46,0.10557959115290605,0.10557959115290605
252.461,0.11997159894636567,0.11997159894636567
252.462,0.11126380548582837,0.11126380548582837
252.463,0.0810555990389683,0.0810555990389683
252.464,0.035183114493062995,0.035183114493062995
252.465,0.017647460071664844,-0.017647460071664844
252.466,0.06776863647033893,-0.06776863647033893
252.467,0.10656871357567943,-0.10656871357567943
252.468,0.1281696847441658,-0.1281696847441658
252.469,0.13040563446931674,-0.13040563446931674
252.47,0.1149130027318831,-0.1149130027318831
252.471,0.0863623829605914,-0.0863623829605914
252.472,0.051073391130278756,-0.051073391130278756
252.473,0.015403765383403267,-0.015403765383403267
252.474,0.015651959515290415,0.015651959515290415
252.475,0.03929635691778044,0.03929635691778044
252.476,0.055018281215625686,0.055018281215625686
252.477,0.06399230535613776,0.06399230535613776
252.478,0.0680569476817452,0.0680569476817452
252.479,0.06866641452979927,0.06866641452979927
252.48,0.06620572414411585,0.06620572414411585
252.481,0.0599207232850949,0.0599207232850949
252.482,0.048485258711937984,0.048485258711937984
252.483,0.03098367633463517,0.03098367633463517
252.484,0.007913282756932816,0.007913282756932816
252.485,0.01822600715199607,-0.01822600715199607
252.486,0.04306737040474584,-0.04306737040474584
252.487,0.061305641697140256,-0.061305641697140256
252.488,0.06819561553449183,-0.06819561553449183
252.489,0.061161109942620806,-0.061161109942620806
252.49,0.04096250386668099,-0.04096250386668099
252.491,0.011963173338487954,-0.011963173338487954
252.492,0.018704563649843964,0.018704563649843964
252.493,0.042923424418594536,0.042923424418594536
252.494,0.05384795833077716,0.05384795833077716
252.495,0.047965564143069184,0.047965564143069184
252.496,0.026308474442796825,0.026308474442796825
252.497,0.00560850962692494,-0.00560850962692494
252.498,0.03917373534686164,-0.03917373534686164
252.499,0.06502914035496887,-0.06502914035496887
252.5,0.0757171290345382,-0.0757171290345382
252.501,0.06784605500796625,-0.06784605500796625
252.502,0.04312591680132882,-0.04312591680132882
252.503,0.007956830494981304,-0.007956830494981304
252.504,0.02831697119235188,0.02831697119235188
252.505,0.055979514621890214,0.055979514621890214
252.506,0.06759554881038521,0.06759554881038521
252.507,0.059987003291847474,0.059987003291847474
252.508,0.03499392372581411,0.03499392372581411
252.509,0.0011496285571239717,-0.0011496285571239717
252.51,0.039589317522665035,-0.039589317522665035
252.511,0.07122327442972087,-0.07122327442972087
252.512,0.08898820746234415,-0.08898820746234415
252.513,0.08944787523209785,-0.08944787523209785
252.514,0.07331946576230408,-0.07331946576230408
252.515,0.04490351741240051,-0.04490351741240051
252.516,0.010689653500144947,-0.010689653500144947
252.517,0.022396165375186516,0.022396165375186516
252.518,0.04860201206871784,0.04860201206871784
252.519,0.06443046935027152,0.06443046935027152
252.52,0.0690080916557183,0.0690080916557183
252.521,0.06378484651421701,0.06378484651421701
252.522,0.05177185067975931,0.05177185067975931
252.523,0.03659756256338387,0.03659756256338387
252.524,0.021637674134826312,0.021637674134826312
252.525,0.009384333445961568,0.009384333445961568
252.526,0.001113754323361027,0.001113754323361027
252.527,0.003170187099055477,-0.003170187099055477
252.528,0.004574753645654295,-0.004574753645654295
252.529,0.004994568332045035,-0.004994568332045035
252.53,0.0066625839301335255,-0.0066625839301335255
252.531,0.011609298690676617,-0.011609298690676617
252.532,0.02108883601337319,-0.02108883601337319
252.533,0.035077299721552935,-0.035077299721552935
252.534,0.0519898421084366,-0.0519898421084366
252.535,0.06876351226786026,-0.06876351226786026
252.536,0.08138957369467203,-0.08138957369467203
252.537,0.08585420571544633,-0.08585420571544633
252.538,0.07929399848812646,-0.07929399848812646
252.539,0.06104819051174537,-0.06104819051174537
252.54,0.033250683763773936,-0.033250683763773936
252.541,0.0006863764338931322,-0.0006863764338931322
252.542,0.030167970696990842,0.030167970696990842
252.543,0.05273988031787624,0.05273988031787624
252.544,0.062178656808387966,0.062178656808387966
252.545,0.056850349099701214,0.056850349099701214
252.546,0.03900677108732831,0.03900677108732831
252.547,0.014340410132705594,0.014340410132705594
252.548,0.009528579914417246,-0.009528579914417246
252.549,0.02523690418989666,-0.02523690418989666
252.55,0.027890037661309153,-0.027890037661309153
252.551,0.01660466339725597,-0.01660466339725597
252.552,0.005140742513448426,0.005140742513448426
252.553,0.03051158245983787,0.03051158245983787
252.554,0.05141128331939582,0.05141128331939582
252.555,0.06103065819152653,0.06103065819152653
252.556,0.05604611426661199,0.05604611426661199
252.557,0.03774608137929203,0.03774608137929203
252.558,0.01169154227490199,0.01169154227490199
252.559,0.014016131612047511,-0.014016131612047511
252.56,0.03132951099204684,-0.03132951099204684
252.561,0.034885962585619934,-0.034885962585619934
252.562,0.023818629245569434,-0.023818629245569434
252.563,0.002141077031784122,-0.002141077031784122
252.564,0.022447154496861854,0.022447154496861854
252.565,0.04097556185139273,0.04097556185139273
252.566,0.04607830899021481,0.04607830899021481
252.567,0.03441215344518578,0.03441215344518578
252.568,0.007836920128547309,0.007836920128547309
252.569,0.02702937695082297,-0.02702937695082297
252.57,0.06075073498665129,-0.06075073498665129
252.571,0.08390315324403363,-0.08390315324403363
252.572,0.08990973685672587,-0.08990973685672587
252.573,0.07700200372250632,-0.07700200372250632
252.574,0.04871376010099526,-0.04871376010099526
252.575,0.012782325055848531,-0.012782325055848531
252.576,0.02117067634426828,0.02117067634426828
252.577,0.04444029631558566,0.04444029631558566
252.578,0.051660169141752865,0.051660169141752865
252.579,0.042137046065214845,0.042137046065214845
252.58,0.019757385981125752,0.019757385981125752
252.581,0.008418699555137299,-0.008418699555137299
252.582,0.0343668084333254,-0.0343668084333254
252.583,0.05139195635857363,-0.05139195635857363
252.584,0.05581845252215012,-0.05581845252215012
252.585,0.04763314814921216,-0.04763314814921216
252.586,0.030004636350653646,-0.030004636350653646
252.587,0.007958423329095576,-0.007958423329095576
252.588,0.013278716335167307,0.013278716335167307
252.589,0.029709268803820965,0.029709268803820965
252.59,0.03935918328159005,0.03935918328159005
252.591,0.04229018175690746,0.04229018175690746
252.592,0.039968589596806936,0.039968589596806936
252.593,0.034331030089080894,0.034331030089080894
252.594,0.026944151884882528,0.026944151884882528
252.595,0.018561257210880422,0.018561257210880422
252.596,0.009182384496568385,0.009182384496568385
252.597,0.001491327343709714,-0.001491327343709714
252.598,0.013469759794787817,-0.013469759794787817
252.599,0.02604720138110228,-0.02604720138110228
252.6,0.037743098955947296,-0.037743098955947296
252.601,0.04664741018359808,-0.04664741018359808
252.602,0.05103033420852143,-0.05103033420852143
252.603,0.04996201736835504,-0.04996201736835504
252.604,0.04368128438984131,-0.04368128438984131
252.605,0.03355397158219264,-0.03355397158219264
252.606,0.021628477102860755,-0.021628477102860755
252.607,0.009960600164737987,-0.009960600164737987
252.608,2.497868444728546e-05,2.497868444728546e-05
252.609,0.007882078250674551,0.007882078250674551
252.61,0.014061807206482646,0.014061807206482646
252.611,0.0194410832479881,0.0194410832479881
252.612,0.02466413163354253,0.02466413163354253
252.613,0.029587516400890523,0.029587516400890523
252.614,0.03309100544713117,0.03309100544713117
252.615,0.03337910915153386,0.03337910915153386
252.616,0.028700831814461703,0.028700831814461703
252.617,0.018232771264058423,0.018232771264058423
252.618,0.00277558651062626,0.00277558651062626
252.619,0.015051501772503917,-0.015051501772503917
252.62,0.03127373225275609,-0.03127373225275609
252.621,0.04160389091501582,-0.04160389091501582
252.622,0.042763701648768304,-0.042763701648768304
252.623,0.03364926687155845,-0.03364926687155845
252.624,0.015919764307514628,-0.015919764307514628
252.625,0.006247565159190893,0.006247565159190893
252.626,0.0272277552778053,0.0272277552778053
252.627,0.04155542090521802,0.04155542090521802
252.628,0.04558194498054169,0.04558194498054169
252.629,0.0386498076838524,0.0386498076838524
252.63,0.02338104574206379,0.02338104574206379
252.631,0.004945621389910171,0.004945621389910171
252.632,0.01050081601665076,-0.01050081601665076
252.633,0.017746483691592152,-0.017746483691592152
252.634,0.014224010671941012,-0.014224010671941012
252.635,0.0009399865673683783,-0.0009399865673683783
252.636,0.017680425474417616,0.017680425474417616
252.637,0.035016044514326605,0.035016044514326605
252.638,0.04419033196042954,0.04419033196042954
252.639,0.0401547554084527,0.0401547554084527
252.64,0.02128950494964088,0.02128950494964088
252.641,0.00996177490611072,-0.00996177490611072
252.642,0.0476174114375042,-0.0476174114375042
252.643,0.08369150683178994,-0.08369150683178994
252.644,0.11028833252824788,-0.11028833252824788
252.645,0.12165278863292517,-0.12165278863292517
252.646,0.11559926714639968,-0.11559926714639968
252.647,0.09393845651319,-0.09393845651319
252.648,0.06182413401915132,-0.06182413401915132
252.649,0.026254953509110557,-0.026254953509110557
252.65,0.005804569453907504,0.005804569453907504
252.651,0.02913874980169373,0.02913874980169373
252.652,0.04136957104717576,0.04136957104717576
252.653,0.04317160393490793,0.04317160393490793
252.654,0.03763612403259997,0.03763612403259997
252.655,0.0290511649978622,0.0290511649978622
252.656,0.021509017653488227,0.021509017653488227
252.657,0.01776250980541416,0.01776250980541416
252.658,0.018634218762401122,0.018634218762401122
252.659,0.02308504939271039,0.02308504939271039
252.66,0.02883808627020712,0.02883808627020712
252.661,0.033296482217551215,0.033296482217551215
252.662,0.03443428577712959,0.03443428577712959
252.663,0.031386002889773,0.031386002889773
252.664,0.024589071716289324,0.024589071716289324
252.665,0.015494196031021756,0.015494196031021756
252.666,0.005996447873080735,0.005996447873080735
252.667,0.002187620581888039,-0.002187620581888039
252.668,0.007982372741655808,-0.007982372741655808
252.669,0.011122667792330732,-0.011122667792330732
252.67,0.012017195689817517,-0.012017195689817517
252.671,0.011403462306020407,-0.011403462306020407
252.672,0.00995781118489758,-0.00995781118489758
252.673,0.008023910421851799,-0.008023910421851799
252.674,0.005562285522474619,-0.005562285522474619
252.675,0.0023274653583539306,-0.0023274653583539306
252.676,0.0018150412107582614,0.0018150412107582614
252.677,0.006577806841051803,0.006577806841051803
252.678,0.011093851805283217,0.011093851805283217
252.679,0.014004605431373385,0.014004605431373385
252.68,0.013794665897461478,0.013794665897461478
252.681,0.00927998940712449,0.00927998940712449
252.682,9.154422370127868e-05,9.154422370127868e-05
252.683,0.013015306807987015,-0.013015306807987015
252.684,0.028149659863692333,-0.028149659863692333
252.685,0.042607423641895514,-0.042607423641895514
252.686,0.053459484482518915,-0.053459484482518915
252.687,0.05825377811504562,-0.05825377811504562
252.688,0.05564034150262076,-0.05564034150262076
252.689,0.04574622198499945,-0.04574622198499945
252.69,0.030195390170591252,-0.030195390170591252
252.691,0.011765953974676058,-0.011765953974676058
252.692,0.006226326436078011,0.006226326436078011
252.693,0.02066055875027817,0.02066055875027817
252.694,0.029278537506201685,0.029278537506201685
252.695,0.031132659634374615,0.031132659634374615
252.696,0.026721785760221328,0.026721785760221328
252.697,0.017803072198317338,0.017803072198317338
252.698,0.006942556493658936,0.006942556493658936
252.699,0.003081166030577398,-0.003081166030577398
252.7,0.009886124192932555,-0.009886124192932555
252.701,0.01198583955678556,-0.01198583955678556
252.702,0.00908765042656634,-0.00908765042656634
252.703,0.002143910380083658,-0.002143910380083658
252.704,0.006846034961719205,0.006846034961719205
252.705,0.01524582007747366,0.01524582007747366
252.706,0.02033457159208174,0.02033457159208174
252.707,0.019908050214327844,0.019908050214327844
252.708,0.012819020117472046,0.012819020117472046
252.709,0.0006551340614715517,-0.0006551340614715517
252.71,0.018713447175047082,-0.018713447175047082
252.711,0.03825765257711389,-0.03825765257711389
252.712,0.0554382889103644,-0.0554382889103644
252.713,0.06643939327507453,-0.06643939327507453
252.714,0.06834817994447484,-0.06834817994447484
252.715,0.05990937439298416,-0.05990937439298416
252.716,0.041962915280548185,-0.041962915280548185
252.717,0.017418696220846686,-0.017418696220846686
252.718,0.00927302836671351,0.00927302836671351
252.719,0.033065350067318144,0.033065350067318144
252.72,0.04946006266505698,0.04946006266505698
252.721,0.0555678398652768,0.0555678398652768
252.722,0.05079831332541218,0.05079831332541218
252.723,0.036980697298895304,0.036980697298895304
252.724,0.01786621366067309,0.01786621366067309
252.725,0.0018620489466335544,-0.0018620489466335544
252.726,0.017800492169966264,-0.017800492169966264
252.727,0.026916383185437542,-0.026916383185437542
252.728,0.028209964276355803,-0.028209964276355803
252.729,0.022766138049969076,-0.022766138049969076
252.73,0.013201699717027116,-0.013201699717027116
252.731,0.0027019014305739164,-0.0027019014305739164
252.732,0.006032413172007756,0.006032413172007756
252.733,0.01158213764480176,0.01158213764480176
252.734,0.014096931558002401,0.014096931558002401
252.735,0.014993461160891508,0.014993461160891508
252.736,0.016190716242087788,0.016190716242087788
252.737,0.019171267141543602,0.019171267141543602
252.738,0.02422159350911901,0.02422159350911901
252.739,0.0301451569464235,0.0301451569464235
252.74,0.03457602233885737,0.03457602233885737
252.741,0.03480377592060879,0.03480377592060879
252.742,0.028827504068025922,0.028827504068025922
252.743,0.01625736385460108,0.01625736385460108
252.744,0.0012838548991925824,-0.0012838548991925824
252.745,0.02044591505911897,-0.02044591505911897
252.746,0.03707330854593405,-0.03707330854593405
252.747,0.04748300964365648,-0.04748300964365648
252.748,0.04967208802475831,-0.04967208802475831
252.749,0.04402811218726188,-0.04402811218726188
252.75,0.03326477766488556,-0.03326477766488556
252.751,0.021560808637260287,-0.021560808637260287
252.752,0.013157766016266725,-0.013157766016266725
252.753,0.010876003912232757,-0.010876003912232757
252.754,0.015062790209242394,-0.015062790209242394
252.755,0.023365737008754328,-0.023365737008754328
252.756,0.03146085809043919,-0.03146085809043919
252.757,0.03454132149496503,-0.03454132149496503
252.758,0.029098183612655926,-0.029098183612655926
252.759,0.014394410077241293,-0.014394410077241293
252.76,0.006900238078014542,0.006900238078014542
252.761,0.02919604169997303,0.02919604169997303
252.762,0.045516114082604586,0.045516114082604586
252.763,0.04964693837897438,0.04964693837897438
252.764,0.038248891443229516,0.038248891443229516
252.765,0.012242958795772418,0.012242958795772418
252.766,0.02301614404091512,-0.02301614404091512
252.767,0.05891096584357913,-0.05891096584357913
252.768,0.0857923715909521,-0.0857923715909521
252.769,0.095647166601177,-0.095647166601177
252.77,0.08442366234352028,-0.08442366234352028
252.771,0.05331802203763736,-0.05331802203763736
252.772,0.008620470121430746,-0.008620470121430746
252.773,0.03985805871281434,0.03985805871281434
252.774,0.0813404996405871,0.0813404996405871
252.775,0.10689473401182603,0.10689473401182603
252.776,0.11170751296539039,0.11170751296539039
252.777,0.09619428208616099,0.09619428208616099
252.778,0.06566584023496125,0.06566584023496125
252.779,0.028693243886295905,0.028693243886295905
252.78,0.005322216111544598,-0.005322216111544598
252.781,0.028663479481090826,-0.028663479481090826
252.782,0.03719781724683813,-0.03719781724683813
252.783,0.031176956042957005,-0.031176956042957005
252.784,0.014792474278108703,-0.014792474278108703
252.785,0.005297857031183684,0.005297857031183684
252.786,0.021984406587167493,0.021984406587167493
252.787,0.02966099239625697,0.02966099239625697
252.788,0.02559141687758082,0.02559141687758082
252.789,0.010372668664267115,0.010372668664267115
252.79,0.012535692767590034,-0.012535692767590034
252.791,0.0379833688160367,-0.0379833688160367
252.792,0.06060230519184906,-0.06060230519184906
252.793,0.07614698754333216,-0.07614698754333216
252.794,0.08236186864277939,-0.08236186864277939
252.795,0.07921323035830641,-0.07921323035830641
252.796,0.06852106491994481,-0.06852106491994481
252.797,0.053185097718063123,-0.053185097718063123
252.798,0.036278118932356995,-0.036278118932356995
252.799,0.020269569006633237,-0.020269569006633237
252.8,0.006561286549864875,-0.006561286549864875
252.801,0.004598395041993442,0.004598395041993442
252.802,0.013867120595093763,0.013867120595093763
252.803,0.022349378706261414,0.022349378706261414
252.804,0.03107755042347593,0.03107755042347593
252.805,0.04057197868463369,0.04057197868463369
252.806,0.0505779319840447,0.0505779319840447
252.807,0.060025934164062766,0.060025934164062766
252.808,0.06721347922791843,0.06721347922791843
252.809,0.07016689825852329,0.07016689825852329
252.81,0.06711258369682183,0.06711258369682183
252.811,0.05696567397224617,0.05696567397224617
252.812,0.03973269169006888,0.03973269169006888
252.813,0.016727267763216425,0.016727267763216425
252.814,0.009478609383601677,-0.009478609383601677
252.815,0.035397968554259474,-0.035397968554259474
252.816,0.05722980242536946,-0.05722980242536946
252.817,0.07160769569508019,-0.07160769569508019
252.818,0.07632932603931109,-0.07632932603931109
252.819,0.0708812027299095,-0.0708812027299095
252.82,0.0566061807964332,-0.0566061807964332
252.821,0.03644473348917332,-0.03644473348917332
252.822,0.014294921704811947,-0.014294921704811947
252.823,0.005852940887271396,0.005852940887271396
252.824,0.02077944176796742,0.02077944176796742
252.825,0.028664581478134776,0.028664581478134776
252.826,0.029317057399963264,0.029317057399963264
252.827,0.0239619357965839,0.0239619357965839
252.828,0.014682076522763765,0.014682076522763765
252.829,0.0037154459690547093,0.0037154459690547093
252.83,0.007151663273965214,-0.007151663273965214
252.831,0.01690147252403995,-0.01690147252403995
252.832,0.025232715280719686,-0.025232715280719686
252.833,0.032204575530163204,-0.032204575530163204
252.834,0.03776078053478771,-0.03776078053478771
252.835,0.041367236585296174,-0.041367236585296174
252.836,0.04195384969658045,-0.04195384969658045
252.837,0.038228643937023854,-0.038228643937023854
252.838,0.02927326767299865,-0.02927326767299865
252.839,0.015193438597648545,-0.015193438597648545
252.84,0.0024590947541649477,0.0024590947541649477
252.841,0.020725791805966898,0.020725791805966898
252.842,0.03582566894741923,0.03582566894741923
252.843,0.04416917978985846,0.04416917978985846
252.844,0.04350622770735302,0.04350622770735302
252.845,0.03382170929471684,0.03382170929471684
252.846,0.0176315379086065,0.0176315379086065
252.847,0.0004995747185488897,-0.0004995747185488897
252.848,0.015148716486421798,-0.015148716486421798
252.849,0.0216159668546948,-0.0216159668546948
252.85,0.017417838603393188,-0.017417838603393188
252.851,0.0032036734665681355,-0.0032036734665681355
252.852,0.01724122574299014,0.01724122574299014
252.853,0.03796608920950062,0.03796608920950062
252.854,0.052546303490129675,0.052546303490129675
252.855,0.055996906539546254,0.055996906539546254
252.856,0.046313996780397826,0.046313996780397826
252.857,0.025146144857657537,0.025146144857657537
252.858,0.002639121068684802,-0.002639121068684802
252.859,0.030379565655455854,-0.030379565655455854
252.86,0.05159646096238535,-0.05159646096238535
252.861,0.06190169108004606,-0.06190169108004606
252.862,0.060221067097743886,-0.060221067097743886
252.863,0.048935782259353466,-0.048935782259353466
252.864,0.03289494062746878,-0.03289494062746878
252.865,0.017626437753235802,-0.017626437753235802
252.866,0.0073473368928203,-0.0073473368928203
252.867,0.003454646863745414,-0.003454646863745414
252.868,0.004031508479064749,-0.004031508479064749
252.869,0.004574670617898846,-0.004574670617898846
252.87,0.000259146079200967,0.000259146079200967
252.871,0.014445118190272055,0.014445118190272055
252.872,0.038660347914982296,0.038660347914982296
252.873,0.06931792817758042,0.06931792817758042
252.874,0.09897062200331885,0.09897062200331885
252.875,0.11806716124056904,0.11806716124056904
252.876,0.11761065879758759,0.11761065879758759
252.877,0.09196131305721655,0.09196131305721655
252.878,0.04094369032153744,0.04094369032153744
252.879,0.029408024503235985,-0.029408024503235985
252.88,0.10775497329803474,-0.10775497329803474
252.881,0.17982644269319048,-0.17982644269319048
252.882,0.23165703321666253,-0.23165703321666253
252.883,0.2528380280754956,-0.2528380280754956
252.884,0.23893152935887674,-0.23893152935887674
252.885,0.19243558688042783,-0.19243558688042783
252.886,0.12209277100490978,-0.12209277100490978
252.887,0.04078066562407756,-0.04078066562407756
252.888,0.03741942982936153,0.03741942982936153
252.889,0.10020702373633239,0.10020702373633239
252.89,0.13938149697428037,0.13938149697428037
252.891,0.15201729716714252,0.15201729716714252
252.892,0.14036153695924858,0.14036153695924858
252.893,0.11065962921659467,0.11065962921659467
252.894,0.07135116159932697,0.07135116159932697
252.895,0.031156437688560024,0.031156437688560024
252.896,0.002505801111706285,-0.002505801111706285
252.897,0.02451660321462812,-0.02451660321462812
252.898,0.03243482397792141,-0.03243482397792141
252.899,0.02638746824591276,-0.02638746824591276
252.9,0.008677046883042272,-0.008677046883042272
252.901,0.01671898876500655,0.01671898876500655
252.902,0.044677140314335784,0.044677140314335784
252.903,0.0695071986665845,0.0695071986665845
252.904,0.08565464845803472,0.08565464845803472
252.905,0.08856707604826175,0.08856707604826175
252.906,0.07566052972200277,0.07566052972200277
252.907,0.047189762193417195,0.047189762193417195
252.908,0.006733027983257811,0.006733027983257811
252.909,0.038993748198341116,-0.038993748198341116
252.91,0.08115118845159086,-0.08115118845159086
252.911,0.11054763817570479,-0.11054763817570479
252.912,0.11983134937389317,-0.11983134937389317
252.913,0.10555920827263521,-0.10555920827263521
252.914,0.0695301622595561,-0.0695301622595561
252.915,0.0188921853786006,-0.0188921853786006
252.916,0.035172057382120814,0.035172057382120814
252.917,0.0799776708823059,0.0799776708823059
252.918,0.10450161005785841,0.10450161005785841
252.919,0.10234683904090103,0.10234683904090103
252.92,0.07365869415323156,0.07365869415323156
252.921,0.02538282360079891,0.02538282360079891
252.922,0.030308629199820136,-0.030308629199820136
252.923,0.07907860686683399,-0.07907860686683399
252.924,0.1081854442816873,-0.1081854442816873
252.925,0.10991830597475194,-0.10991830597475194
252.926,0.08374013540704295,-0.08374013540704295
252.927,0.03651137798726534,-0.03651137798726534
252.928,0.019299170854330416,0.019299170854330416
252.929,0.0689385531620954,0.0689385531620954
252.93,0.09931018509343548,0.09931018509343548
252.931,0.10243438292134477,0.10243438292134477
252.932,0.07747271391260613,0.07747271391260613
252.933,0.030777249328130196,0.030777249328130196
252.934,0.026004380189033283,-0.026004380189033283
252.935,0.07918495622371313,-0.07918495622371313
252.936,0.11670031920921631,-0.11670031920921631
252.937,0.13114106046725071,-0.13114106046725071
252.938,0.12133816658703189,-0.12133816658703189
252.939,0.09214070864531776,-0.09214070864531776
252.94,0.052564198703089704,-0.052564198703089704
252.941,0.012950492997325869,-0.012950492997325869
252.942,0.017971932109288824,0.017971932109288824
252.943,0.03526995833555313,0.03526995833555313
252.944,0.03865979175125389,0.03865979175125389
252.945,0.03190358548451844,0.03190358548451844
252.946,0.021069433321850628,0.021069433321850628
252.947,0.01229459887481954,0.01229459887481954
252.948,0.009789039471918004,0.009789039471918004
252.949,0.01467605785617554,0.01467605785617554
252.95,0.024950414353319683,0.024950414353319683
252.951,0.03645525986068621,0.03645525986068621
252.952,0.04446424329819276,0.04446424329819276
252.953,0.045301025425868335,0.045301025425868335
252.954,0.03747244158763574,0.03747244158763574
252.955,0.02200267245354426,0.02200267245354426
252.956,0.0019495358586496536,0.0019495358586496536
252.957,0.018645410170715748,-0.018645410170715748
252.958,0.03596349293441348,-0.03596349293441348
252.959,0.047361538767178524,-0.047361538767178524
252.96,0.05180063656693179,-0.05180063656693179
252.961,0.04970100143756251,-0.04970100143756251
252.962,0.042385113976664,-0.042385113976664
252.963,0.031399015473645875,-0.031399015473645875
252.964,0.01800478095837832,-0.01800478095837832
252.965,0.003025151211886512,-0.003025151211886512
252.966,0.012953434289955768,0.012953434289955768
252.967,0.029177061482921207,0.029177061482921207
252.968,0.044364959258825554,0.044364959258825554
252.969,0.056617972048790044,0.056617972048790044
252.97,0.06369919917607225,0.06369919917607225
252.971,0.06362480104086976,0.06362480104086976
252.972,0.05535794898110091,0.05535794898110091
252.973,0.03933464268226938,0.03933464268226938
252.974,0.017593919043584094,0.017593919043584094
252.975,0.006578582896691887,-0.006578582896691887
252.976,0.029407621990038213,-0.029407621990038213
252.977,0.04755028956712981,-0.04755028956712981
252.978,0.05888323055182065,-0.05888323055182065
252.979,0.06290219668257835,-0.06290219668257835
252.98,0.0606209428555704,-0.0606209428555704
252.981,0.054036341329551596,-0.054036341329551596
252.982,0.04537767720250907,-0.04537767720250907
252.983,0.036423064263431004,-0.036423064263431004
252.984,0.028121106404283447,-0.028121106404283447
252.985,0.020620617624166337,-0.020620617624166337
252.986,0.01364021947300087,-0.01364021947300087
252.987,0.006971849613284009,-0.006971849613284009
252.988,0.0008633813097702614,-0.0008633813097702614
252.989,0.003914126728323808,0.003914126728323808
252.99,0.006363559368693483,0.006363559368693483
252.991,0.005801089293199002,0.005801089293199002
252.992,0.002390479543701085,0.002390479543701085
252.993,0.0025985259006749972,-0.0025985259006749972
252.994,0.006984810823843057,-0.006984810823843057
252.995,0.008321130754106676,-0.008321130754106676
252.996,0.004791329990031512,-0.004791329990031512
252.997,0.003972183387897843,0.003972183387897843
252.998,0.016492405762725815,0.016492405762725815
252.999,0.029687317943240643,0.029687317943240643
253.0,0.03973361505211859,0.03973361505211859
253.001,0.04330048325160152,0.04330048325160152
253.002,0.03873323710485854,0.03873323710485854
253.003,0.026747483199400568,0.026747483199400568
253.004,0.01034074444073152,0.01034074444073152
253.005,0.006103568058203779,-0.006103568058203779
253.006,0.0182483041805509,-0.0182483041805509
253.007,0.02328376200009119,-0.02328376200009119
253.008,0.020922342152848716,-0.020922342152848716
253.009,0.013518072267080128,-0.013518072267080128
253.01,0.005221827419357505,-0.005221827419357505
253.011,0.0004327761334017577,-0.0004327761334017577
253.012,0.0020802124865252347,-0.0020802124865252347
253.013,0.010362624270089604,-0.010362624270089604
253.014,0.02243903917380452,-0.02243903917380452
253.015,0.03324808888034336,-0.03324808888034336
253.016,0.037229962197380284,-0.037229962197380284
253.017,0.030386879572680492,-0.030386879572680492
253.018,0.011964389263967146,-0.011964389263967146
253.019,0.014868089892166036,0.014868089892166036
253.02,0.043637750627917304,0.043637750627917304
253.021,0.06634980777902033,0.06634980777902033
253.022,0.07588263386409788,0.07588263386409788
253.023,0.06822061084967879,0.06822061084967879
253.024,0.043783535759801095,0.043783535759801095
253.025,0.007403376029341491,0.007403376029341491
253.026,0.03304994321733157,-0.03304994321733157
253.027,0.06893864097783964,-0.06893864097783964
253.028,0.09327154727086595,-0.09327154727086595
253.029,0.10247706500027709,-0.10247706500027709
253.03,0.09698865883665153,-0.09698865883665153
253.031,0.08052467592006507,-0.08052467592006507
253.032,0.05840531476823996,-0.05840531476823996
253.033,0.03557658528022878,-0.03557658528022878
253.034,0.01508543722809741,-0.01508543722809741
253.035,0.002454106990304572,0.002454106990304572
253.036,0.01826954874054576,0.01826954874054576
253.037,0.034032274300261456,0.034032274300261456
253.038,0.050300340543276256,0.050300340543276256
253.039,0.06552165741244376,0.06552165741244376
253.04,0.07610213099006269,0.07610213099006269
253.041,0.07761447005456712,0.07761447005456712
253.042,0.06674081316092018,0.06674081316092018
253.043,0.04319278508808977,0.04319278508808977
253.044,0.010780093378454314,0.010780093378454314
253.045,0.022951303342525597,-0.022951303342525597
253.046,0.048592733484475126,-0.048592733484475126
253.047,0.05776608973580988,-0.05776608973580988
253.048,0.04610636567388271,-0.04610636567388271
253.049,0.015271598764108885,-0.015271598764108885
253.05,0.026836518802586085,0.026836518802586085
253.051,0.06790041758551468,0.06790041758551468
253.052,0.09463183069185699,0.09463183069185699
253.053,0.09681782491091173,0.09681782491091173
253.054,0.07068124333905557,0.07068124333905557
253.055,0.02042440221767783,0.02042440221767783
253.056,0.042629340732423526,-0.042629340732423526
253.057,0.10311688596765256,-0.10311688596765256
253.058,0.14602963760123244,-0.14602963760123244
253.059,0.1610624566715113,-0.1610624566715113
253.06,0.14555081714050955,-0.14555081714050955
253.061,0.10507213297191043,-0.10507213297191043
253.062,0.05153789773557349,-0.05153789773557349
253.063,0.0005867438550692938,0.0005867438550692938
253.064,0.03870102506484119,0.03870102506484119
253.065,0.05570272513832708,0.05570272513832708
253.066,0.051702948004537674,0.051702948004537674
253.067,0.03334431066465049,0.03334431066465049
253.068,0.011049947847523667,0.011049947847523667
253.069,0.00479243078355851,-0.00479243078355851
253.07,0.007385594924240402,-0.007385594924240402
253.071,0.004372405696350556,0.004372405696350556
253.072,0.025884595365678775,0.025884595365678775
253.073,0.04885684066932683,0.04885684066932683
253.074,0.06451707462997325,0.06451707462997325
253.075,0.06686533528033545,0.06686533528033545
253.076,0.05479536414399755,0.05479536414399755
253.077,0.032363105124701974,0.032363105124701974
253.078,0.007157824617188391,0.007157824617188391
253.079,0.012587396921979743,-0.012587396921979743
253.08,0.02106862716683866,-0.02106862716683866
253.081,0.017042759218846792,-0.017042759218846792
253.082,0.004249134188612058,-0.004249134188612058
253.083,0.010020892008748117,0.010020892008748117
253.084,0.01767800887958426,0.01767800887958426
253.085,0.012909813359516242,0.012909813359516242
253.086,0.005537736548694716,-0.005537736548694716
253.087,0.03369898018735884,-0.03369898018735884
253.088,0.06359393912327538,-0.06359393912327538
253.089,0.08588332150714251,-0.08588332150714251
253.09,0.09304480145199923,-0.09304480145199923
253.091,0.08196265112398093,-0.08196265112398093
253.092,0.055034396538187424,-0.055034396538187424
253.093,0.019421427281482773,-0.019421427281482773
253.094,0.015282852116585977,0.015282852116585977
253.095,0.040152375390209105,0.040152375390209105
253.096,0.049731836214648606,0.049731836214648606
253.097,0.0436061395033942,0.0436061395033942
253.098,0.026245039307511542,0.026245039307511542
253.099,0.00523717771270249,0.00523717771270249
253.1,0.011424702885507898,-0.011424702885507898
253.101,0.018045005787326707,-0.018045005787326707
253.102,0.012994239605928493,-0.012994239605928493
253.103,0.0010120596709535246,0.0010120596709535246
253.104,0.018141714018700572,0.018141714018700572
253.105,0.0316755335250114,0.0316755335250114
253.106,0.036409562519037264,0.036409562519037264
253.107,0.030385084720039535,0.030385084720039535
253.108,0.01538407023976629,0.01538407023976629
253.109,0.0039050082385782003,-0.0039050082385782003
253.11,0.021669839635141908,-0.021669839635141908
253.111,0.033010748129184475,-0.033010748129184475
253.112,0.03549098611103252,-0.03549098611103252
253.113,0.029687014189570426,-0.029687014189570426
253.114,0.01862612623526816,-0.01862612623526816
253.115,0.006417903174009809,-0.006417903174009809
253.116,0.0033344195369453544,0.0033344195369453544
253.117,0.0087156330306144,0.0087156330306144
253.118,0.009849341616572804,0.009849341616572804
253.119,0.008353292169419602,0.008353292169419602
253.12,0.0062050006790201895,0.0062050006790201895
253.121,0.004558372240377917,0.004558372240377917
253.122,0.003060393941916484,0.003060393941916484
253.123,2.7912553363096393e-06,-2.7912553363096393e-06
253.124,0.006760989682277896,-0.006760989682277896
253.125,0.01840315322889019,-0.01840315322889019
253.126,0.03400448925046562,-0.03400448925046562
253.127,0.05010605459287165,-0.05010605459287165
253.128,0.061353356305540174,-0.061353356305540174
253.129,0.06209616498019821,-0.06209616498019821
253.13,0.04845553122622581,-0.04845553122622581
253.131,0.02012858988874866,-0.02012858988874866
253.132,0.018775044072475433,0.018775044072475433
253.133,0.06028450539654151,0.06028450539654151
253.134,0.09446680955483822,0.09446680955483822
253.135,0.11216082645111203,0.11216082645111203
253.136,0.10771313698360285,0.10771313698360285
253.137,0.08083445539333489,0.08083445539333489
253.138,0.03694402604889868,0.03694402604889868
253.139,0.01416215726329173,-0.01416215726329173
253.14,0.06094965034990829,-0.06094965034990829
253.141,0.09329982859829766,-0.09329982859829766
253.142,0.10522250447110448,-0.10522250447110448
253.143,0.09631133458603147,-0.09631133458603147
253.144,0.07152915692418393,-0.07152915692418393
253.145,0.03943895191226965,-0.03943895191226965
253.146,0.009476251549079384,-0.009476251549079384
253.147,0.010863964037245433,0.010863964037245433
253.148,0.018062104242580368,0.018062104242580368
253.149,0.01324941399133217,0.01324941399133217
253.15,0.0013969252938053067,0.0013969252938053067
253.151,0.010637420843545908,-0.010637420843545908
253.152,0.01652144777507558,-0.01652144777507558
253.153,0.012536737640014062,-0.012536737640014062
253.154,0.0012914183857759554,0.0012914183857759554
253.155,0.021315360178195686,0.021315360178195686
253.156,0.04152292841505112,0.04152292841505112
253.157,0.055475247359861424,0.055475247359861424
253.158,0.0582942346118831,0.0582942346118831
253.159,0.048103908881488966,0.048103908881488966
253.16,0.026541345189612153,0.026541345189612153
253.161,0.0017410366391963361,-0.0017410366391963361
253.162,0.03036412072721617,-0.03036412072721617
253.163,0.05288586701513387,-0.05288586701513387
253.164,0.06437012248680041,-0.06437012248680041
253.165,0.06247445647767047,-0.06247445647767047
253.166,0.04784620640704984,-0.04784620640704984
253.167,0.023815752759332565,-0.023815752759332565
253.168,0.004459846166697812,0.004459846166697812
253.169,0.031156801461267758,0.031156801461267758
253.17,0.05098480520403581,0.05098480520403581
253.171,0.06020289739575424,0.06020289739575424
253.172,0.05729188284092812,0.05729188284092812
253.173,0.0431928775584598,0.0431928775584598
253.174,0.021083931250611254,0.021083931250611254
253.175,0.004273686909553764,-0.004273686909553764
253.176,0.027523248929523403,-0.027523248929523403
253.177,0.04386760628325248,-0.04386760628325248
253.178,0.050161901207275594,-0.050161901207275594
253.179,0.04568500293297495,-0.04568500293297495
253.18,0.03236244262539134,-0.03236244262539134
253.181,0.014320363614648945,-0.014320363614648945
253.182,0.003180626248687979,0.003180626248687979
253.183,0.01519273129767984,0.01519273129767984
253.184,0.01852124172677505,0.01852124172677505
253.185,0.01272201539957396,0.01272201539957396
253.186,0.0003092499634544943,0.0003092499634544943
253.187,0.013957009691406896,-0.013957009691406896
253.188,0.024547329767016568,-0.024547329767016568
253.189,0.02698034433764751,-0.02698034433764751
253.19,0.019406928370053422,-0.019406928370053422
253.191,0.00341600121256469,-0.00341600121256469
253.192,0.01626544852962053,0.01626544852962053
253.193,0.033157396589434285,0.033157396589434285
253.194,0.04110698912672839,0.04110698912672839
253.195,0.03640997176733762,0.03640997176733762
253.196,0.019259696364906986,0.019259696364906986
253.197,0.006010136849729841,-0.006010136849729841
253.198,0.03204948031180688,-0.03204948031180688
253.199,0.05069238408736765,-0.05069238408736765
253.2,0.05556528979001285,-0.05556528979001285
253.201,0.04426193089104857,-0.04426193089104857
253.202,0.019345772316804344,-0.019345772316804344
253.203,0.012204006727285721,0.012204006727285721
253.204,0.040988502524824444,0.040988502524824444
253.205,0.05803348161458888,0.05803348161458888
253.206,0.05759095936470926,0.05759095936470926
253.207,0.03899608104430041,0.03899608104430041
253.208,0.006964965771926179,0.006964965771926179
253.209,0.029784573939294012,-0.029784573939294012
253.21,0.061164517732868906,-0.061164517732868906
253.211,0.07876625512664537,-0.07876625512664537
253.212,0.07835696311844698,-0.07835696311844698
253.213,0.06103371145806458,-0.06103371145806458
253.214,0.03268854033765467,-0.03268854033765467
253.215,0.001992222097690899,-0.001992222097690899
253.216,0.02241487616065818,0.02241487616065818
253.217,0.03459034173066322,0.03459034173066322
253.218,0.03295060193145649,0.03295060193145649
253.219,0.020418211093670813,0.020418211093670813
253.22,0.0030705428187205452,0.0030705428187205452
253.221,0.0121892302253368,-0.0121892302253368
253.222,0.020100843162557336,-0.020100843162557336
253.223,0.018794929423664675,-0.018794929423664675
253.224,0.010235489137077614,-0.010235489137077614
253.225,0.0007544055296482277,0.0007544055296482277
253.226,0.008491155768418857,0.008491155768418857
253.227,0.008703687896428836,0.008703687896428836
253.228,0.0002445145869849341,0.0002445145869849341
253.229,0.014385775528296896,-0.014385775528296896
253.23,0.02989158963581018,-0.02989158963581018
253.231,0.04010347871475084,-0.04010347871475084
253.232,0.040268580861506864,-0.040268580861506864
253.233,0.028872211864686026,-0.028872211864686026
253.234,0.008313666792648888,-0.008313666792648888
253.235,0.015834336602681187,0.015834336602681187
253.236,0.03674402526665976,0.03674402526665976
253.237,0.04875819447773155,0.04875819447773155
253.238,0.049452177594691005,0.049452177594691005
253.239,0.040567532122431915,0.040567532122431915
253.24,0.027434257122792793,0.027434257122792793
253.241,0.017026854310935757,0.017026854310935757
253.242,0.015293602270050055,0.015293602270050055
253.243,0.02468510868846474,0.02468510868846474
253.244,0.042782685488538474,0.042782685488538474
253.245,0.06258930675588226,0.06258930675588226
253.246,0.07450203913824383,0.07450203913824383
253.247,0.06941281996542115,0.06941281996542115
253.248,0.04197517081694846,0.04197517081694846
253.249,0.007031837066516555,-0.007031837066516555
253.25,0.07007160810656321,-0.07007160810656321
253.251,0.1342639472628523,-0.1342639472628523
253.252,0.1845278785086284,-0.1845278785086284
253.253,0.207589062977676,-0.207589062977676
253.254,0.1956978262422555,-0.1956978262422555
253.255,0.14896469504949572,-0.14896469504949572
253.256,0.07561450125382219,-0.07561450125382219
253.257,0.009933921333611373,0.009933921333611373
253.258,0.09062399435554513,0.09062399435554513
253.259,0.1509502882070275,0.1509502882070275
253.26,0.18061612783191272,0.18061612783191272
253.261,0.1766813107530283,0.1766813107530283
253.262,0.14368756111786807,0.14368756111786807
253.263,0.09184769857906927,0.09184769857906927
253.264,0.03393088603242078,0.03393088603242078
253.265,0.018190788253064527,-0.018190788253064527
253.266,0.05633974035723788,-0.05633974035723788
253.267,0.07744728214614571,-0.07744728214614571
253.268,0.08332551316222314,-0.08332551316222314
253.269,0.07905116103513887,-0.07905116103513887
253.27,0.07061584879614013,-0.07061584879614013
253.271,0.06266671309621008,-0.06266671309621008
253.272,0.057061237423810085,-0.057061237423810085
253.273,0.05263793044076748,-0.05263793044076748
253.274,0.04617472803677458,-0.04617472803677458
253.275,0.03411248496678487,-0.03411248496678487
253.276,0.0143861655775539,-0.0143861655775539
253.277,0.012300945542472519,0.012300945542472519
253.278,0.042212569274604705,0.042212569274604705
253.279,0.0694233104294757,0.0694233104294757
253.28,0.08749530291975605,0.08749530291975605
253.281,0.09143802085640718,0.09143802085640718
253.282,0.07931400715438897,0.07931400715438897
253.283,0.05297404341426315,0.05297404341426315
253.284,0.01768900057607814,0.01768900057607814
253.285,0.0192039029936103,-0.0192039029936103
253.286,0.05021965035868636,-0.05021965035868636
253.287,0.06962727817805003,-0.06962727817805003
253.288,0.07478094758418685,-0.07478094758418685
253.289,0.06652540144966523,-0.06652540144966523
253.29,0.04862118701192297,-0.04862118701192297
253.291,0.026435728623241395,-0.026435728623241395
253.292,0.00535127071933772,-0.00535127071933772
253.293,0.010610882105767994,0.010610882105767994
253.294,0.019565161001999565,0.019565161001999565
253.295,0.021781234615355416,0.021781234615355416
253.296,0.01905595023621598,0.01905595023621598
253.297,0.01374874153099448,0.01374874153099448
253.298,0.007869947394329113,0.007869947394329113
253.299,0.0025452233931220203,0.0025452233931220203
253.3,0.001999762152534945,-0.001999762152534945
253.301,0.00601080369439444,-0.00601080369439444
253.302,0.00958755178099302,-0.00958755178099302
253.303,0.012200979534754297,-0.012200979534754297
253.304,0.012605578639616644,-0.012605578639616644
253.305,0.009233053616415465,-0.009233053616415465
253.306,0.0009398737821025849,-0.0009398737821025849
253.307,0.012191010081675557,0.012191010081675557
253.308,0.028353716730840972,0.028353716730840972
253.309,0.0441055725691577,0.0441055725691577
253.31,0.05511243239208552,0.05511243239208552
253.311,0.057379837986241355,0.057379837986241355
253.312,0.04858926483453696,0.04858926483453696
253.313,0.02907503423758606,0.02907503423758606
253.314,0.0020577399212087233,0.0020577399212087233
253.315,0.027023346814235016,-0.027023346814235016
253.316,0.05193548070037646,-0.05193548070037646
253.317,0.06741971603654395,-0.06741971603654395
253.318,0.07074012068399105,-0.07074012068399105
253.319,0.062496353356239376,-0.062496353356239376
253.32,0.046404276348901985,-0.046404276348901985
253.321,0.028085256249474666,-0.028085256249474666
253.322,0.013241499340625018,-0.013241499340625018
253.323,0.005814838060987149,-0.005814838060987149
253.324,0.006748417157553699,-0.006748417157553699
253.325,0.01377948054358269,-0.01377948054358269
253.326,0.022345916019941292,-0.022345916019941292
253.327,0.02730470762452908,-0.02730470762452908
253.328,0.024870167202725835,-0.024870167202725835
253.329,0.014088561370106834,-0.014088561370106834
253.33,0.0026880350709292955,0.0026880350709292955
253.331,0.020525942828818478,0.020525942828818478
253.332,0.03360934805160354,0.03360934805160354
253.333,0.037337544081526675,0.037337544081526675
253.334,0.03008053036299918,0.03008053036299918
253.335,0.013948140976388634,0.013948140976388634
253.336,0.005745609311490707,-0.005745609311490707
253.337,0.022190017196366152,-0.022190017196366152
253.338,0.029402883954071535,-0.029402883954071535
253.339,0.02437766511702477,-0.02437766511702477
253.34,0.008286305751412315,-0.008286305751412315
253.341,0.01372851628491456,0.01372851628491456
253.342,0.03416289955344132,0.03416289955344132
253.343,0.04566375503728981,0.04566375503728981
253.344,0.0436089555573691,0.0436089555573691
253.345,0.027863149158089184,0.027863149158089184
253.346,0.003065460023401023,0.003065460023401023
253.347,0.022715074758289155,-0.022715074758289155
253.348,0.04056765241847382,-0.04056765241847382
253.349,0.043744115598093214,-0.043744115598093214
253.35,0.030081081939224874,-0.030081081939224874
253.351,0.003003029561273629,-0.003003029561273629
253.352,0.029282049607151084,0.029282049607151084
253.353,0.056192631560774586,0.056192631560774586
253.354,0.06805103216051567,0.06805103216051567
253.355,0.05918784567257829,0.05918784567257829
253.356,0.029869687180571702,0.029869687180571702
253.357,0.01358650841718445,-0.01358650841718445
253.358,0.06057071233983269,-0.06057071233983269
253.359,0.09926634520229383,-0.09926634520229383
253.36,0.1200995905905754,-0.1200995905905754
253.361,0.11847536317339713,-0.11847536317339713
253.362,0.09596275584915626,-0.09596275584915626
253.363,0.059598255385810095,-0.059598255385810095
253.364,0.019577798389376233,-0.019577798389376233
253.365,0.013889932425429352,0.013889932425429352
253.366,0.03355811431806344,0.03355811431806344
253.367,0.037028614701745566,0.037028614701745566
253.368,0.027022574558261958,0.027022574558261958
253.369,0.0100482477241286,0.0100482477241286
253.37,0.006007857066765765,-0.006007857066765765
253.371,0.014525108051857583,-0.014525108051857583
253.372,0.012163789705983086,-0.012163789705983086
253.373,0.0003506539781534812,0.0003506539781534812
253.374,0.018830294286691807,0.018830294286691807
253.375,0.037301606141328714,0.037301606141328714
253.376,0.050111390347609586,0.050111390347609586
253.377,0.05372509411426374,0.05372509411426374
253.378,0.04764657666073768,0.04764657666073768
253.379,0.03423737811503247,0.03423737811503247
253.38,0.017612332464918223,0.017612332464918223
253.381,0.002093551751591649,0.002093551751591649
253.382,0.009185505219717172,-0.009185505219717172
253.383,0.015046114855681969,-0.015046114855681969
253.384,0.016199004099187175,-0.016199004099187175
253.385,0.014477830808838577,-0.014477830808838577
253.386,0.011759970804452125,-0.011759970804452125
253.387,0.009055072982778745,-0.009055072982778745
253.388,0.006140564200141196,-0.006140564200141196
253.389,0.0018761140877654459,-0.0018761140877654459
253.39,0.004962848496073091,0.004962848496073091
253.391,0.014713776734120998,0.014713776734120998
253.392,0.026164009009527422,0.026164009009527422
253.393,0.03652680389825824,0.03652680389825824
253.394,0.042136391237313386,0.042136391237313386
253.395,0.03965307589379852,0.03965307589379852
253.396,0.027353503129271983,0.027353503129271983
253.397,0.006021925619804858,0.006021925619804858
253.398,0.020919545396975048,-0.020919545396975048
253.399,0.048143288369930315,-0.048143288369930315
253.4,0.06980863778335189,-0.06980863778335189
253.401,0.08117519999262757,-0.08117519999262757
253.402,0.07991441721893144,-0.07991441721893144
253.403,0.06669687995153861,-0.06669687995153861
253.404,0.04487973236879561,-0.04487973236879561
253.405,0.01942283959287794,-0.01942283959287794
253.406,0.004584493569173453,0.004584493569173453
253.407,0.02329089864504441,0.02329089864504441
253.408,0.03491141404912579,0.03491141404912579
253.409,0.03979458657962076,0.03979458657962076
253.41,0.03978416922785044,0.03978416922785044
253.411,0.037175347595118424,0.037175347595118424
253.412,0.03368838246757644,0.03368838246757644
253.413,0.029844925452180426,0.029844925452180426
253.414,0.02495459721097637,0.02495459721097637
253.415,0.01767306937790525,0.01767306937790525
253.416,0.006872196500888661,0.006872196500888661
253.417,0.007550594309768788,-0.007550594309768788
253.418,0.024263369031027437,-0.024263369031027437
253.419,0.04066838187768507,-0.04066838187768507
253.42,0.053598701919002956,-0.053598701919002956
253.421,0.060289484417986094,-0.060289484417986094
253.422,0.059266901600064426,-0.059266901600064426
253.423,0.050830938949647075,-0.050830938949647075
253.424,0.036962689058340215,-0.036962689058340215
253.425,0.02070122677166153,-0.02070122677166153
253.426,0.005227051101062363,-0.005227051101062363
253.427,0.007013696601584352,0.007013696601584352
253.428,0.014841901099575283,0.014841901099575283
253.429,0.018377937079173456,0.018377937079173456
253.43,0.018616495379708997,0.018616495379708997
253.431,0.016761561714267126,0.016761561714267126
253.432,0.013622082241020461,0.013622082241020461
253.433,0.009328102277846861,0.009328102277846861
253.434,0.003480696678912265,0.003480696678912265
253.435,0.004343745771006269,-0.004343745771006269
253.436,0.013975478331109237,-0.013975478331109237
253.437,0.02422374858999432,-0.02422374858999432
253.438,0.0328814294066736,-0.0328814294066736
253.439,0.037236683657363545,-0.037236683657363545
253.44,0.03495726579136138,-0.03495726579136138
253.441,0.025043050994758342,-0.025043050994758342
253.442,0.008480189179546294,-0.008480189179546294
253.443,0.011694416963575538,0.011694416963575538
253.444,0.031018304276933195,0.031018304276933195
253.445,0.04477677754833809,0.04477677754833809
253.446,0.04937765102582725,0.04937765102582725
253.447,0.04348764943826855,0.04348764943826855
253.448,0.02854699214235623,0.02854699214235623
253.449,0.00846872201522264,0.00846872201522264
253.45,0.011410064153986932,-0.011410064153986932
253.451,0.025815365190052786,-0.025815365190052786
253.452,0.03101016788158195,-0.03101016788158195
253.453,0.025809728242962682,-0.025809728242962682
253.454,0.011843554683011792,-0.011843554683011792
253.455,0.0069886170859889685,0.0069886170859889685
253.456,0.025669111141853662,0.025669111141853662
253.457,0.03944921874010965,0.03944921874010965
253.458,0.045050214346966655,0.045050214346966655
253.459,0.04134825738624537,0.04134825738624537
253.46,0.029401483597947697,0.029401483597947697
253.461,0.011894344834834536,0.011894344834834536
253.462,0.007755600171907129,-0.007755600171907129
253.463,0.02631273302415471,-0.02631273302415471
253.464,0.041387533963323286,-0.041387533963323286
253.465,0.05170611912320877,-0.05170611912320877
253.466,0.057000656620970314,-0.057000656620970314
253.467,0.05766423160438816,-0.05766423160438816
253.468,0.054366940714048795,-0.054366940714048795
253.469,0.04779751948217126,-0.04779751948217126
253.47,0.03860034297054915,-0.03860034297054915
253.471,0.027467590425476418,-0.027467590425476418
253.472,0.015269726305859765,-0.015269726305859765
253.473,0.00309567854546855,-0.00309567854546855
253.474,0.007871093219752545,0.007871093219752545
253.475,0.016620708053428412,0.016620708053428412
253.476,0.022621120681373785,0.022621120681373785
253.477,0.026010215540187565,0.026010215540187565
253.478,0.0275566006613559,0.0275566006613559
253.479,0.028360003879038587,0.028360003879038587
253.48,0.029377142711762172,0.029377142711762172
253.481,0.03094985243070414,0.03094985243070414
253.482,0.03253719702240754,0.03253719702240754
253.483,0.032795278074619905,0.032795278074619905
253.484,0.030023817716307244,0.030023817716307244
253.485,0.022852158623959618,0.022852158623959618
253.486,0.010926022316565032,0.010926022316565032
253.487,0.004672734726964278,-0.004672734726964278
253.488,0.02146986008165186,-0.02146986008165186
253.489,0.03615015407791711,-0.03615015407791711
253.49,0.045478974246530246,-0.045478974246530246
253.491,0.047310247074480505,-0.047310247074480505
253.492,0.04134327767236867,-0.04134327767236867
253.493,0.029353053918630745,-0.029353053918630745
253.494,0.014781306341662193,-0.014781306341662193
253.495,0.0017852411207316399,-0.0017852411207316399
253.496,0.0059740119511553225,0.0059740119511553225
253.497,0.006425552975644511,0.006425552975644511
253.498,0.00028335539176937985,-0.00028335539176937985
253.499,0.011828778519613947,-0.011828778519613947
253.5,0.02441005381985606,-0.02441005381985606
253.501,0.03388648969178454,-0.03388648969178454
253.502,0.03699253642729805,-0.03699253642729805
253.503,0.0322555858172765,-0.0322555858172765
253.504,0.02034582144509356,-0.02034582144509356
253.505,0.003777671208086142,-0.003777671208086142
253.506,0.013908400354451178,0.013908400354451178
253.507,0.02919709993095232,0.02919709993095232
253.508,0.039539708831429765,0.039539708831429765
253.509,0.04390250637313975,0.04390250637313975
253.51,0.042788473184844245,0.042788473184844245
