Czas,Sum
207.982,0.0014162406680690188
207.983,0.001168617721096177
207.984,0.0005605475343006401
207.985,0.00017132287440812
207.98600000000002,0.0008012090933983423
207.98700000000002,0.0011863697869324292
207.988,0.0013038436965422682
207.989,0.0012423911557869914
207.99,0.0011551888124433313
207.991,0.0011912782062323882
207.99200000000002,0.001430116406803326
207.993,0.0018421102394886944
207.994,0.002289369339257196
207.995,0.0025678051438036893
207.996,0.002478116076135015
207.997,0.0019032426220390423
207.99800000000002,0.0008666265819175093
207.999,0.00044976658918522924
208.0,0.0017373155682586002
208.001,0.0026371428915312445
208.002,0.0028414004190233408
208.00300000000001,0.0021905833051080745
208.00400000000002,0.0007369703911215089
208.005,0.0012477531223778226
208.006,0.0033274880840688985
208.007,0.00500789561397272
208.008,0.005866324158770883
208.00900000000001,0.005669298777021673
208.01000000000002,0.004442975257189289
208.011,0.0024740517084474783
208.012,0.00023812683770256974
208.013,0.0017261775454490945
208.014,0.002962318003695723
208.01500000000001,0.0032184478603265415
208.01600000000002,0.0025116405071605365
208.017,0.0011147526465213296
208.018,0.0005298746474154084
208.019,0.001943412007847787
208.02,0.0027494722869731967
208.02100000000002,0.002776609061002208
208.02200000000002,0.0020938422345450616
208.023,0.0009702896735673605
208.024,0.00022554043261837134
208.025,0.0011519331300042124
208.026,0.0016030659657626989
208.02700000000002,0.001565030273301706
208.02800000000002,0.0012014800100514046
208.029,0.0007761528921783606
208.03,0.0005415023586700788
208.031,0.0006344960983626533
208.032,0.0010180586255248971
208.03300000000002,0.0014903917553030822
208.03400000000002,0.0017600233574180813
208.035,0.0015603972468878045
208.036,0.000762655192831677
208.037,0.0005554494789654696
208.038,0.002112235640012643
208.03900000000002,0.0034994366151948303
208.04000000000002,0.0043107213041333825
208.041,0.0042788202854371505
208.042,0.0033739490752706814
208.043,0.0018278752464444435
208.044,7.23538736287342e-05
208.04500000000002,0.0013904232335558132
208.04600000000002,0.0021441669034403554
208.047,0.00199045084677007
208.048,0.0010123696456896755
208.049,0.00045183045097606754
208.05,0.0019171454029852052
208.05100000000002,0.0029070257665395477
208.05200000000002,0.0031047430702421967
208.053,0.002451743492267955
208.054,0.0011616909437197375
208.055,0.00035301076858428124
208.056,0.0016166836934357678
208.05700000000002,0.0022425534717939654
208.05800000000002,0.002052059259753772
208.059,0.0011239239111383284
208.06,0.0002402145298273114
208.061,0.0016191401681056082
208.062,0.0026081092910720206
208.06300000000002,0.0029424957330090504
208.06400000000002,0.002570351729453041
208.065,0.0016540164076042495
208.066,0.0005051086561798513
208.067,0.0005215957675842089
208.068,0.0011386726289779783
208.06900000000002,0.0012059589948565722
208.07000000000002,0.000757976655179222
208.071,2.3986036297627502e-05
208.072,0.000880039985576766
208.073,0.0015541552104581973
208.074,0.0018641114236268243
208.07500000000002,0.0017403406700910733
208.07600000000002,0.00122819821080957
208.077,0.0004608184144993063
208.078,0.00038273683447725027
208.079,0.0011188247235804356
208.08,0.0015902535702846414
208.08100000000002,0.0016850239667343654
208.08200000000002,0.0013469498234666255
208.083,0.0005839198830245891
208.084,0.0005237731345698693
208.085,0.0018186167467817808
208.086,0.003073063287799864
208.08700000000002,0.004017513578907262
208.08800000000002,0.00439216410455038
208.089,0.004015507459275111
208.09,0.002851552644762361
208.091,0.0010517591963054287
208.092,0.0010498233196032107
208.09300000000002,0.0029978135877688325
208.09400000000002,0.004324475585411037
208.095,0.0046792205163935785
208.096,0.003939830264731152
208.097,0.0022672870744545816
208.098,8.041358987760187e-05
208.09900000000002,0.0020491813613303465
208.10000000000002,0.0035548283299257476
208.101,0.004038666556879956
208.102,0.0033901061537952304
208.103,0.0018195651508170203
208.104,0.00020558315079721324
208.10500000000002,0.0021040709835151434
208.10600000000002,0.0033574306570836572
208.107,0.003663072520035296
208.108,0.003013948582508815
208.109,0.0016796957955679695
208.11,9.78103651266873e-05
208.11100000000002,0.0012856508337323325
208.11200000000002,0.0021690935339528958
208.113,0.0024881375236420846
208.114,0.00241611373712962
208.115,0.002273920904928066
208.116,0.002384051505400514
208.11700000000002,0.0029243613592686703
208.118,0.0038377740377999966
208.119,0.004834058122082775
208.12,0.005486083420006824
208.121,0.005387647586472752
208.122,0.0043159585885719715
208.12300000000002,0.002338172399671653
208.124,0.00018019520556595718
208.125,0.0026728552485527244
208.126,0.0045461070745917
208.127,0.005369569974977412
208.12800000000001,0.0050179841077618685
208.12900000000002,0.0037134104918912394
208.13,0.001951152399830021
208.131,0.00033324421384219716
208.132,0.0006339267732260219
208.133,0.0007081165172466933
208.13400000000001,1.265682015065016e-05
208.13500000000002,0.0011329186443986255
208.136,0.0021065003131253627
208.137,0.002435804230099574
208.138,0.0018535622773036497
208.139,0.0004230695153739591
208.14000000000001,0.0014786194162799836
208.14100000000002,0.0032890030662045284
208.142,0.004455255988183454
208.143,0.004627907936290683
208.144,0.0037851360013265462
208.145,0.0022437684316236085
208.14600000000002,0.0005524418821156836
208.14700000000002,0.0006967330441999455
208.148,0.001073357245916355
208.149,0.00046019540388322265
208.15,0.0009013843180719299
208.151,0.0024881764306527608
208.15200000000002,0.003668922554078211
208.15300000000002,0.003917362365208304
208.154,0.002993921139473658
208.155,0.001036199931044259
208.156,0.0014711729954642635
208.157,0.003837316455791173
208.15800000000002,0.005371201673333289
208.15900000000002,0.005588079947048558
208.16,0.004352897512090001
208.161,0.0019189801090433213
208.162,0.0011460369472324557
208.163,0.004120632733993596
208.16400000000002,0.006325503017275826
208.16500000000002,0.007297425901040607
208.166,0.006893712417765243
208.167,0.005303943404100914
208.168,0.0029741873972618914
208.169,0.000472887809452031
208.17000000000002,0.0016595969578889166
208.17100000000002,0.0030366256126029088
208.172,0.0034971968829616055
208.173,0.0031137167145713017
208.174,0.0021433733017782106
208.175,0.0009436966425118958
208.17600000000002,0.00012222761997166332
208.17700000000002,0.0007680281167688597
208.178,0.0008384704201266166
208.179,0.00032980288065883684
208.18,0.0006223105279799704
208.181,0.0017803315007568802
208.18200000000002,0.002858279029326085
208.18300000000002,0.0035806481552649997
208.184,0.0037365932784185095
208.185,0.003220053958291767
208.186,0.002048449895186069
208.187,0.0003560787591754059
208.18800000000002,0.0016365317042115258
208.18900000000002,0.003670197053714345
208.19,0.005499565544660602
208.191,0.0069366043936296175
208.192,0.0078735732716863
208.193,0.008280559252682092
208.19400000000002,0.00818149769907648
208.19500000000002,0.007620546688280694
208.196,0.0066344442735667844
208.197,0.0052440791792829075
208.198,0.003470293287329819
208.199,0.0013677405772729533
208.20000000000002,0.0009391207394284062
208.20100000000002,0.003237785392821702
208.202,0.005242841000616361
208.203,0.0066484053677083755
208.204,0.007206529623763139
208.205,0.006807326361018828
208.20600000000002,0.005531585356675693
208.20700000000002,0.0036525328875491613
208.208,0.0015790818510535865
208.209,0.0002467055521213444
208.21,0.0014676201846383163
208.211,0.0019066546764675057
208.21200000000002,0.0016073604956698725
208.21300000000002,0.0008049919652817751
208.214,0.00016147875388627402
208.215,0.0009648772056146754
208.216,0.0013910085694841493
208.217,0.001389171309305701
208.21800000000002,0.0010555551495870358
208.21900000000002,0.0005600706661838582
208.22,5.070419021943395e-05
208.221,0.00042025659800889315
208.222,0.0009119334501345245
208.223,0.0015408080418600947
208.22400000000002,0.002377082682281349
208.22500000000002,0.0033380295942835956
208.226,0.004134029555985826
208.227,0.004308899892110096
208.228,0.003381712729661333
208.229,0.0010541244038590177
208.23000000000002,0.002588302260134528
208.23100000000002,0.006964833758476593
208.232,0.011043744422468606
208.233,0.013560364557135182
208.234,0.01336623037259702
208.235,0.00981215729060522
208.23600000000002,0.003041243804212553
208.23700000000002,0.005918526415090717
208.238,0.015318775952062949
208.239,0.023090233921980174
208.24,0.027376273262118327
208.241,0.027047579427690992
208.24200000000002,0.022039743013489415
208.243,0.013401804281169721
208.244,0.003029094337484717
208.245,0.006848313637521619
208.246,0.0142715597076368
208.247,0.018070723649571747
208.24800000000002,0.018137187216745426
208.249,0.015370081309384657
208.25,0.011319561189329195
208.251,0.0076459005382916966
208.252,0.005570793515501966
208.25300000000001,0.005496805532884243
208.25400000000002,0.006912999275062114
208.255,0.008609084088531763
208.256,0.009119283688236751
208.257,0.0072442727247046005
208.258,0.0024786925763612758
208.25900000000001,0.004791478517017358
208.26000000000002,0.013377177956323196
208.261,0.021620439774086984
208.262,0.02785745122205371
208.263,0.030859261565916986
208.264,0.030117281355431395
208.26500000000001,0.02590217303531603
208.26600000000002,0.01910516110487813
208.267,0.010940614339500037
208.268,0.0026239520774604397
208.269,0.004870377820394128
208.27,0.01091258169441812
208.27100000000002,0.015187228116546216
208.27200000000002,0.017586056493523326
208.273,0.018103018276785357
208.274,0.016794799882301117
208.275,0.01382508522398816
208.276,0.009557858474550096
208.27700000000002,0.0046287735855529985
208.27800000000002,7.815819767117631e-05
208.279,0.003585360400309853
208.28,0.005084420122556188
208.281,0.00422359796296145
208.282,0.0013050953382264926
208.28300000000002,0.0027093698949970713
208.28400000000002,0.006426846749457901
208.285,0.008441227354118794
208.286,0.007815679606257809
208.287,0.0044607406741645145
208.288,0.0007441684950081958
208.28900000000002,0.006161444871945192
208.29000000000002,0.009899884970651996
208.291,0.010462707324606848
208.292,0.007320510761103723
208.293,0.0011960661107870269
208.294,0.0060686115228113496
208.29500000000002,0.012054489070896388
208.29600000000002,0.014561731366626132
208.297,0.012401023970726208
208.298,0.005901307181299484
208.299,0.0030675507238119753
208.3,0.011604756213815346
208.30100000000002,0.016687283052988628
208.30200000000002,0.01619564307600615
208.303,0.009714983770254546
208.304,0.0011768088306825868
208.305,0.01326717347442506
208.306,0.02263691493080947
208.30700000000002,0.025886855903351758
208.30800000000002,0.021277396329163728
208.309,0.009403851117941658
208.31,0.006835827088325307
208.311,0.02300510611474224
208.312,0.034413651557695636
208.31300000000002,0.037537332419251945
208.31400000000002,0.031132951227874347
208.315,0.016692160338558148
208.316,0.0019209662148620462
208.317,0.019551975021714144
208.318,0.031236778058539628
208.31900000000002,0.03363572295526813
208.32000000000002,0.025990387135926996
208.321,0.010321137130883408
208.322,0.009182209888308403
208.323,0.027379292020379246
208.324,0.03963169848236129
208.32500000000002,0.04305499278127296
208.32600000000002,0.03721313069175655
208.327,0.024081242946859496
208.328,0.007330582639457486
208.329,0.008811074929539349
208.33,0.020759846648072313
208.33100000000002,0.026481185009910996
208.33200000000002,0.02586102283070852
208.333,0.020484468364816093
208.334,0.012948256114812108
208.335,0.005962470907127881
208.336,0.0015351220550455548
208.33700000000002,0.0004759798220881737
208.33800000000002,0.0023308113517100126
208.339,0.005710555807302276
208.34,0.008861402540178795
208.341,0.010266462733334085
208.342,0.009088480620374336
208.34300000000002,0.005340746685648219
208.34400000000002,0.00022310886519665338
208.345,0.006418467833829579
208.346,0.01200637881776943
208.347,0.01600839101017096
208.348,0.01787693796815961
208.34900000000002,0.017505589282801142
208.35000000000002,0.015123221241597963
208.351,0.011147414758649997
208.352,0.006067589402025173
208.353,0.0003950128170310333
208.354,0.00532708811167106
208.35500000000002,0.010494190975951822
208.35600000000002,0.014442829434990014
208.357,0.01651867755369868
208.358,0.01620956031850915
208.359,0.013305985564301874
208.36,0.00802984855049237
208.36100000000002,0.0010744127800520387
208.36200000000002,0.006475152453938041
208.363,0.0133319014659541
208.364,0.01826183127741611
208.365,0.020336127830782175
208.366,0.0191163021092501
208.36700000000002,0.014730998781353394
208.368,0.00783729839067035
208.369,0.0005095727824739795
208.37,0.009036963043274343
208.371,0.016445217458493755
208.372,0.021580868343137955
208.37300000000002,0.02358293883687166
208.374,0.022003102118773092
208.375,0.01689832850812403
208.376,0.00888211242529569
208.377,0.0008935487431077966
208.37800000000001,0.01085679135471061
208.37900000000002,0.019251206432899834
208.38,0.024469702243115145
208.381,0.02542564971997417
208.382,0.02186528723827246
208.383,0.014516846605726445
208.38400000000001,0.005000228104933006
208.38500000000002,0.0045162742697629574
208.386,0.011845685613496845
208.387,0.01536139572684815
208.388,0.014454600642165956
208.389,0.009719497189241647
208.39000000000001,0.0027895029862967037
208.39100000000002,0.004144902551830495
208.392,0.008999818893474948
208.393,0.010438144014834064
208.394,0.008278462977337659
208.395,0.003532248800203451
208.39600000000002,0.0019519956551868
208.39700000000002,0.006127164244114764
208.398,0.007458605168911849
208.399,0.005466986690661667
208.4,0.0009134089923707128
208.401,0.0044442793078380135
208.40200000000002,0.00844847291906066
208.40300000000002,0.009292623366751952
208.404,0.006169081477696507
208.405,0.0004116436275472877
208.406,0.008745199423382762
208.407,0.016463696626634838
208.40800000000002,0.021293120677191444
208.40900000000002,0.021779134696735546
208.41,0.017733306348322767
208.411,0.010250198769112604
208.412,0.0012973929626899222
208.413,0.006968694963833603
208.41400000000002,0.01291274634558326
208.41500000000002,0.01590230584045959
208.416,0.016394579876809205
208.417,0.015609732375971824
208.418,0.014927259454940034
208.419,0.015246436065564254
208.42000000000002,0.016565910900256952
208.42100000000002,0.017954603843894402
208.422,0.01793555882405197
208.423,0.015141728746710279
208.424,0.008989216198600587
208.425,9.394482526104079e-05
208.42600000000002,0.009757066477903996
208.42700000000002,0.01810678055583441
208.428,0.022647779436436474
208.429,0.022074158400485516
208.43,0.01664697987567097
208.431,0.008239288468529013
208.43200000000002,0.00019700616309244315
208.43300000000002,0.00559235243713286
208.434,0.005833967947414555
208.435,0.0005782957877706314
208.436,0.008502581612710692
208.437,0.018161786477780047
208.43800000000002,0.024592437028192204
208.43900000000002,0.024697651942864527
208.44,0.017194020650306084
208.441,0.003165887383360631
208.442,0.014139854385280086
208.443,0.03023873390986075
208.44400000000002,0.04077000164623944
208.44500000000002,0.04285715766212782
208.446,0.03602142750549791
208.447,0.02234290470545311
208.448,0.005809591729973951
208.449,0.008937373549389956
208.45000000000002,0.018053856804878234
208.45100000000002,0.019665438600831385
208.452,0.014383396217413769
208.453,0.00500441897473694
208.454,0.004493825645663959
208.455,0.010317347554842623
208.45600000000002,0.01012252283377812
208.45700000000002,0.0037671632632719355
208.458,0.00669194973489815
208.459,0.01773665082259871
208.46,0.02559646323229507
208.461,0.027513985357110613
208.46200000000002,0.02264287717991211
208.46300000000002,0.012288994404166411
208.464,0.0005664469533364529
208.465,0.012280035643997442
208.466,0.01973952115870762
208.467,0.021332341013227143
208.46800000000002,0.017374054755325146
208.46900000000002,0.00987515446087598
208.47,0.0017532522405184405
208.471,0.004218051628008849
208.472,0.0063537064581989655
208.473,0.004575661101363766
208.47400000000002,0.0003435673891519505
208.47500000000002,0.003956355319127367
208.476,0.005933815285002795
208.477,0.00409851036828244
208.478,0.0015672933817949429
208.479,0.009557969118874077
208.48000000000002,0.017322918001917875
208.48100000000002,0.022102918451546594
208.482,0.021839068136375324
208.483,0.015854788943885697
208.484,0.005097094722365015
208.485,0.008124897247140514
208.48600000000002,0.020802590345678346
208.48700000000002,0.030069423228472857
208.488,0.033958219101994216
208.489,0.03185769357643652
208.49,0.024562563838578085
208.491,0.01394526419015491
208.49200000000002,0.0023873080670631136
208.493,0.007838605056427299
208.494,0.015059039399804774
208.495,0.01845412602865812
208.496,0.01805789143187125
208.497,0.014565886266862116
208.49800000000002,0.009053251395811536
208.499,0.0027030888166579862
208.5,0.0033928587588098365
208.501,0.008349125699375747
208.502,0.01154295386671127
208.50300000000001,0.012649174970033778
208.50400000000002,0.011674043473739074
208.505,0.008977821370314748
208.506,0.005250947762548906
208.507,0.0014063763811880039
208.508,0.0016232370172973047
208.50900000000001,0.003149400105735283
208.51000000000002,0.00297427812106161
208.511,0.001521282002465664
208.512,0.00022931187385030166
208.513,0.0010200144224519207
208.514,0.0002489397806858072
208.51500000000001,0.004061468405950231
208.51600000000002,0.009969668779245888
208.517,0.016560523438763342
208.518,0.02176420625873737
208.519,0.02344791344179822
208.52,0.020129479839673697
208.52100000000002,0.011581518167828242
208.52200000000002,0.0008927568076413679
208.523,0.014643012620330827
208.524,0.026304311815685207
208.525,0.032718419863472195
208.526,0.03187594081611704
208.52700000000002,0.023585232176724785
208.52800000000002,0.009643182046405872
208.529,0.006570971688123994
208.53,0.020979625535345676
208.531,0.029917039618560765
208.532,0.031138045756910957
208.53300000000002,0.02442393541291482
208.53400000000002,0.011606301407988281
208.535,0.003991432242683001
208.536,0.01851688655932388
208.537,0.028658142804585042
208.538,0.03249806507131142
208.53900000000002,0.02991030579961844
208.54000000000002,0.02240662589864734
208.541,0.012520770133913067
208.542,0.0029545463406844014
208.543,0.0042276863676999855
208.544,0.008105865634258956
208.54500000000002,0.008978404709559292
208.54600000000002,0.008023612758867869
208.547,0.006706099477907659
208.548,0.006161495356389812
208.549,0.006783175895730131
208.55,0.008147134175762653
208.55100000000002,0.00927980175377763
208.55200000000002,0.009146610244691211
208.553,0.007161344244033848
208.554,0.003513954226041709
208.555,0.000813864588679925
208.556,0.004357891428244733
208.55700000000002,0.005696657828392929
208.55800000000002,0.00400302145923244
208.559,0.0005801786802695485
208.56,0.006882937184287952
208.561,0.013002011457166283
208.562,0.016857495348563116
208.56300000000002,0.016833414489292618
208.56400000000002,0.012295070115605008
208.565,0.003817322430895787
208.566,0.006946110448966303
208.567,0.017705815686134826
208.568,0.026148549655929144
208.56900000000002,0.03052778207718597
208.57000000000002,0.030060749061613854
208.571,0.025032498555582375
208.572,0.01660729724634816
208.573,0.006439408334440053
208.574,0.003772010369542
208.57500000000002,0.012640613706974906
208.57600000000002,0.019270886940741302
208.577,0.02324252830103934
208.578,0.024462134029290403
208.579,0.02298655099327278
208.58,0.018919248912659916
208.58100000000002,0.01243480390976648
208.58200000000002,0.003916881462434042
208.583,0.005869245890790035
208.584,0.015680679993172946
208.585,0.02387328013235519
208.586,0.028686931778282312
208.58700000000002,0.028692618923839886
208.58800000000002,0.023277023600184563
208.589,0.012999727139807793
208.59,0.000327085982831886
208.591,0.01391581983155582
208.592,0.024609609791710077
208.59300000000002,0.029678771754574923
208.59400000000002,0.027591654603992648
208.595,0.018528398618357197
208.596,0.0044621051399931395
208.597,0.011252952168673796
208.598,0.024704151402568444
208.59900000000002,0.03244522587624336
208.60000000000002,0.03244128466060797
208.601,0.024659931887347206
208.602,0.011123232074908361
208.603,0.004616769046411909
208.604,0.018450513795529155
208.60500000000002,0.02686756489542972
208.60600000000002,0.027969619260073884
208.607,0.022041165528029486
208.608,0.011496215722627236
208.609,0.00019405091194629577
208.61,0.0076998038436232145
208.61100000000002,0.008991958240971902
208.61200000000002,0.0025102694436205074
208.613,0.010393618159883383
208.614,0.026060805671786372
208.615,0.03943330119130972
208.616,0.04542682351214418
208.61700000000002,0.040399380719113274
208.618,0.02330506869688848
208.619,0.003803894813400479
208.62,0.03609264729025229
208.621,0.06701964078556641
208.622,0.08990386768489433
208.62300000000002,0.09957309057794445
208.624,0.09365428218351649
208.625,0.07316121201346912
208.626,0.04222477377753868
208.627,0.007045621734999424
208.62800000000001,0.025640597072518773
208.62900000000002,0.05016777350684354
208.63,0.06318786239113312
208.631,0.06424962625736826
208.632,0.05559153809651586
208.633,0.041256936460450554
208.63400000000001,0.025823877686084323
208.63500000000002,0.01313360552629025
208.636,0.005376237142413429
208.637,0.0027622672516681578
208.638,0.0038175878834087874
208.639,0.00614905218195124
208.64000000000001,0.0073961139559095635
208.64100000000002,0.006049894936349661
208.642,0.0018899129220465668
208.643,0.004066933382760633
208.644,0.010041629662920111
208.645,0.01419251628738811
208.64600000000002,0.015278489759523362
208.64700000000002,0.013057577462328383
208.648,0.008301521343281115
208.649,0.0024513968654226925
208.65,0.0029332070219386724
208.651,0.006712938676197379
208.65200000000002,0.0084938553299025
208.65300000000002,0.008628639503620281
208.654,0.007913255602472486
208.655,0.0071178068190682845
208.656,0.006554601214126603
208.657,0.005871461810096198
208.65800000000002,0.004169443909097697
208.65900000000002,0.0004142979778021241
208.66,0.006011067489964177
208.661,0.014833494763407805
208.662,0.02470189510817133
208.663,0.03339693628691616
208.66400000000002,0.038408036284824545
208.66500000000002,0.037708118114995366
208.666,0.030470901831945472
208.667,0.017477089659749253
208.668,0.0010477151343628772
208.669,0.015504039079236922
208.67000000000002,0.028748969099503148
208.67100000000002,0.03607737909771104
208.672,0.036399093387723916
208.673,0.03038626039340876
208.674,0.020186407296203922
208.675,0.008707696461214123
208.67600000000002,0.0012818504039897416
208.67700000000002,0.007942668368265465
208.678,0.010786983090460051
208.679,0.010616934461720339
208.68,0.009029065159014688
208.681,0.007687207628470145
208.68200000000002,0.007641593340524204
208.68300000000002,0.0089464141744
208.684,0.01071072402969152
208.685,0.011551285938616119
208.686,0.010261596782602142
208.687,0.006425954888071828
208.68800000000002,0.0007236794780264824
208.68900000000002,0.0052176616242477405
208.69,0.009389905814170011
208.691,0.0101960673595398
208.692,0.007169599560582279
208.693,0.0013311840889607468
208.69400000000002,0.004991429085582849
208.69500000000002,0.008867789169776359
208.696,0.007786033972344042
208.697,0.0006515731675274614
208.698,0.01159598468482667
208.699,0.026001160164796616
208.70000000000002,0.038299403639143935
208.70100000000002,0.04413528892398669
208.702,0.04043197353777953
208.703,0.026479778346875496
208.704,0.00437899096533268
208.705,0.02133908471351796
208.70600000000002,0.044836632695578055
208.70700000000002,0.06052810192588543
208.708,0.06461993252857838
208.709,0.05617539358981386
208.71,0.037387440831153786
208.711,0.012978976790643674
208.71200000000002,0.01109032064347568
208.71300000000002,0.02922931336831208
208.714,0.03766851981844033
208.715,0.03535530147769572
208.716,0.024063249621815715
208.717,0.007726146871229741
208.71800000000002,0.008769775694705825
208.71900000000002,0.02096022565801062
208.72,0.0259475440389072
208.721,0.02301666381164053
208.722,0.013600940560840385
208.723,0.0006740933863684355
208.72400000000002,0.012199653955089132
208.72500000000002,0.021854387481268483
208.726,0.02627433836203795
208.727,0.024937937190884798
208.728,0.018724601340893376
208.729,0.009483693695158706
208.73000000000002,0.000556775220150153
208.73100000000002,0.009353420472452936
208.732,0.015443123251633249
208.733,0.018112741601829022
208.734,0.017364989782719248
208.735,0.013754659626219091
208.73600000000002,0.008181028753407555
208.73700000000002,0.0016991450181104075
208.738,0.0046268144602117185
208.739,0.00983868002789728
208.74,0.013190779680348588
208.741,0.014258336332137512
208.74200000000002,0.013031404034414712
208.743,0.009954118655800355
208.744,0.005864942011932537
208.745,0.001816725437208437
208.746,0.001200106653935604
208.747,0.0025597508653953205
208.74800000000002,0.002227402787363224
208.749,0.0008147434873555752
208.75,0.0005844244190260942
208.751,0.0007534346337606495
208.752,0.0011944450448176467
208.75300000000001,0.005420372319211195
208.75400000000002,0.01117200348911782
208.755,0.016898323210130916
208.756,0.020665798228264667
208.757,0.02076796992232531
208.758,0.016341518987241704
208.75900000000001,0.007780594504826222
208.76000000000002,0.0032101160015455925
208.761,0.013976250041648444
208.762,0.02160899515469136
208.763,0.02378077940135954
208.764,0.019470401300636948
208.76500000000001,0.009348161453063393
208.76600000000002,0.00431229793248167
208.767,0.01818715563800744
208.768,0.02877001994106739
208.769,0.03330609491217045
208.77,0.030523892598435205
208.77100000000002,0.020957091957566114
208.77200000000002,0.0067732363423962305
208.773,0.008827542082380206
208.774,0.02245804652937638
208.775,0.03138677890286268
208.776,0.03414716092045568
208.77700000000002,0.03076685563047327
208.77800000000002,0.022592743231156308
208.779,0.011805613160478021
208.78,0.0007967936477340086
208.781,0.008404182479208284
208.782,0.014505170916722024
208.78300000000002,0.017067249348054776
208.78400000000002,0.01638758479760012
208.785,0.013241839955677941
208.786,0.00860091259330969
208.787,0.003414169098687503
208.788,0.001500906766150675
208.78900000000002,0.005479634457515315
208.79000000000002,0.007995988253220879
208.791,0.008671630802417134
208.792,0.007338072665332005
208.793,0.004136708887385506
208.794,0.00039808637673410894
208.79500000000002,0.005341474267559983
208.79600000000002,0.009513945464315176
208.797,0.011748210715102996
208.798,0.011225427833252727
208.799,0.007774649787784353
208.8,0.002021064477797148
208.80100000000002,0.004695657062911066
208.80200000000002,0.010640583692287809
208.803,0.01416502608482381
208.804,0.014209857306002575
208.805,0.01066825486531317
208.806,0.004478152514707507
208.80700000000002,0.002605565337676576
208.80800000000002,0.008507003619356735
208.809,0.01145057722947469
208.81,0.010517117187182429
208.811,0.005956956509469403
208.812,0.00084658144892433
208.81300000000002,0.007762127969106951
208.81400000000002,0.012532775316190481
208.815,0.013449257037025191
208.816,0.00986941765457557
208.817,0.0024263245418553606
208.818,0.007136851078768881
208.81900000000002,0.01645313817643962
208.82000000000002,0.02319135869262503
208.821,0.025692934818773643
208.822,0.02340288686058894
208.823,0.016979927516206646
208.824,0.008069942377252263
208.82500000000002,0.0011742056171640562
208.82600000000002,0.008675867958599265
208.827,0.012951881624513684
208.828,0.013428093319560425
208.829,0.010487388556232588
208.83,0.005266884009833538
208.83100000000002,0.000710531348096376
208.83200000000002,0.005949696561991246
208.833,0.009325556114421067
208.834,0.010276037918872662
208.835,0.008822005607316585
208.836,0.005443579740147368
208.83700000000002,0.0008767592537516685
208.83800000000002,0.004096782185201015
208.839,0.008808678758517626
208.84,0.012782891584494697
208.841,0.015737506864239408
208.842,0.017535155728169605
208.84300000000002,0.018117084684852423
208.84400000000002,0.017451580308465175
208.845,0.015514487298518941
208.846,0.012304451612276886
208.847,0.007883544437934148
208.848,0.0024274660588988212
208.84900000000002,0.003731891144935043
208.85000000000002,0.010087104473360397
208.851,0.015971675468219808
208.852,0.02062064193821842
208.853,0.023277112785787354
208.854,0.02333618368187392
208.85500000000002,0.02050402680386824
208.85600000000002,0.014936102092886457
208.857,0.007310105750536654
208.858,0.0012073154373068557
208.859,0.00912214330871417
208.86,0.014891979089797577
208.86100000000002,0.017272361288930185
208.86200000000002,0.01564743848286336
208.863,0.010248894045091122
208.864,0.0021827791622522547
208.865,0.006771082197085868
208.866,0.014558415021822006
208.86700000000002,0.01935555242437372
208.868,0.020044445876932295
208.869,0.0165177227801091
208.87,0.009714288613270387
208.871,0.0013619494122293185
208.872,0.006507041348481154
208.87300000000002,0.012127505518992837
208.874,0.01448702876208735
208.875,0.013574864865809364
208.876,0.010315630192997166
208.877,0.00621051790211747
208.87800000000001,0.0028055250556603866
208.87900000000002,0.0011653776623153289
208.88,0.001531749085680665
208.881,0.003282952874010563
208.882,0.005208818823353029
208.883,0.006003670234743048
208.88400000000001,0.004800824396906685
208.88500000000002,0.001552843445636981
208.886,0.002888365851609645
208.887,0.007033911915162729
208.888,0.009282638009002963
208.889,0.008529677172014711
208.89000000000001,0.004641676000296387
208.89100000000002,0.0013814618525064745
208.892,0.007636118053368493
208.893,0.011879659538949587
208.894,0.012254596399776765
208.895,0.007933616124090619
208.89600000000002,0.000535589324861292
208.89700000000002,0.01131268545192842
208.898,0.02176112859887291
208.899,0.02920678040117239
208.9,0.031717186480362015
208.901,0.028651106991303518
208.90200000000002,0.020803740641274868
208.90300000000002,0.010108312902085288
208.904,0.0009969748381082957
208.905,0.0103174261244915
208.906,0.016512676889911905
208.907,0.019370932762993204
208.90800000000002,0.019670653397820197
208.90900000000002,0.018701986368366775
208.91,0.01764115017141384
208.911,0.017021314357985637
208.912,0.016505048916312475
208.913,0.01504947657968263
208.91400000000002,0.01140641546259748
208.91500000000002,0.004769627008267512
208.916,0.004682567294653311
208.917,0.015573932087441377
208.918,0.02556028594388553
208.919,0.031960252305531636
208.92000000000002,0.03259623122109066
208.92100000000002,0.026568311623570248
208.922,0.014690710655243097
208.923,0.0005790081496610434
208.924,0.015725574971764543
208.925,0.027114653938259393
208.92600000000002,0.03200303414441296
208.92700000000002,0.029310061844840175
208.928,0.01991219165770487
208.929,0.006372043522868413
208.93,0.007809408829907699
208.931,0.019182377732088595
208.93200000000002,0.025276033752169722
208.93300000000002,0.025191357855466365
208.934,0.01970217906739158
208.935,0.010868646966252869
208.936,0.0013187857856452323
208.937,0.006553869365836523
208.93800000000002,0.011222624788389089
208.93900000000002,0.01231347505320694
208.94,0.010497530805291689
208.941,0.007077445150719774
208.942,0.0034479627139207226
208.943,0.0006326218231966817
208.94400000000002,0.0009527494645042735
208.94500000000002,0.0014599855636954727
208.946,0.0013522841596849931
208.947,0.0010697309387393196
208.948,0.0007728468308471821
208.949,0.0002751093034158618
208.95000000000002,0.0008127355997036024
208.95100000000002,0.002798522473702773
208.952,0.005620103383679348
208.953,0.008694811829219834
208.954,0.010996953215825335
208.955,0.011361576244271192
208.95600000000002,0.00891727687615629
208.95700000000002,0.003488982198454153
208.958,0.004191259694037951
208.959,0.01256818383061974
208.96,0.019643174910655824
208.961,0.02354398154483087
208.96200000000002,0.023104022341392597
208.96300000000002,0.018257971690929273
208.964,0.010114587991932007
208.965,0.0006715783590969163
208.966,0.007744856674229182
208.967,0.01314194792300777
208.96800000000002,0.01441669129321546
208.96900000000002,0.011635353307193518
208.97,0.005956806106144874
208.971,0.0007637627482146988
208.972,0.006553967294930089
208.973,0.00989791846982362
208.97400000000002,0.01012891641671422
208.97500000000002,0.007535033707588411
208.976,0.003171224709303174
208.977,0.0015340587437175578
208.978,0.00523260746010449
208.979,0.007022267608063925
208.98000000000002,0.0066240330061612335
208.98100000000002,0.004346494083078463
208.982,0.0008896010193496292
208.983,0.0029131555781816243
208.984,0.006311508686945914
208.985,0.008748614759124017
208.98600000000002,0.009858238575234202
208.98700000000002,0.009396997916800489
208.988,0.007186389317858494
208.989,0.003127222072254942
208.99,0.002695847063339476
208.991,0.009859557685896444
208.99200000000002,0.017480864167983286
208.993,0.024221780294907437
208.994,0.02847829689551907
208.995,0.02874382488794942
208.996,0.02406134645190342
208.997,0.014423746454716568
208.99800000000002,0.0009730483779714463
208.999,0.014104772613549919
209.0,0.028003351382821243
209.001,0.03794729973763442
209.002,0.04189698867849751
209.00300000000001,0.03910002932239522
209.00400000000002,0.0303163615701366
209.005,0.01763575008305976
209.006,0.0039286801772956325
209.007,0.00791504335531526
209.008,0.015738516561753256
209.00900000000001,0.018640881040138974
209.01000000000002,0.017122020549716857
209.011,0.012816439235339226
209.012,0.007909817189580347
209.013,0.004426259132365607
209.014,0.003607933231805604
209.01500000000001,0.005572386736866989
209.01600000000002,0.00933989175957375
209.017,0.013205038166461423
209.018,0.015321722720719369
209.019,0.014311193915150922
209.02,0.009705352953286273
209.02100000000002,0.0020979424196468166
209.02200000000002,0.007027697720184852
209.023,0.015726102903877468
209.024,0.02213221565120793
209.025,0.02495446929633341
209.026,0.023780775600945367
209.02700000000002,0.019125169903336396
209.02800000000002,0.01222346868584194
209.029,0.0046565140929466994
209.03,0.0020801228601341785
209.031,0.006938872011191311
209.032,0.009525775705318243
209.03300000000002,0.010111243371843862
209.03400000000002,0.009463092320797608
209.035,0.00856197150401879
209.036,0.008281479044206903
209.037,0.009115273012196334
209.038,0.01101555284399272
209.03900000000002,0.01337858188047882
209.04000000000002,0.01518046026204685
209.041,0.01523544156720453
209.042,0.012523268648421852
209.043,0.006514137275621147
209.044,0.002586841435969192
209.04500000000002,0.013745924353344957
209.04600000000002,0.025203107368187965
209.047,0.034774990973390554
209.048,0.040311870790248706
209.049,0.040214156414705444
209.05,0.033881590582144634
209.05100000000002,0.021967600765600625
209.05200000000002,0.0063470746184507345
209.053,0.010225500050925321
209.054,0.024705478540157318
209.055,0.034455978190470936
209.056,0.03787171466843266
209.05700000000002,0.034754119562993194
209.05800000000002,0.026325139229111724
209.059,0.01486821300579475
209.06,0.003095538230515328
209.061,0.006574385311438268
209.062,0.012615009335699172
209.06300000000002,0.014689533397673767
209.06400000000002,0.013567730072763117
209.065,0.0107052832832154
209.066,0.007640418653113275
209.067,0.0054227827510413785
209.068,0.004276309464105025
209.06900000000002,0.003613669747217299
209.07000000000002,0.002392344661162825
209.071,0.0003246700901384933
209.072,0.004821529869141802
209.073,0.010417635744958215
209.074,0.015535620876911257
209.07500000000002,0.018158803009671123
209.07600000000002,0.016541501544832447
209.077,0.009930348453694936
209.078,0.0009695796464634552
209.079,0.01398016885238137
209.08,0.025939256350591036
209.08100000000002,0.033573257510312274
209.08200000000002,0.034492569700905557
209.083,0.027989542277419774
209.084,0.015365360175907089
209.085,0.00034659691835411564
209.086,0.0152016420204984
209.08700000000002,0.025470297408738296
209.08800000000002,0.028725412301402454
209.089,0.02454883917958107
209.09,0.01463211392966226
209.091,0.002236265685268492
209.092,0.008820238046262406
209.09300000000002,0.015326355410230115
209.09400000000002,0.015630362811925504
209.095,0.010084805359590953
209.096,0.0008566471662653119
209.097,0.008820254408071992
209.098,0.015697195205078215
209.09900000000002,0.017524243872875774
209.10000000000002,0.013706544452193818
209.101,0.005411412842005618
209.102,0.004880740287921085
209.103,0.014208966112841103
209.104,0.02006019974369905
209.10500000000002,0.021091418841309308
209.10600000000002,0.017429689219674343
209.107,0.010487433141881075
209.108,0.002395009081661477
209.109,0.004727868628538146
209.11,0.009404800058535038
209.11100000000002,0.011138232019745535
209.11200000000002,0.01036881228884363
209.113,0.008120648152275641
209.114,0.005502641249396889
209.115,0.0032735009909691678
209.116,0.0016346875969448468
209.11700000000002,0.0003115898085464538
209.118,0.0011391417519951283
209.119,0.002951097924220029
209.12,0.0048812461418410846
209.121,0.006189998325131489
209.122,0.0058995521599161825
209.12300000000002,0.0032420001223985445
209.124,0.0018800306873088654
209.125,0.008619330563219521
209.126,0.015239877407063517
209.127,0.019530216208495314
209.12800000000001,0.01946832196843562
209.12900000000002,0.01392849262014804
209.13,0.0031873105515851236
209.131,0.010963012690770317
209.132,0.02556460384736394
209.133,0.03722731944811825
209.13400000000001,0.04303671486609082
209.13500000000002,0.041364794285473065
209.136,0.03233682736434529
209.137,0.017812669555361954
209.138,0.0008911898203814702
209.139,0.01490825236189287
209.14000000000001,0.026540205495143847
209.14100000000002,0.03214420865788063
209.142,0.03138318750187491
209.143,0.025345123326478623
209.144,0.01608099429888038
209.145,0.005955206256611147
209.14600000000002,0.0029774755518479374
209.14700000000002,0.009389616353239153
209.148,0.01280470037357584
209.149,0.013447423326922737
209.15,0.011930578164721749
209.151,0.008927453164122185
209.15200000000002,0.004958237342429672
209.15300000000002,0.00035206415957236956
209.154,0.0046376164015664275
209.155,0.009653730192954832
209.156,0.014106386853836392
209.157,0.017182174246826512
209.15800000000002,0.018016348770324573
209.15900000000002,0.01597684103988358
209.16,0.010952760781941165
209.161,0.0035260055657534805
209.162,0.005060981016662604
209.163,0.013157703690690872
209.16400000000002,0.01911439183397099
209.16500000000002,0.021723027836603244
209.166,0.020549486178787327
209.167,0.016048233320575485
209.168,0.00942185079818196
209.169,0.002271394114276654
209.17000000000002,0.003849343675808692
209.17100000000002,0.007835343296032376
209.172,0.009268229492603352
209.173,0.008431107542272243
209.174,0.006117502923094445
209.175,0.003317058205854325
209.17600000000002,0.0008929037789881308
209.17700000000002,0.0006444643371488211
209.178,0.0012076220954828805
209.179,0.0010496712793766616
209.18,0.0005854397181449724
209.181,0.000199848668123919
209.18200000000002,0.00011848766486169393
209.18300000000002,0.00037838474364683427
209.184,0.000888576693734122
209.185,0.0015312914988690357
209.186,0.00224130103266133
209.187,0.003017901810325838
209.18800000000002,0.0038626380274025414
209.18900000000002,0.004678504374379869
209.19,0.005193224683542662
209.191,0.0049669260978820965
209.192,0.0035119352217051415
209.193,0.0005014924527695612
209.19400000000002,0.004004317439392925
209.19500000000002,0.009411740793656144
209.196,0.01460932447225549
209.197,0.018181116110801473
209.198,0.018781031856322183
209.199,0.01556567371676545
209.20000000000002,0.008545873082625005
209.20100000000002,0.0012733664280018895
209.202,0.01203819162254717
209.203,0.021462503915823505
209.204,0.027411647364821438
209.205,0.028487149648075638
209.20600000000002,0.024435625056416017
209.20700000000002,0.01625106254764166
209.208,0.005929626544841696
209.209,0.00405849516903979
209.21,0.011428746711828032
209.211,0.014681717599240893
209.21200000000002,0.013470319296320027
209.21300000000002,0.008634850961096738
209.214,0.001907714111500617
209.215,0.004612647748388756
209.216,0.009055609383393375
209.217,0.010266530286374505
209.21800000000002,0.008058658753035571
209.21900000000002,0.0031778290192189854
209.22,0.0029822954630312633
209.221,0.008807601058564575
209.222,0.012897339487442056
209.223,0.014383931038155622
209.22400000000002,0.013069082123292637
209.22500000000002,0.009371605564672108
209.226,0.0041383582404340875
209.227,0.0016007653122759396
209.228,0.0068557767035629475
209.229,0.010828292173023077
209.23000000000002,0.01298215880325686
209.23100000000002,0.013055668683915363
209.232,0.011051239008858436
209.233,0.007229578622099777
209.234,0.00211169373858632
209.235,0.0035327153950301324
209.23600000000002,0.008743951077754974
209.23700000000002,0.01250290925884865
209.238,0.013930592098978055
209.239,0.012517546652509282
209.24,0.008315778237725467
209.241,0.0020191155085120395
209.24200000000002,0.005119994685973457
209.243,0.011543000132550168
209.244,0.015756650209068378
209.245,0.016726552146194763
209.246,0.014177442646608475
209.247,0.008702877337828766
209.24800000000002,0.0016386852290390858
209.249,0.005275563139511354
209.25,0.010356954247315652
209.251,0.012431316589880448
209.252,0.01114630964819447
209.25300000000001,0.007054779498985759
209.25400000000002,0.0014456511897292877
209.255,0.004025820185983
209.256,0.007798946135581349
209.257,0.00882692329389925
209.258,0.006839119811199471
209.25900000000001,0.002381614775982193
209.26000000000002,0.003361815976152846
209.261,0.00890440964704663
209.262,0.012844862063210867
209.263,0.014202489778382425
209.264,0.012618312295064812
209.26500000000001,0.00838732544325645
209.26600000000002,0.0023367380830017857
209.267,0.0043975338065176195
209.268,0.010627658522105768
209.269,0.015341657355939118
209.27,0.01786169753619071
209.27100000000002,0.01791934975599897
209.27200000000002,0.01565601828330278
209.273,0.011567521023441439
209.274,0.006411596715737307
209.275,0.0010908634997672218
209.276,0.003481745433269176
209.27700000000002,0.006527663068377496
209.27800000000002,0.007542948574638279
209.279,0.006409547480919965
209.28,0.0034467653786441847
209.281,0.000623868891946294
209.282,0.0048104449325285835
209.28300000000002,0.008062849796300127
209.28400000000002,0.00952091396174324
209.285,0.008735165749537364
209.286,0.005795686741549066
209.287,0.0013245469915289525
209.288,0.0036757526895047693
209.28900000000002,0.008082319265293895
209.29000000000002,0.010949702701708157
209.291,0.011759975434358708
209.292,0.010551106799663746
209.293,0.007885171872395734
209.294,0.004666486518840159
209.29500000000002,0.0018657988583469854
209.29600000000002,0.00023512245273770593
209.297,9.930190306459448e-05
209.298,0.0012845618504543329
209.299,0.0031998441341660835
209.3,0.005038543638134712
209.30100000000002,0.006032167006476882
209.30200000000002,0.005674897247845924
209.303,0.003852267584299685
209.304,0.0008422455709177025
209.305,0.0027996869150524596
209.306,0.00642331026701315
209.30700000000002,0.009468235350423444
209.30800000000002,0.011589881356580532
209.309,0.012692360184663196
209.31,0.012869654863825984
209.311,0.012289295272520885
209.312,0.01107118904683884
209.31300000000002,0.00921270414016824
209.31400000000002,0.006591149307469037
209.315,0.0030443775912492228
209.316,0.00149957421345205
209.317,0.006891881301080378
209.318,0.012681668307603592
209.31900000000002,0.018119938827165383
209.32000000000002,0.022258910145992808
209.321,0.02412876541039841
209.322,0.022951640791733396
209.323,0.018342248453363297
209.324,0.010447457165310835
209.32500000000002,8.99090703630525e-06
209.32600000000002,0.011790460541822891
209.327,0.023312972098642602
209.328,0.03288713354297639
209.329,0.03899810736403301
209.33,0.04057753701630833
209.33100000000002,0.03721921297899748
209.33200000000002,0.029294334137065427
209.333,0.017933747504686702
209.334,0.004864470829033113
209.335,0.007884718485255965
209.336,0.018362710927297368
209.33700000000002,0.025086968763508244
209.33800000000002,0.027357267725859665
209.339,0.025409056324275873
209.34,0.020352684581878465
209.341,0.013894715817448264
209.342,0.007896769056245648
209.34300000000002,0.0038792061001680185
209.34400000000002,0.002604128248392278
209.345,0.0038623894414333386
209.346,0.006540650208448959
209.347,0.008967274247208354
209.348,0.009451108590535181
209.34900000000002,0.006860835316596339
209.35000000000002,0.0010674848452352493
209.351,0.006899276152416067
209.352,0.015053432094779306
209.353,0.020979980768862587
209.354,0.022550287117578664
209.35500000000002,0.018619760945453583
209.35600000000002,0.00949253845865795
209.357,0.003006022462230741
209.358,0.01589978144976963
209.359,0.02579581809210299
209.36,0.02978977585234832
209.36100000000002,0.02629007438379694
209.36200000000002,0.01552131762425717
209.363,0.00044828164317452864
209.364,0.018177859237843833
209.365,0.0337032983887547
209.366,0.04353559419392293
209.36700000000002,0.04553494527022012
209.368,0.03942267182555728
209.369,0.02679699139796152
209.37,0.010660083015029612
209.371,0.005399394800214062
209.372,0.01813226375693895
209.37300000000002,0.025406097060358946
209.374,0.026630466905663324
209.375,0.022737110722216087
209.376,0.015753849234452943
209.377,0.008124550828403588
209.37800000000001,0.0019896399167760445
209.37900000000002,0.001363255365485314
209.38,0.0017356508401963748
209.381,9.65807736434278e-05
209.382,0.0027786526034702325
209.383,0.004903368322560111
209.38400000000001,0.005491779947016347
209.38500000000002,0.004280493823362741
209.386,0.0017412346918257477
209.387,0.0011507152862621115
209.388,0.0033034528540257795
209.389,0.003911872703948563
209.39000000000001,0.0027427386842010836
209.39100000000002,0.00021342514578292712
209.392,0.002751683917213287
209.393,0.005030531182563546
209.394,0.00567166653770664
209.395,0.004201400661120741
209.39600000000002,0.0007752244483573877
209.39700000000002,0.00386743055949478
209.398,0.008622827588307022
209.399,0.01234240843407375
209.4,0.01415173288880511
209.401,0.013675188887570959
209.40200000000002,0.011107524817806358
209.40300000000002,0.007123109708061109
209.404,0.002662242397231464
209.405,0.001333880311660649
209.406,0.004160120094845641
209.407,0.0054934989594847385
209.40800000000002,0.005419112716090564
209.40900000000002,0.004344700274067129
209.41,0.0028433936251721775
209.411,0.0014788924689122845
209.412,0.0006636722078218351
209.413,0.0005826058615491155
209.41400000000002,0.001189515881264056
209.41500000000002,0.002261671764618128
209.416,0.003483995815254725
209.417,0.004533405303067543
209.418,0.005142377922824202
209.419,0.005134246211803119
209.42000000000002,0.004434736008206168
209.42100000000002,0.0030702498011843226
209.422,0.0011619761671990874
209.423,0.0010817920184571534
209.424,0.0033802536110978513
209.425,0.005410322765257177
209.42600000000002,0.0068580654271177925
209.42700000000002,0.007487575013194156
209.428,0.007211697265084627
209.429,0.006140380116079026
209.43,0.004582143965167033
209.431,0.0029845900158394978
209.43200000000002,0.0018190883666305807
209.43300000000002,0.0014368169952425555
209.434,0.0019398956669774902
209.435,0.00311491064497774
209.436,0.004462863389197101
209.437,0.005331497343751154
209.43800000000002,0.0051209344826208
209.43900000000002,0.003503226545334942
209.44,0.0005824262947306244
209.441,0.00306850927923927
209.442,0.00652435629848783
209.443,0.008759743493088527
209.44400000000002,0.008970064615615246
209.44500000000002,0.006862511159897397
209.446,0.0028163081033932683
209.447,0.0021569445196532207
209.448,0.00666297119046887
209.449,0.009325666106318025
209.45000000000002,0.009223408082920092
209.45100000000002,0.006221198206750087
209.452,0.0010793243415666506
209.453,0.004718437728943885
209.454,0.009386627949716354
209.455,0.01139379680912574
209.45600000000002,0.009981001455057596
209.45700000000002,0.00546895562059323
209.458,0.0007657238211427222
209.459,0.006665582448030436
209.46,0.01012455382242729
209.461,0.00969000923098321
209.46200000000002,0.005108243274237066
209.46300000000002,0.0024804719746671965
209.464,0.010791944925593315
209.465,0.01704943859411624
209.466,0.018857275392689537
209.467,0.015030131922323853
209.46800000000002,0.006104100800065101
209.46900000000002,0.00566337180222896
209.47,0.0168480525211083
209.471,0.023836944105513166
209.472,0.023953879381295125
209.473,0.01638993995589621
209.47400000000002,0.002633309677448111
209.47500000000002,0.013770905897059416
209.476,0.028103308198398586
209.477,0.03576832312376689
209.478,0.033641552812902834
209.479,0.021067121138725126
209.48000000000002,0.00019377789316053903
209.48100000000002,0.02447520535492467
209.482,0.0472130308480717
209.483,0.0625712593139202
209.484,0.06682695361822703
209.485,0.0589600568888182
209.48600000000002,0.04088147374493217
209.48700000000002,0.016852589675502915
209.488,0.007724825442173578
209.489,0.02778607471955128
209.49,0.03991372461848569
209.491,0.04310600787876223
209.49200000000002,0.03880174136633346
209.493,0.0301908101287606
209.494,0.021055552338009813
209.495,0.014523185206442728
209.496,0.012122265384194968
209.497,0.0134256880928075
209.49800000000002,0.01636653216536525
209.499,0.01809526378614801
209.5,0.01607712358903032
209.501,0.009059850417424506
209.502,0.0024062800517459858
209.50300000000001,0.01606134406722519
209.50400000000002,0.028604562243166622
209.505,0.03671635369441165
209.506,0.0381012025607769
209.507,0.032218186347764376
209.508,0.02047177184549926
209.50900000000001,0.0058109261188421775
209.51000000000002,0.008128349842482042
209.511,0.018063270762598078
209.512,0.021965696027183363
209.513,0.019558091053123117
209.514,0.012273632300037071
209.51500000000001,0.002720993819744014
209.51600000000002,0.006155784532141313
209.517,0.011949589401042678
209.518,0.013429621161561956
209.519,0.010773034654851672
209.52,0.0053531049269463366
209.52100000000002,0.0008112736275692375
209.52200000000002,0.005743046673659837
209.523,0.008104514713946015
209.524,0.0075273873519601
209.525,0.0046001224834624575
209.526,0.0005548767432885315
209.52700000000002,0.003210593568572347
209.52800000000002,0.005601038447844363
209.529,0.0061290912426329855
209.53,0.004976605527037398
209.531,0.0028225949359096487
209.532,0.000527520031576212
209.53300000000002,0.0011964052302118463
209.53400000000002,0.002009052034588161
209.535,0.0019923636829098975
209.536,0.001530193174568235
209.537,0.0010855587349673386
209.538,0.0009759628670118738
209.53900000000002,0.0012395214313693718
209.54000000000002,0.0016413468267809969
209.541,0.0018094025177651483
209.542,0.0014358519340431702
209.543,0.000454081526801241
209.544,0.0008876669513249078
209.54500000000002,0.0020926933895113776
209.54600000000002,0.002601693311618648
209.547,0.002027778402015132
209.548,0.0003473990602911302
209.549,0.0020332416527928973
209.55,0.004372393087016515
209.55100000000002,0.005824108558046258
209.55200000000002,0.005730376421371716
209.553,0.00387119020655739
209.554,0.0005799669613377494
209.555,0.003324193631513853
209.556,0.006773097189022321
209.55700000000002,0.008780990808170517
209.55800000000002,0.008761872975656641
209.559,0.006725194043289364
209.56,0.0032813646490138914
209.561,0.0005485819721141636
209.562,0.0036590388344144593
209.56300000000002,0.005215148505759501
209.56400000000002,0.0049199449819683876
209.565,0.0031040209308208196
209.566,0.0006065098626650841
209.567,0.001515063174247159
209.568,0.0023517873746335158
209.56900000000002,0.0014669156023662988
209.57000000000002,0.0009312539567546368
209.571,0.0040265081029412335
209.572,0.0066341657314067624
209.573,0.007570518380583348
209.574,0.006038244671972763
209.57500000000002,0.001907938061436297
209.57600000000002,0.004192701603709771
209.577,0.011012077656490905
209.578,0.01699342584636261
209.579,0.020687246537793465
209.58,0.021139010859260624
209.58100000000002,0.018142627705345308
209.58200000000002,0.01229086593641899
209.583,0.004813338769471611
209.584,0.0027473083954608376
209.585,0.008927157604327784
209.586,0.012692174285702146
209.58700000000002,0.013656803610544332
209.58800000000002,0.012119544448867493
209.589,0.008918252923240002
209.59,0.005157142345822738
209.591,0.0018890711150211458
209.592,0.0001569806632341944
209.59300000000002,0.000732428360336139
209.59400000000002,7.62003877413173e-05
209.595,0.0012168619057231328
209.596,0.002417641184213608
209.597,0.0029039699597548725
209.598,0.0023504216699783147
209.59900000000002,0.0008150268324852927
209.60000000000002,0.001296040141407731
209.601,0.003368668274909782
209.602,0.004779518521189818
209.603,0.005092187377091556
209.604,0.004193076752756826
209.60500000000002,0.0023287187863480136
209.60600000000002,3.588149989347391e-05
209.607,0.002013200637993573
209.608,0.003204380822353799
209.609,0.0031577885802922443
209.61,0.0018365668257314409
209.61100000000002,0.0004418449211510315
209.61200000000002,0.0030937420098002297
209.613,0.005430259184169471
209.614,0.006845181320618243
209.615,0.006976500008061656
209.616,0.005797321021368233
209.61700000000002,0.003612728273756588
209.618,0.0009663912769208904
209.619,0.0015138814165123415
209.62,0.0032861027570377857
209.621,0.0040313211450251005
209.622,0.0037211774999529705
209.62300000000002,0.0026005956843789643
209.624,0.0010957191758133602
209.625,0.00032151123148916157
209.626,0.0012697568115196919
209.627,0.0015555379004506052
209.62800000000001,0.0012055472660939847
209.62900000000002,0.00042970555522464616
209.63,0.0004676717381909526
209.631,0.001196158313299831
209.632,0.0015705577684749818
209.633,0.00155685977204024
209.63400000000001,0.0012611710666491143
209.63500000000002,0.0008697928865340574
209.636,0.0005648012887561512
209.637,0.0004467972560183869
209.638,0.00049276880675569
209.639,0.0005638186254475631
209.64000000000001,0.0004595570252988233
209.64100000000002,5.620146900271845e-07
209.642,0.000898180387129247
209.643,0.002167811378799702
209.644,0.0035975426253126636
209.645,0.004880125211798413
209.64600000000002,0.005698789109019419
209.64700000000002,0.005820297741570827
209.648,0.005165157457972757
209.649,0.0038323377643834345
209.65,0.0020707785442654687
209.651,0.00020733384149667473
209.65200000000002,0.0014451663259064528
209.65300000000002,0.0026699904215058724
209.654,0.0033928090483774844
209.655,0.0036786939857009725
209.656,0.0036830014475881224
209.657,0.0035748079284646647
209.65800000000002,0.003460660158441322
209.65900000000002,0.00333610338409818
209.66,0.0030828725348974215
209.661,0.0025139376871991244
209.662,0.0014519707126554881
209.663,0.00018525441080542943
209.66400000000002,0.002322466485516557
209.66500000000002,0.004711036789880891
209.666,0.006968842760149596
209.667,0.008667280476151925
209.668,0.009441317210363235
209.669,0.009090179300740306
209.67000000000002,0.007637977944629358
209.67100000000002,0.005334920811213826
209.672,0.0025973354856111404
209.673,9.68580006311638e-05
209.674,0.002327062896427016
209.675,0.0038287597242770703
209.67600000000002,0.00454374288192912
209.67700000000002,0.004608417514358401
209.678,0.004285819952660539
209.679,0.0038643362585634006
209.68,0.003556202421060436
209.681,0.0034285543586458425
209.68200000000002,0.003389079761713478
209.68300000000002,0.0032305138856889076
209.684,0.002718913042169982
209.685,0.0016959827008202065
209.686,0.00016049533955636068
209.687,0.0017001550495330815
209.68800000000002,0.0035416751490146875
209.68900000000002,0.0049510220651530195
209.69,0.0055655522882524
209.691,0.0051868301698306685
209.692,0.0038531484701175797
209.693,0.001846587887950176
209.69400000000002,0.00036996167871943035
209.69500000000002,0.0022690829987821524
209.696,0.0033953636727029226
209.697,0.0034829584080736855
209.698,0.0025208651070758744
209.699,0.0007486254832600998
209.70000000000002,0.0014138714842949374
209.70100000000002,0.003479607326751258
209.702,0.005016391561470326
209.703,0.005743014133758388
209.704,0.005575529895258567
209.705,0.004616895863834739
209.70600000000002,0.0031011920496916974
209.70700000000002,0.0013163210212891018
209.708,0.0004675572082068871
209.709,0.002043041668579376
209.71,0.0032763469997740668
209.711,0.004090948215520338
209.71200000000002,0.004441169383854697
209.71300000000002,0.004294866637169361
209.714,0.003637590794239568
209.715,0.0024980758510056086
209.716,0.0009819720594864089
209.717,0.0007068746842325665
209.71800000000002,0.0022768577032856274
209.71900000000002,0.003399325426483689
209.72,0.0037918081362953602
209.721,0.0033102269361305003
209.722,0.00201791813106401
209.723,0.0002021028749535863
209.72400000000002,0.001677095240985607
209.72500000000002,0.003098066419368888
209.726,0.0036206197944512694
209.727,0.00301755662643634
209.728,0.0013519903405495271
209.729,0.001027723102855709
209.73000000000002,0.003578119623197299
209.73100000000002,0.005710670607955405
209.732,0.006955996573820988
209.733,0.0070906893547254
209.734,0.006186720242115204
209.735,0.004568847568438129
209.73600000000002,0.0026962443499179293
209.73700000000002,0.0010100391150181928
209.738,0.00020049950104513957
209.739,0.0008679560564430379
209.74,0.0011314532423603503
209.741,0.0012460119496216016
209.74200000000002,0.0014544183862208297
209.743,0.0018733061343980608
209.744,0.0024396006988764997
209.745,0.002940077393481301
209.746,0.003113866955514467
209.747,0.002787503247002934
209.74800000000002,0.0019862405758782676
209.749,0.0009707004189066443
209.75,0.00017363528365851164
209.751,4.922055988934379e-05
209.752,0.0008833642993794622
209.75300000000001,0.0026343780222326946
209.75400000000002,0.004870059144557731
209.755,0.00683915032067893
209.756,0.007670572218242752
209.757,0.006647533553040488
209.758,0.0034718876939843933
209.75900000000001,0.0015709535378982458
209.76000000000002,0.007611124673952258
209.761,0.01337345387431793
209.762,0.017495751675809655
209.763,0.018898588286646853
209.764,0.01709815596245403
209.76500000000001,0.012366742934787409
209.76600000000002,0.005688708842855109
209.767,0.0014796451535521874
209.768,0.00757933088894487
209.769,0.01134195344258161
209.77,0.012096198621073683
209.77100000000002,0.009904791264541525
209.77200000000002,0.0055015861431933055
209.773,5.8070976211726634e-05
209.774,0.00514353802741405
209.775,0.009031747546365435
209.776,0.01097289966689937
209.77700000000002,0.010851594041769991
209.77800000000002,0.009001671278119041
209.779,0.006030692300184863
209.78,0.002608016661959406
209.781,0.0007121445899832101
209.782,0.0035839988748429434
209.78300000000002,0.005867623607467286
209.78400000000002,0.00755474664942158
209.785,0.008670011193413549
209.786,0.009197345322991162
209.787,0.009063765946387818
209.788,0.00818401906966657
209.78900000000002,0.006540968109447249
209.79000000000002,0.004259922459606328
209.791,0.0016364904883032752
209.792,0.000903855123619093
209.793,0.002908102639325904
209.794,0.004026972286631216
209.79500000000002,0.004127863443732262
209.79600000000002,0.003345935907912603
209.797,0.0020504719055278024
209.798,0.0007337459561793944
209.799,0.00014207414417649622
209.8,0.00028854114680921747
209.80100000000002,0.0003239279669223128
209.80200000000002,0.0014682411995575494
209.803,0.0027484761357862335
209.804,0.003741779300587593
209.805,0.0041441838253064005
209.806,0.0038696348278478955
209.80700000000002,0.0030689247018547165
209.80800000000002,0.002064182247433597
209.809,0.0012245155488843865
209.81,0.0008286708996312163
209.811,0.0009641049155424866
209.812,0.0014977758778890347
209.81300000000002,0.002127670192531189
209.81400000000002,0.0024952418379256703
209.815,0.00231785857396234
209.816,0.0014942594218705426
209.817,0.00014661464624943376
209.818,0.0014142528880361125
209.81900000000002,0.002787098502655929
209.82000000000002,0.003607403699855454
209.821,0.0036605470147637966
209.822,0.002944788401907534
209.823,0.0016664248249633705
209.824,0.0001727649665372097
209.82500000000002,0.0011517760340906062
209.82600000000002,0.001991631987791313
209.827,0.002176259110581686
209.828,0.0017079628439268769
209.829,0.0007406158235479289
209.83,0.00047597493334637755
209.83100000000002,0.0016633218925181479
209.83200000000002,0.0025718388909917764
209.833,0.0030163438661117634
209.834,0.0028887387638192766
209.835,0.0021562860700193452
209.836,0.0008568953465654371
209.83700000000002,0.0009009695462714048
209.83800000000002,0.0029342363521242905
209.839,0.004985429697107103
209.84,0.006738975557793839
209.841,0.00786206174196546
209.842,0.008069096074009957
209.84300000000002,0.007197006023889772
209.84400000000002,0.005269505528783934
209.845,0.002526415441559456
209.846,0.0005989652896187321
209.847,0.003557130759949355
209.848,0.005799796436017561
209.84900000000002,0.0069088468624738855
209.85000000000002,0.0067021265006124014
209.851,0.005285873786223371
209.852,0.0030374207534817005
209.853,0.0005206505142603959
209.854,0.0016452401508814285
209.85500000000002,0.002931245532460167
209.85600000000002,0.0030232700570073396
209.857,0.0018975995411917854
209.858,0.00016833998647454811
209.859,0.0026502731154600407
209.86,0.004883574004913324
209.86100000000002,0.006200453911015734
209.86200000000002,0.006072678924741013
209.863,0.004235041251560198
209.864,0.0007677051253312153
209.865,0.0038799411467934693
209.866,0.008934961036791682
209.86700000000002,0.01341797834475648
209.868,0.016321043904771997
209.869,0.01682045861818655
209.87,0.014484229321571654
209.871,0.009424921362964979
209.872,0.002350633354895172
209.87300000000002,0.005517116915254272
209.874,0.01266055346117591
209.875,0.017583325863680707
209.876,0.019160538368778957
209.877,0.016933478173927607
209.87800000000001,0.011264893107071114
209.87900000000002,0.0032997209025650274
209.88,0.005274745296037011
209.881,0.012619065337453708
209.882,0.01718553228244195
209.883,0.01809765215231552
209.88400000000001,0.015359639598232189
209.88500000000002,0.009835136809261121
209.886,0.0029993322739678588
209.887,0.003465566281448113
209.888,0.008115549509742134
209.889,0.010103532384939698
209.89000000000001,0.009352120689827959
209.89100000000002,0.006499172825029407
209.892,0.002645082445076565
209.893,0.0010098373066609692
209.894,0.003519925405960051
209.895,0.004432235729312878
209.89600000000002,0.0038440778431794703
209.89700000000002,0.0022795462563703086
209.898,0.00044493828707633354
209.899,0.0010405066877604164
209.9,0.0018413801687076341
209.901,0.0019672603837253833
209.90200000000002,0.0016903948980924017
209.90300000000002,0.0013675165251406081
209.904,0.0012482478894361925
209.905,0.0013539277951746362
209.906,0.001478503384645471
209.907,0.0013101458993658684
209.90800000000002,0.0006193827088271209
209.90900000000002,0.0005720055208667593
209.91,0.0019239455373230591
209.911,0.0028575632517847203
209.912,0.0027666434611468855
209.913,0.001288488013278306
209.91400000000002,0.0014719624805100693
209.91500000000002,0.004864967490695444
209.916,0.007819911493371001
209.917,0.009152783111513869
209.918,0.00796773629922951
209.919,0.0040180732193789695
209.92000000000002,0.0021076119813887013
209.92100000000002,0.009059164637802677
209.922,0.01505984031974437
209.923,0.018413433718000582
209.924,0.018028906379171518
209.925,0.013791594591287221
209.92600000000002,0.006651377130772693
209.92700000000002,0.0016145160517144462
209.928,0.008901098918285761
209.929,0.013386682353564472
209.93,0.014064147523176673
209.931,0.0110234875190157
209.93200000000002,0.00539534648200948
209.93300000000002,0.0010251798637190375
209.934,0.006351271894890629
209.935,0.009187040410955137
209.936,0.009032140024493792
209.937,0.0063815316494198766
209.93800000000002,0.0024965095881945096
209.93900000000002,0.0010671486540525567
209.94,0.003008654608223578
209.941,0.002721613684155437
209.942,0.0004771736871238486
209.943,0.0027047944240692714
209.94400000000002,0.005444319772275744
209.94500000000002,0.006509498866651124
209.946,0.005265529396728804
209.947,0.001909581764483812
209.948,0.0025869836520740624
209.949,0.006805391224821718
209.95000000000002,0.009359434838923344
209.95100000000002,0.009362356162577625
209.952,0.00672193415217983
209.953,0.0021670454557402817
209.954,0.0029973639587498784
209.955,0.007317589171173196
209.95600000000002,0.009652218700436114
209.95700000000002,0.009511830185822249
209.958,0.007169095598081525
209.959,0.003513514522245489
209.96,0.00028667997491004036
209.961,0.00318958221613253
209.96200000000002,0.004608680274711366
209.96300000000002,0.004556444526417414
209.964,0.003563483180351167
209.965,0.002415751490597061
209.966,0.0018154985536899943
209.967,0.002094793482146241
209.96800000000002,0.0030866512336594743
209.96900000000002,0.004197913771791671
209.97,0.004652935413907729
209.971,0.003814983715469327
209.972,0.0014649492919595458
209.973,0.002066638378699074
209.97400000000002,0.005964990322576978
209.97500000000002,0.009174012409532199
209.976,0.010734483231683429
209.977,0.010102262206784568
209.978,0.007338868011030353
209.979,0.0031109820765147437
209.98000000000002,0.0014999396392663313
209.98100000000002,0.005314418197840653
209.982,0.007395464509392547
209.983,0.007306548342814389
209.984,0.005211857862587988
209.985,0.0017973661531519402
209.98600000000002,0.0019517151520235363
209.98700000000002,0.005040078864799134
209.988,0.00672757615867814
209.989,0.006696516367301416
209.99,0.005084941086137712
209.991,0.0023945742346027352
209.99200000000002,0.0006818190489486797
209.993,0.003452385532598751
209.994,0.005381785622694173
209.995,0.006177125851252616
209.996,0.005799381300476986
209.997,0.004418880314983129
209.99800000000002,0.0023442975564609745
209.999,4.840173605379693e-05
210.0,0.002372972744214134
210.001,0.004275693429090926
210.002,0.005472047729255681
210.00300000000001,0.005784431933798594
210.00400000000002,0.0051794520528708945
210.005,0.003792849190167126
210.006,0.001924514928856912
210.007,9.83299753918541e-06
210.008,0.0015698833466371023
210.00900000000001,0.0024058192729972967
210.01000000000002,0.0023629747226963944
210.011,0.0015377604805976673
210.012,0.00025769197270904753
210.013,0.001017543058843314
210.014,0.0018479524976976534
210.01500000000001,0.0019690218605913907
210.01600000000002,0.0013953613569567783
210.017,0.00042967250453592067
210.018,0.000434545164987759
210.019,0.0006898438486463052
210.02,1.2772839236658862e-05
210.02100000000002,0.0015882899107867155
210.02200000000002,0.003734111600243722
210.023,0.005768049708691915
210.024,0.0069594133090531115
210.025,0.006752927696089126
210.026,0.004979488384106141
210.02700000000002,0.001951403325256988
210.02800000000002,0.0015989485982929245
210.029,0.004726001618363014
210.03,0.006561578225019255
210.031,0.006595719621055263
210.032,0.004853734282588767
210.03300000000002,0.0019070281907000578
210.03400000000002,0.0012909468958232516
210.035,0.003694340337475573
210.036,0.004488509526982625
210.037,0.0033438613010262053
210.038,0.0005187187961662916
210.03900000000002,0.0032204252139043234
210.04000000000002,0.006833152100852099
210.041,0.009316114686790897
210.042,0.009990224876019244
210.043,0.008674722109460598
210.044,0.005699554624708729
210.04500000000002,0.0017630489020567523
210.04600000000002,0.002307309909159287
210.047,0.005804403719652378
210.048,0.008317267374020722
210.049,0.009780867698754598
210.05,0.010396279268520662
210.05100000000002,0.010465193273987577
210.05200000000002,0.010211948192275293
210.053,0.009667121085100504
210.054,0.008659579471326272
210.055,0.006919384701536205
210.056,0.004248884471147275
210.05700000000002,0.0006905865204222581
210.05800000000002,0.003381268271514291
210.059,0.007292294709751529
210.06,0.010224819281518494
210.061,0.011454941853058887
210.062,0.010592249337591897
210.06300000000002,0.007738756055497462
210.06400000000002,0.003506978240480697
210.065,0.0011180718168678082
210.066,0.0050369401790466934
210.067,0.0073375678657687845
210.068,0.007549000315914093
210.06900000000002,0.005769196917417657
210.07000000000002,0.0026282556872778864
210.071,0.0009006111457113254
210.072,0.0037837196268166984
210.073,0.005217636387542875
210.074,0.0048428235957124425
210.07500000000002,0.0028215347478841354
210.07600000000002,0.0002355922363772403
210.077,0.0034643119216058948
210.078,0.005999312448412267
210.079,0.00720860047322767
210.08,0.006845030445688671
210.08100000000002,0.005079708822316227
210.08200000000002,0.002419127494677288
210.083,0.00045921152505736613
210.084,0.002898635160227458
210.085,0.004427109173699651
210.086,0.004852192001835683
210.08700000000002,0.0042706929591650065
210.08800000000002,0.003002244324041485
210.089,0.001475299349851754
210.09,0.00010249165253849212
210.091,0.0008207292257951803
210.092,0.001171862603949631
210.09300000000002,0.0010045822161208631
210.09400000000002,0.000506813653033903
210.095,6.912582792002317e-05
210.096,0.00048322152447190334
210.097,0.0005717715107079617
210.098,0.0002846758759472666
210.09900000000002,0.0003105401745592724
210.10000000000002,0.001056629206516892
210.101,0.0017580291383071675
210.102,0.0022420172166208213
210.103,0.0024131537878210084
210.104,0.002285351353645209
210.10500000000002,0.001980686535100713
210.10600000000002,0.0016924961148376428
210.107,0.001620780634163126
210.108,0.0018977086768501104
210.109,0.00252675241630676
210.11,0.0033579465962841485
210.11100000000002,0.004113002530960338
210.11200000000002,0.004459170903501096
210.113,0.0041139921193554104
210.114,0.0029499826519696834
210.115,0.0010640348128770417
210.116,0.001216405169253658
210.11700000000002,0.003400508851876603
210.118,0.004961325366204836
210.119,0.005488403719480719
210.12,0.004819159656179649
210.121,0.0031050867861631957
210.122,0.0007866143366336122
210.12300000000002,0.0015217303684630947
210.124,0.0032049292956022094
210.125,0.0038280944457081685
210.126,0.0032675108085403475
210.127,0.0017491544801820427
210.12800000000001,0.0002198775112377096
210.12900000000002,0.002007423601116204
210.13,0.0030515328765953922
210.131,0.003033301773346905
210.132,0.001972331237291985
210.133,0.00021476460566036986
210.13400000000001,0.00168120446991298
210.13500000000002,0.0031241869523762926
210.136,0.003674225030888216
210.137,0.003173867490632497
210.138,0.0017854107865613428
210.139,7.388220898130917e-05
210.14000000000001,0.001872780899088429
210.14100000000002,0.0031332831732747094
210.142,0.003567648851450381
210.143,0.0031421509580400065
210.144,0.002052041663437017
210.145,0.0006240491555865202
210.14600000000002,0.0008126904061024555
210.14700000000002,0.0020375853199927347
210.148,0.0029914628937169996
210.149,0.003755528379520686
210.15,0.004469832979537286
210.151,0.005228085506014884
210.15200000000002,0.005994535049758689
210.15300000000002,0.0065798442466546035
210.154,0.006689779526081635
210.155,0.006031867439132129
210.156,0.004441651694592009
210.157,0.0019806602241941285
210.15800000000002,0.0010336714927562328
210.15900000000002,0.0040828781731336045
210.16,0.006574269347626103
210.161,0.008001144695874363
210.162,0.008085411438363166
210.163,0.006856657915139341
210.16400000000002,0.004642482950028379
210.16500000000002,0.001973924696007312
210.166,0.000562981081579393
210.167,0.0024824067934073385
210.168,0.0035137177904988517
210.169,0.003644826397623324
210.17000000000002,0.0030874428308826952
210.17100000000002,0.002183003521311927
210.172,0.001284990854441877
210.173,0.0006568180458079629
210.174,0.0004144201221111306
210.175,0.0005239699211624931
210.17600000000002,0.0008452696676553296
210.17700000000002,0.0011976456501628383
210.178,0.0014219085500506133
210.179,0.001419036480343938
210.18,0.0011595426865411854
210.181,0.0006707455842413034
210.18200000000002,1.6688201562040452e-05
210.18300000000002,0.0007154952992340389
210.184,0.0014171736701121393
210.185,0.0019530929086533147
210.186,0.0021626584791499107
210.187,0.0018810036750762766
210.18800000000002,0.000984901385269326
210.18900000000002,0.00054523789750154
210.19,0.00256927085838371
210.191,0.0047651508121076165
210.192,0.006663243230440562
210.193,0.007742868947836454
210.19400000000002,0.007573639109696509
210.19500000000002,0.005962964467240662
210.196,0.0030606451797148505
210.197,0.0006226578151064103
210.198,0.004303881362921452
210.199,0.00711088992326406
210.20000000000002,0.008315729579652846
210.20100000000002,0.007551422171273481
210.202,0.0049443564204609105
210.203,0.0011148355608836921
210.204,0.0029643056766171655
210.205,0.006218106834835603
210.20600000000002,0.007761024645276634
210.20700000000002,0.007146352348472685
210.208,0.004500044753395763
210.209,0.0004979779645024311
210.21,0.003808917287185467
210.211,0.007272890286521881
210.21200000000002,0.008952637383343256
210.21300000000002,0.008357315604200367
210.214,0.005566013146980149
210.215,0.001194824311536938
210.216,0.0037724618053057994
210.217,0.008237245081385899
210.21800000000002,0.011250588156040065
210.21900000000002,0.012220221761302523
210.22,0.011013334220636025
210.221,0.007941603296127786
210.222,0.003647940564293829
210.223,0.0010626316173446896
210.22400000000002,0.005398214806791486
210.22500000000002,0.008719769599285589
210.226,0.010622241456213362
210.227,0.01095506316456266
210.228,0.009796335020763035
210.229,0.007402091242324473
210.23000000000002,0.0041496795599047735
210.23100000000002,0.00048579193141183883
210.232,0.003119701165608215
210.233,0.0062185627913484065
210.234,0.00843168726944694
210.235,0.009497858331888886
210.23600000000002,0.009315304899966166
210.23700000000002,0.007963259775979748
210.238,0.005692158658052318
210.239,0.0028787012524807507
210.24,4.6823979799047074e-05
210.241,0.0026832608885242223
210.24200000000002,0.004728793217794364
210.243,0.006019229379898649
210.244,0.006525554888381457
210.245,0.006316295952107632
210.246,0.005502862565453698
210.247,0.004191814357006952
210.24800000000002,0.0024642615368600357
210.249,0.0003904024083373524
210.25,0.0019289833092327948
210.251,0.004316025843082924
210.252,0.006491668298203364
210.25300000000001,0.008095658458853246
210.25400000000002,0.00875659355233615
210.255,0.008197594940264907
210.256,0.006345665530171374
210.257,0.0034051846454599107
210.258,0.0001377763830460838
210.25900000000001,0.003594493405724661
210.26000000000002,0.006223793115994023
210.261,0.007416319422213201
210.262,0.006861031234014719
210.263,0.004643250012018057
210.264,0.001241152172720622
210.26500000000001,0.00258337802529416
210.26600000000002,0.005972140597216153
210.267,0.00818497154301645
210.268,0.008781220699562624
210.269,0.007718169325122625
210.27,0.005341022734200021
210.27100000000002,0.002271219598290492
210.27200000000002,0.0007709426510235232
210.273,0.003155987226919092
210.274,0.004493362389104255
210.275,0.004699915282861871
210.276,0.003977077254197937
210.27700000000002,0.0027131952006646935
210.27800000000002,0.0013482626070598239
210.279,0.00024573965544312054
210.28,0.000391177774641829
210.281,0.0005400269540988084
210.282,0.00032021956771243994
210.28300000000002,8.218591181735941e-05
210.28400000000002,0.000493923286657403
210.285,0.0008089503641297923
210.286,0.0010016894128029553
210.287,0.001100592976252046
210.288,0.0011391844760296756
210.28900000000002,0.0011096845603145577
210.29000000000002,0.0009420721042341904
210.291,0.0005202078599241645
210.292,0.0002690541853545176
210.293,0.0014720465788687648
210.294,0.0030154312263233596
210.29500000000002,0.004687785001549456
210.29600000000002,0.006168020436799138
210.297,0.007096904525591954
210.298,0.007172397498495363
210.299,0.0062400204967001886
210.3,0.004349364808439615
210.30100000000002,0.0017573793443879677
210.30200000000002,0.0011248086597995149
210.303,0.0038272970426772887
210.304,0.00593162049702113
210.305,0.007163775809109549
210.306,0.007443573648125935
210.30700000000002,0.006877667891107209
210.30800000000002,0.005701354281099127
210.309,0.004190201191075173
210.31,0.0025716636883548233
210.311,0.0009661048882096111
210.312,0.0006237140083633611
210.31300000000002,0.0022723531564984275
210.31400000000002,0.004056072016239577
210.315,0.005970331264898623
210.316,0.007872728702864817
210.317,0.009476727009344694
210.318,0.01040555175877658
210.31900000000002,0.010295371214104343
210.32000000000002,0.008918669835533785
210.321,0.006288651671083568
210.322,0.0027073999015470394
210.323,0.0012653337536565692
210.324,0.004923005641660905
210.32500000000002,0.007578179667545735
210.32600000000002,0.008739475563141098
210.327,0.008248383795183892
210.328,0.006332857882358957
210.329,0.00355658691415641
210.33,0.0006728696268232528
210.33100000000002,0.0015787553181165754
210.33200000000002,0.002675692554301689
210.333,0.0024551866240792608
210.334,0.001152602157314548
210.335,0.0006789236287136124
210.336,0.0023453532944329755
210.33700000000002,0.0032322540916351044
210.33800000000002,0.0030006354719383566
210.339,0.00169547533706116
210.34,0.000269784860275023
210.341,0.002250697247920613
210.342,0.003589421003591135
210.34300000000002,0.003842928542761472
210.34400000000002,0.002946035783891549
210.345,0.0012518775685253789
210.346,0.0005694528930581395
210.347,0.0017471721311014962
210.348,0.001674546901265707
210.34900000000002,0.00013616967925792457
210.35000000000002,0.0025803341834459677
210.351,0.0057324252760792595
210.352,0.00832491426825808
210.353,0.009410264879875004
210.354,0.008396300877505375
210.35500000000002,0.0052638679440649115
210.35600000000002,0.000621118893118271
210.357,0.004430567452375064
210.358,0.008586190804276512
210.359,0.010700261197914498
210.36,0.010116768145822169
210.36100000000002,0.006867290784202753
210.36200000000002,0.0016771300398440007
210.363,0.004223365908020843
210.364,0.009426985414485957
210.365,0.012721221468870657
210.366,0.013396115639528347
210.36700000000002,0.011403072539970041
210.368,0.007326417434167969
210.369,0.002186434907094839
210.37,0.0028586537900792256
210.371,0.00681877269025094
210.372,0.009097713393925604
210.37300000000002,0.009581741458680857
210.374,0.008581379520880502
210.375,0.006662956935114136
210.376,0.004437037687650401
210.377,0.002376666541179645
210.37800000000001,0.0007194270610961502
210.37900000000002,0.000528056407195416
210.38,0.0015028144977500225
210.381,0.0023625645187838875
210.382,0.0031818902128222717
210.383,0.003908835097353363
210.38400000000001,0.0043948212324954605
210.38500000000002,0.004479216834255245
210.386,0.0040873445592973035
210.387,0.003295682974415871
210.388,0.002332002596073121
210.389,0.001505402905883548
210.39000000000001,0.0010908583676897021
210.39100000000002,0.0012132372184619484
210.392,0.0017786795303309539
210.393,0.0024852060400319294
210.394,0.002915212768954974
210.395,0.0026809586260594133
210.39600000000002,0.0015722443859973307
210.39700000000002,0.000348190296352238
210.398,0.0027394953580620555
210.399,0.00507448560048228
210.4,0.00680024473761355
210.401,0.007513647564997879
210.40200000000002,0.007090785553469821
210.40300000000002,0.005723918011377674
210.404,0.003851193275688148
210.405,0.002002023178162016
210.406,0.0006113213387041071
210.407,0.00013210984376383497
210.40800000000002,0.0003485533317769503
210.40900000000002,0.0004174593277015385
210.41,0.0008297200329090294
210.411,0.001991997111579166
210.412,0.0040509641435632765
210.413,0.006800093900364503
210.41400000000002,0.009704717896686428
210.41500000000002,0.012041581109825082
210.416,0.013110438107768442
210.417,0.012450534265176236
210.418,0.009992427737954087
210.419,0.006096244305638993
210.42000000000002,0.0014640325642755181
210.42100000000002,0.0030459612676815993
210.422,0.0066449011306047145
210.423,0.008809836749298139
210.424,0.009393771934649249
210.425,0.008621717350650116
210.42600000000002,0.006982258470404497
210.42700000000002,0.005056233810097633
210.428,0.003340797944790007
210.429,0.0021237713212458134
210.43,0.0014420721932934266
210.431,0.0011273730008947976
210.43200000000002,0.0009128918359883617
210.43300000000002,0.0005572530730257631
210.434,6.00088190491703e-05
210.435,0.0009022032354009292
210.436,0.0018052186505462472
210.437,0.002555369384414088
210.43800000000002,0.0029812814958396446
210.43900000000002,0.0030231982924927552
210.44,0.0027542261700861173
210.441,0.0023479352026944877
210.442,0.002007522204585384
210.443,0.0018856705881727621
210.44400000000002,0.0020264620802955898
210.44500000000002,0.0023509437327566616
210.446,0.0026904342492581833
210.447,0.0028532972078187512
210.448,0.002698685175901695
210.449,0.002189071021667341
210.45000000000002,0.001402503181167362
210.45100000000002,0.0005016183226468022
210.452,0.00032685558955996885
210.453,0.0009375076173125139
210.454,0.0012709893387794996
210.455,0.0013616085978023673
210.45600000000002,0.0013067101793301252
210.45700000000002,0.0012124076413280078
210.458,0.001139858595794572
210.459,0.0010760432271332118
210.46,0.0009428800099193987
210.461,0.0006423411833974968
210.46200000000002,0.00011932082253627592
210.46300000000002,0.000585243366178036
210.464,0.001317047069837779
210.465,0.0018407320372195338
210.466,0.0019167527470814463
210.467,0.0013989357622477621
210.46800000000002,0.00031741705297130905
210.46900000000002,0.0010875870033066183
210.47,0.0024020133444122614
210.471,0.0031423197932123944
210.472,0.002901798379053389
210.473,0.0014951350064836332
210.47400000000002,0.0009466438342647553
210.47500000000002,0.003967166483459034
210.476,0.006873603749900564
210.477,0.008905436435280564
210.478,0.009438970961476929
210.479,0.008169741308166494
210.48000000000002,0.00521844394975471
210.48100000000002,0.0011262917319632376
210.482,0.0032631645385710795
210.483,0.007005947770212028
210.484,0.009289108685515335
210.485,0.009628924776302868
210.48600000000002,0.007982800255639863
210.48700000000002,0.0047468713706087275
210.488,0.0006439540270288891
210.489,0.0034632141150255885
210.49,0.006779467448119107
210.491,0.008749036714245702
210.49200000000002,0.00914947255498668
210.493,0.008091127027006699
210.494,0.005934393890874887
210.495,0.0031596513700899286
210.496,0.00023485368960710857
210.497,0.0024793714682485976
210.49800000000002,0.00476480018707015
210.499,0.0065219291676540305
210.5,0.0077095749798856885
210.501,0.008281264367635412
210.502,0.00815027912378143
210.50300000000001,0.007201511864599518
210.50400000000002,0.0053477746357191115
210.505,0.0026084775311583683
210.506,0.0008230511831319959
210.507,0.0045564532961942395
210.508,0.008044845742177668
210.50900000000001,0.010686769297483552
210.51000000000002,0.011965085376955814
210.511,0.011583114627614756
210.512,0.009555800718541452
210.513,0.006225223145763246
210.514,0.00219193688575035
210.51500000000001,0.0018207511828918007
210.51600000000002,0.005131804456595625
210.517,0.007250239760839657
210.518,0.00796521317104857
210.519,0.007356854884651387
210.52,0.005731650781016729
210.52100000000002,0.003509395507143571
210.52200000000002,0.0011020317845104103
210.523,0.0011762906910796698
210.524,0.003143173358768548
210.525,0.004723851592592119
210.526,0.005889308526368382
210.52700000000002,0.006590773408584679
210.52800000000002,0.006724870970134865
210.529,0.006149928119459072
210.53,0.004751379364857551
210.531,0.0025313870691713925
210.532,0.0003163315872343253
210.53300000000002,0.003384844145486453
210.53400000000002,0.006107716349329882
210.535,0.00788366544307887
210.536,0.00823990799006639
210.537,0.006983323848238641
210.538,0.004286743179215176
210.53900000000002,0.0006746486024088906
210.54000000000002,0.0030963520260590934
210.541,0.0062318807918705
210.542,0.008111674292105657
210.543,0.008452878728803953
210.544,0.007371958575859312
210.54500000000002,0.0053243480534215125
210.54600000000002,0.0029412524925531737
210.547,0.0008179874510088737
210.548,0.0006744455946366853
210.549,0.0014898826559307638
210.55,0.001884725301269321
210.55100000000002,0.0022808254964347694
210.55200000000002,0.003062786119216608
210.553,0.004384089910155868
210.554,0.006056007444722521
210.555,0.007566364512495593
210.556,0.008230444270590921
210.55700000000002,0.007428653319459507
210.55800000000002,0.004851744914183081
210.559,0.0006667965287533733
210.56,0.004460498931480793
210.561,0.009505927129851734
210.562,0.013353721970706703
210.56300000000002,0.015110551301494869
210.56400000000002,0.014367657265989325
210.565,0.011325865955325143
210.566,0.006740606987652107
210.567,0.0017017066328513146
210.568,0.0026835595206032986
210.56900000000002,0.0056039471329116545
210.57000000000002,0.006755227192174213
210.571,0.006383595870061204
210.572,0.00515193465948159
210.573,0.0038778081409308893
210.574,0.0032338513656492156
210.57500000000002,0.0035122425776068843
210.57600000000002,0.00453169467455224
210.577,0.005715912798610232
210.578,0.006313727174078479
210.579,0.0056831463444032984
210.58,0.003540594751213252
210.58100000000002,8.945661221630713e-05
210.58200000000002,0.004016032942713243
210.583,0.007859195844288262
210.584,0.010537968129694174
210.585,0.0114380905249306
210.586,0.010412926199917074
210.58700000000002,0.007813614372646886
210.58800000000002,0.004364664554608029
210.589,0.0009316383625103234
210.59,0.001738420162586131
210.591,0.003217832709530243
210.592,0.003478745439474477
210.59300000000002,0.002836016830522497
210.59400000000002,0.0017837816062994704
210.595,0.000792143756428848
210.596,0.00014043626721748777
210.597,0.00015444392962701877
210.598,0.0002945935726027159
210.59900000000002,0.0005669687606910087
210.60000000000002,0.0011769860664114138
210.601,0.0021195678704796824
210.602,0.0031420844918521934
210.603,0.0038177896300896587
210.604,0.0037053041028945926
210.60500000000002,0.0025354304665181626
210.60600000000002,0.0003537734749262788
210.607,0.0024388349934967675
210.608,0.0051709298068105935
210.609,0.007088510687395314
210.61,0.007587433888272272
210.61100000000002,0.006413286500302183
210.61200000000002,0.003760767985626881
210.613,0.00023690753642897257
210.614,0.003302930242352064
210.615,0.005995686774549767
210.616,0.0072128389599208295
210.61700000000002,0.006729775685891352
210.618,0.004772849930028666
210.619,0.0019349133303159102
210.62,0.0010082401548285388
210.621,0.0033190470475480682
210.622,0.004488069444864541
210.62300000000002,0.004339186821135461
210.624,0.003028381981000677
210.625,0.0009505475999841812
210.626,0.0014033823966743402
210.627,0.0035860118496769833
210.62800000000001,0.005285656234550088
210.62900000000002,0.0063505181495667725
210.63,0.006752636704700693
210.631,0.006521620888365141
210.632,0.005686275965458679
210.633,0.004253982204693492
210.63400000000001,0.0022372612374507734
210.63500000000002,0.0002868886987510673
210.636,0.003116745281737447
210.637,0.0059004212646871475
210.638,0.008169457747855251
210.639,0.009433062331454373
210.64000000000001,0.009309458959663917
210.64100000000002,0.007652860661019664
210.642,0.004631000740272089
210.643,0.0007209441055851516
210.644,0.0033839389261251063
210.645,0.006933956777639821
210.64600000000002,0.009305361086563805
210.64700000000002,0.010151583215387745
210.648,0.009478777088428416
210.649,0.007624115830679197
210.65,0.005145197188757926
210.651,0.0026557673794244383
210.65200000000002,0.0006581394076144375
210.65300000000002,0.0005783945863935907
210.654,0.0010602654013404011
210.655,0.0010264284176333676
210.656,0.0008389351492933256
210.657,0.0008459628493629792
210.65800000000002,0.001261805459178795
210.65900000000002,0.002099963711040924
210.66,0.0031765147192939027
210.661,0.004178060024152514
210.662,0.004769119609492588
210.663,0.004703537313943602
210.66400000000002,0.0039056425514322505
210.66500000000002,0.002498194610800266
210.666,0.0007712316541872936
210.667,0.0008966947558135866
210.668,0.002140785001554084
210.669,0.00270675650464796
210.67000000000002,0.0025164384126226203
210.67100000000002,0.0016862519890079371
210.672,0.0004955368941196944
210.673,0.0006857498942963326
210.674,0.001491087711802572
210.675,0.0016499139306138974
210.67600000000002,0.001056322213264845
210.67700000000002,0.00020254842559828205
210.678,0.0018656392832488175
210.679,0.003560886160077334
210.68,0.004897723552492449
210.681,0.005567165099438374
210.68200000000002,0.005424262866423367
210.68300000000002,0.004530490018121412
210.684,0.0031423563462287477
210.685,0.0016458846979905976
210.686,0.00045143077210677517
210.687,0.0001242879533599346
210.68800000000002,4.3886803928937336e-05
210.68900000000002,0.0008415117289059238
210.69,0.0019340643287918554
210.691,0.002853165802091593
210.692,0.0031287625728044547
210.693,0.0024313680167577377
210.69400000000002,0.0006831396063257438
210.69500000000002,0.0018965482558659166
210.696,0.004827652749164355
210.697,0.007481141557367466
210.698,0.00923643388420617
210.699,0.009641123075865553
210.70000000000002,0.008528270153782368
210.70100000000002,0.006058794270530467
210.702,0.0026784482716169264
210.703,0.0009963389932220973
210.704,0.004329623634905015
210.705,0.006811144045897037
210.70600000000002,0.00815711029994359
210.70700000000002,0.008343940116939936
210.708,0.007573685820345541
210.709,0.006189657433615476
210.71,0.004572668116486863
210.711,0.003049307355217319
210.71200000000002,0.0018345902190610751
210.71300000000002,0.0010165554142383582
210.714,0.0005757998836304995
210.715,0.00042372496949647735
210.716,0.0004419708552319846
210.717,0.0005112582315125676
210.71800000000002,0.0005269773285265908
210.71900000000002,0.00040665467876507453
210.72,9.723956595327277e-05
210.721,0.00041300593218894353
210.722,0.0010802887021441692
210.723,0.0017978177174246509
210.72400000000002,0.0024064222182793304
210.72500000000002,0.002729961337465802
210.726,0.0026316850655236177
210.727,0.0020754156002178296
210.728,0.0011672075713669262
210.729,0.0001540058477006773
210.73000000000002,0.0006325009471272254
210.73100000000002,0.0008789116456498027
210.732,0.00041114008794283666
210.733,0.0007091350460379798
210.734,0.0021546105641798018
210.735,0.0033939759912539045
210.73600000000002,0.0038401222151355843
210.73700000000002,0.0030470849222203025
210.738,0.0008937121588793398
210.739,0.002313004241014761
210.74,0.005863488167765084
210.741,0.008810241089844763
210.74200000000002,0.010235026710741502
210.743,0.009542435223222793
210.744,0.006686032797561122
210.745,0.002245887429768064
210.746,0.002682466498246298
210.747,0.006769276495052255
210.74800000000002,0.008826834761414624
210.749,0.00816941190107318
210.75,0.0048435377878389
210.751,0.0003498362072566399
210.752,0.006057673088242262
210.75300000000001,0.010747958167008744
210.75400000000002,0.013144426928001874
210.755,0.01259165129492728
210.756,0.009238579454693653
210.757,0.00398406318016004
210.758,0.001798008443860595
210.75900000000001,0.006667496284747402
210.76000000000002,0.00953304358394158
210.761,0.00994556536718592
210.762,0.008183285882290066
210.763,0.005109636692440139
210.764,0.0018582694280977995
210.76500000000001,0.000546881937987349
210.76600000000002,0.0015114190208567967
210.767,0.0010293719381673531
210.768,0.00036301238642644104
210.769,0.0018134416314896091
210.77,0.0024759854298761455
210.77100000000002,0.0018173785565366893
210.77200000000002,0.0001951943246757975
210.773,0.0030834668683613485
210.774,0.006021590017327293
210.775,0.008112670537714101
210.776,0.008682209137326235
210.77700000000002,0.007491087466377988
210.77800000000002,0.004802201245704503
210.779,0.0012866645480156
210.78,0.0021909378986347382
210.781,0.004831774560900822
210.782,0.006121108702669419
210.78300000000002,0.005940793057057865
210.78400000000002,0.00455153717293718
210.785,0.002465798844159666
210.786,0.00026593283426555955
210.787,0.0015662959506894097
210.788,0.0027555932155166915
210.78900000000002,0.0032514101540153527
210.79000000000002,0.0031704287806003585
210.791,0.0027009826605814183
210.792,0.0020151199598150826
210.793,0.0012226991421340678
210.794,0.00037765849921802836
210.79500000000002,0.0004794019773250133
210.79600000000002,0.0012746599683922779
210.797,0.0018830171140315518
210.798,0.002155256098911141
210.799,0.0019826880077051866
210.8,0.001369613866903831
210.80100000000002,0.00047471490797156875
210.80200000000002,0.00040889414412924405
210.803,0.0009411868417155046
210.804,0.0008663479135986237
210.805,0.00013965257153335914
210.806,0.00100442102338688
210.80700000000002,0.002082202633866875
210.80800000000002,0.0024951223892120096
210.809,0.001734534199018703
210.81,0.0004084125098945272
210.811,0.003703958045377336
210.812,0.007475668572261942
210.81300000000002,0.010743105653786581
210.81400000000002,0.012484754648155011
210.815,0.011946765925416885
210.816,0.00890145883612094
210.817,0.003769074281117754
210.818,0.002444787814653506
210.81900000000002,0.00838720325677241
210.82000000000002,0.01270701753070025
210.821,0.014414276580617438
210.822,0.013144447010775967
210.823,0.009250332055680984
210.824,0.0036970593093414036
210.82500000000002,0.002205130986798578
210.82600000000002,0.007148467208085362
210.827,0.010153582018309305
210.828,0.010783897469729619
210.829,0.009197544221451052
210.83,0.006037794612100244
210.83100000000002,0.0022103530994820133
210.83200000000002,0.0013761436019504296
210.833,0.004028736080262344
210.834,0.005393339458273089
210.835,0.005465369175478498
210.836,0.004508036126331497
210.83700000000002,0.0029232591559175585
210.83800000000002,0.0011253115943963693
210.839,0.0005460284944888361
210.84,0.001860106882048853
210.841,0.0026888180906624913
210.842,0.0029836065128721408
210.84300000000002,0.0027600889155642776
210.84400000000002,0.002101228808334203
210.845,0.0011719968468397088
210.846,0.00022501128686834205
210.847,0.00042503601931622825
210.848,0.0004685469295784448
210.84900000000002,0.0003005704879337749
210.85000000000002,0.0018860806377523351
210.851,0.004031357434130001
210.852,0.006237010588192271
210.853,0.007866454688083975
210.854,0.008319706048091076
210.85500000000002,0.007226243646018754
210.85600000000002,0.0045929102472330825
210.857,0.0008500861413982749
210.858,0.0032315946709743997
210.859,0.006739572568354162
210.86,0.008877384907637693
210.86100000000002,0.009202248908591882
210.86200000000002,0.007763491423292595
210.863,0.00509191019699397
210.864,0.0020377172251813103
210.865,0.0004946915392832131
210.866,0.0018307864078532733
210.86700000000002,0.0017358749822695906
210.868,0.00048094556119291395
210.869,0.0012584765787034481
210.87,0.002637531533977593
210.871,0.002933034361681967
210.872,0.0017929233392562775
210.87300000000002,0.00063930181463315
210.874,0.0037662332768338947
210.875,0.006729078125138666
210.876,0.00868500023440375
210.877,0.009075396463881981
210.87800000000001,0.00779585818656449
210.87900000000002,0.005213772828953604
210.88,0.002032705952319376
210.881,0.00094492020415468
210.882,0.0030720969252525576
210.883,0.004040957853208628
210.88400000000001,0.003936658336905532
210.88500000000002,0.00315058604449972
210.886,0.002193118217346955
210.887,0.0014812350853493042
210.888,0.0011829098237322465
210.889,0.0011762376181782045
210.89000000000001,0.0011358449570455877
210.89100000000002,0.000709213315732552
210.892,0.0002901704199042915
210.893,0.0017539203777322862
210.894,0.0032720602166899948
210.895,0.004260293091286831
210.89600000000002,0.004180541565784726
210.89700000000002,0.0027748366875506372
210.898,0.00022175676336962715
210.899,0.00285274435442071
210.9,0.005529032537943608
210.901,0.006871874963064325
210.90200000000002,0.00624484593527824
210.90300000000002,0.003553882479530002
210.904,0.0006694178476950829
210.905,0.005384193008651738
210.906,0.009329794269241305
210.907,0.01140186437093096
210.90800000000002,0.010995655187713945
210.90900000000002,0.008203470890866574
210.91,0.0037975799547818397
210.911,0.0010013392508238072
210.912,0.004899664788789975
210.913,0.0069309738379038435
210.91400000000002,0.006751461416215344
210.91500000000002,0.004733684118054124
210.916,0.001826664264335468
210.917,0.000773157732315115
210.918,0.0020328826947333613
210.919,0.0014406563653485247
210.92000000000002,0.0008094650238675304
210.92100000000002,0.00386883944816274
210.922,0.006508161764287511
210.923,0.007526905685228994
210.924,0.0061655419868240635
210.925,0.002385145603962158
210.92600000000002,0.0030794284328172264
210.92700000000002,0.008914113699409386
210.928,0.01360926257027829
210.929,0.015912161850873806
210.93,0.015205325158945269
210.931,0.011690643482310479
210.93200000000002,0.006321369421952074
210.93300000000002,0.0005045051573238013
210.934,0.0043306287098306955
210.935,0.0071597328812261505
210.936,0.007651385876909233
210.937,0.006226251257050241
210.93800000000002,0.003873247597271485
210.93900000000002,0.0017872046952605708
210.94,0.0009498571996112459
210.941,0.0017931502255372697
210.942,0.004055309750265358
210.943,0.006875484040663831
210.94400000000002,0.009093358881975351
210.94500000000002,0.00965219921209562
210.946,0.007969710154740508
210.947,0.004152199841407951
210.948,0.001019910568989296
210.949,0.0063306015476278345
210.95000000000002,0.010511075776142293
210.95100000000002,0.012638703055467819
210.952,0.012418451891979565
210.953,0.010252796411643382
210.954,0.00707773232092661
210.955,0.004022211713976613
210.95600000000002,0.0020090333655003205
210.95700000000002,0.0014360847881136442
210.958,0.002050133508380357
210.959,0.0030594790622960263
210.96,0.0034486077069688114
210.961,0.0023858173375425097
210.96200000000002,0.00042122100716402507
210.96300000000002,0.0045533989067128395
210.964,0.008963045255933224
210.965,0.012296012428869312
210.966,0.01335204466579218
210.967,0.011528714439044628
210.96800000000002,0.007091582647022362
210.96900000000002,0.001164757231413898
210.97,0.004573643818281151
210.971,0.008406576402603108
210.972,0.009142904046236308
210.973,0.006545491065280383
210.97400000000002,0.0014717056901608898
210.97500000000002,0.004336907906721899
210.976,0.008766506781927213
210.977,0.009993947412720514
210.978,0.007094457942350697
210.979,0.00039659265987086853
210.98000000000002,0.00853963202718715
210.98100000000002,0.017329884582338452
210.982,0.023444689120298876
210.983,0.024958607318114237
210.984,0.021140781589981155
210.985,0.012703234848104735
210.98600000000002,0.0016266504861615807
210.98700000000002,0.009387299867599832
210.988,0.017673480596080957
210.989,0.0213435568331921
210.99,0.01978927140595824
210.991,0.013804418739463307
210.99200000000002,0.005300073469105255
210.993,0.0032881959309535645
210.994,0.00971218167364366
210.995,0.012524376659996908
210.996,0.01141540263035772
210.997,0.0071920620393221175
210.99800000000002,0.0014282815138057794
210.999,0.004079189044354689
211.0,0.007866306315911776
211.001,0.00919435533610686
211.002,0.008171039239252205
211.00300000000001,0.005588064132417053
211.00400000000002,0.0025573005656288456
211.005,8.778188776183737e-05
211.006,0.0012462443218421524
211.007,0.001439960812856224
211.008,0.000966866581299823
211.00900000000001,0.000516149808095412
211.01000000000002,0.000671095261583458
211.011,0.00165553750584075
211.012,0.0032428755085743316
211.013,0.004856424442262124
211.014,0.005816017015246201
211.01500000000001,0.005630994991246517
211.01600000000002,0.004223567722640478
211.017,0.0019939811671686033
211.018,0.00030088343492353723
211.019,0.001813555485654885
211.02,0.0019201672087435292
211.02100000000002,0.0004672284102874956
211.02200000000002,0.0021414694101629123
211.023,0.005053609612847283
211.024,0.007238925614391578
211.025,0.007830143253085042
211.026,0.0064176530665038525
211.02700000000002,0.0031971236586322946
211.02800000000002,0.0010798960708061727
211.029,0.005334809869358578
211.03,0.008492279911492298
211.031,0.009801630716993961
211.032,0.009045087700618026
211.03300000000002,0.006570026838696759
211.03400000000002,0.003143738530260731
211.035,0.00031147290070893477
211.036,0.003008156715763076
211.037,0.004511240690463802
211.038,0.004816898540114865
211.03900000000002,0.0042786111883189315
211.04000000000002,0.0034202624479556217
211.041,0.0027128099701651245
211.042,0.002398401271968726
211.043,0.002422719215713546
211.044,0.002492725610660924
211.04500000000002,0.0022296001761843366
211.04600000000002,0.0013528594616271994
211.047,0.00017703237556870491
211.048,0.0021118577606588297
211.049,0.0039814651482042145
211.05,0.005246987697908748
211.05100000000002,0.005485079889607436
211.05200000000002,0.004537261116539719
211.053,0.0025728923439269804
211.054,4.625607787655701e-05
211.055,0.002434753070971193
211.056,0.004282173786936283
211.05700000000002,0.005086898947487169
211.05800000000002,0.0047157056902965185
211.059,0.0033238280969100035
211.06,0.001290047835612495
211.061,0.0008954261163662366
211.062,0.002750609755657167
211.06300000000002,0.0038952803749046044
211.06400000000002,0.004101602841718939
211.065,0.003304329941993107
211.066,0.001586342936986605
211.067,0.0008423121952854839
211.068,0.0036617338038189124
211.06900000000002,0.006458645581333293
211.07000000000002,0.008755196163173051
211.071,0.010064558579426638
211.072,0.009978184532561996
211.073,0.008272466322596468
211.074,0.005005633251202755
211.07500000000002,0.0005675623895210831
211.07600000000002,0.004348457357408022
211.077,0.008862081447991018
211.078,0.012091305542443975
211.079,0.013360909614552727
211.08,0.01237409493406477
211.08100000000002,0.009293377864913119
211.08200000000002,0.0047021625455629336
211.083,0.0005445951326608762
211.084,0.005536319243386328
211.085,0.009523240276744036
211.086,0.012067896942889131
211.08700000000002,0.013089744685929685
211.08800000000002,0.012798937991885787
211.089,0.011554130090775164
211.09,0.009704250268007414
211.091,0.00747620843530712
211.092,0.004948569493767584
211.09300000000002,0.0021138868387881767
211.09400000000002,0.0010057779435305113
211.095,0.004249304279560792
211.096,0.0072713198575618965
211.097,0.009594002344362688
211.098,0.010747238370148331
211.09900000000002,0.010447860298898586
211.10000000000002,0.00874542914956106
211.101,0.0060669390309211375
211.102,0.003126087605407316
211.103,0.0007133344162560157
211.104,0.0005678105801713682
211.10500000000002,0.0005244472234757891
211.10600000000002,0.0005306461901742533
211.107,0.00186134297618274
211.108,0.002554830597738035
211.109,0.0018571163935193638
211.11,0.0005177575184389849
211.11100000000002,0.004220343354940576
211.11200000000002,0.008313973069043176
211.113,0.011540408558871163
211.114,0.012727102987475748
211.115,0.011204114200447271
211.116,0.007085679346021762
211.11700000000002,0.0013086896474651642
211.118,0.0046025115084050595
211.119,0.008983386554783276
211.12,0.010551065152651981
211.121,0.008830912245516671
211.122,0.004341876596679239
211.12300000000002,0.0015309256043956828
211.124,0.006946706520644925
211.125,0.010178290727178492
211.126,0.010160033715886163
211.127,0.006836809614281891
211.12800000000001,0.001197862324138376
211.12900000000002,0.0050200503672001955
211.13,0.009868826700924056
211.131,0.011795196582699168
211.132,0.01012460181655981
211.133,0.0052700355203081535
211.13400000000001,0.001397983788301404
211.13500000000002,0.007975340564556722
211.136,0.012604361289536336
211.137,0.014025408716888385
211.138,0.011929184799376864
211.139,0.007007236936528743
211.14000000000001,0.0006973956402541814
211.14100000000002,0.005282314496037277
211.142,0.009454880301708213
211.143,0.010994563783119929
211.144,0.009904720371716096
211.145,0.006923422499749408
211.14600000000002,0.003207466895453739
211.14700000000002,8.595763981830319e-05
211.148,0.002175182110259843
211.149,0.0028666333759232044
211.15,0.002545647510320769
211.151,0.0019651781431569704
211.15200000000002,0.0019187361329468537
211.15300000000002,0.002917543277024191
211.154,0.004983251934374921
211.155,0.007622212046996834
211.156,0.009982697843992727
211.157,0.01113557230627902
211.15800000000002,0.010381600205711165
211.15900000000002,0.007485652330835667
211.16,0.002767693154884196
211.161,0.002969749686936365
211.162,0.0086460831924022
211.163,0.013170752775714237
211.16400000000002,0.015695142369003014
211.16500000000002,0.015783056417937768
211.166,0.013467040150090724
211.167,0.009194970318460886
211.168,0.003700298800707427
211.169,0.002158040739525968
211.17000000000002,0.007544703732454584
211.17100000000002,0.011761001270826103
211.172,0.01431608082521708
211.173,0.014963780281210882
211.174,0.013716127228714795
211.175,0.010838884233071356
211.17600000000002,0.006825414034210582
211.17700000000002,0.0023393892344281274
211.178,0.0018804879124770565
211.179,0.005148949578241838
211.18,0.006974647045983524
211.181,0.007177875356350472
211.18200000000002,0.005947300222251387
211.18300000000002,0.003808168897401493
211.184,0.0014978823260447087
211.185,0.00022606989165376872
211.186,0.0007960440762426773
211.187,1.3849160095853894e-06
211.18800000000002,0.001939668819128586
211.18900000000002,0.004429718998416741
211.19,0.006653824865124046
211.191,0.007808579982507976
211.192,0.007332593635278666
211.193,0.005071096748020422
211.19400000000002,0.001327176979803556
211.19500000000002,0.0032134817795171347
211.196,0.0076597364850718875
211.197,0.01114038024521526
211.198,0.01301281525106709
211.199,0.012999059707937806
211.20000000000002,0.011218526881340014
211.20100000000002,0.00811956878186201
211.202,0.004340603237025523
211.203,0.0005479139491143492
211.204,0.0027029764765202045
211.205,0.0050501556388737314
211.20600000000002,0.006342759474661331
211.20700000000002,0.00660525292219098
211.208,0.005974707020003021
211.209,0.004639553121599736
211.21,0.002800049232788721
211.211,0.000656573950861048
211.21200000000002,0.0015819023280505722
211.21300000000002,0.0036849868968486838
211.214,0.005399667650312153
211.215,0.006469943695366134
211.216,0.0066763114257616255
211.217,0.005885037316123168
211.21800000000002,0.004092517164431417
211.21900000000002,0.0014509894546461343
211.22,0.0017328067916414153
211.221,0.005027469686085802
211.222,0.007930821339079741
211.223,0.00994009056075448
211.22400000000002,0.010629682022310143
211.22500000000002,0.009727735290970934
211.226,0.007181875933461718
211.227,0.003202579701619483
211.228,0.0017293286061591457
211.229,0.006903745101150696
211.23000000000002,0.011477581078849842
211.23100000000002,0.014620702150664003
211.232,0.015689517478117827
211.233,0.014390613403664595
211.234,0.010888585315614778
211.235,0.0058170026200685555
211.23600000000002,0.00017129186260916054
211.23700000000002,0.004906054405189614
211.238,0.008402664792597212
211.239,0.00970398222750488
211.24,0.008771898342504601
211.241,0.006171765873026805
211.24200000000002,0.0029248415878209816
211.243,0.00021521688616015546
211.244,0.0009711240135103638
211.245,0.00016881646555668594
211.246,0.0023863280726851327
211.247,0.005785973509753876
211.24800000000002,0.008693558187858014
211.249,0.009743183352446108
211.25,0.007979239135380626
211.251,0.003202818641006612
211.252,0.0038880433542676043
211.25300000000001,0.011819723889149394
211.25400000000002,0.018703829180178173
211.255,0.022741476356321722
211.256,0.02272815339536397
211.257,0.018411740749646813
211.258,0.010596392282513498
211.25900000000001,0.0009579889719011722
211.26000000000002,0.008379354335297996
211.261,0.015387261284184571
211.262,0.01864566113691395
211.263,0.017683745815689877
211.264,0.013061337725974667
211.26500000000001,0.006178610265182603
211.26600000000002,0.001121760319288301
211.267,0.007042086301876117
211.268,0.010271874865405274
211.269,0.010272169126670843
211.27,0.0073415901756314055
211.27100000000002,0.002467833388217733
211.27200000000002,0.0029751602354803723
211.273,0.007590800496374961
211.274,0.010287139199461245
211.275,0.010493949242704182
211.276,0.008234797190797286
211.27700000000002,0.004060519214613106
211.27800000000002,0.0011182269954949002
211.279,0.006246928658259205
211.28,0.010341056992093787
211.281,0.012660103776819535
211.282,0.012820869913119943
211.28300000000002,0.010843283235488891
211.28400000000002,0.007130903328480827
211.285,0.002392747039733885
211.286,0.002483636174325339
211.287,0.006592737094763295
211.288,0.009182438463695026
211.28900000000002,0.009805362608930383
211.29000000000002,0.008416027974654247
211.291,0.005385257290667327
211.292,0.0014196795800861077
211.293,0.002601412122297249
211.294,0.005834192521588329
211.29500000000002,0.007668525837989453
211.29600000000002,0.007859964779047195
211.297,0.006556450975493678
211.298,0.004212621120894873
211.299,0.0014213662597485305
211.3,0.0012790794548341797
211.30100000000002,0.003554838782305632
211.30200000000002,0.005329916473523793
211.303,0.00672567448655457
211.304,0.00791211566996925
211.305,0.008933305353479679
211.306,0.009584073524702547
211.30700000000002,0.009400966399469442
211.30800000000002,0.007790292148852881
211.309,0.004263075208960532
211.31,0.001300280702573957
211.311,0.008455617974184367
211.312,0.016158810454049016
211.31300000000002,0.022929778211952828
211.31400000000002,0.027192888404788777
211.315,0.02770567820637548
211.316,0.02394805799195925
211.317,0.016344491888956536
211.318,0.006234785718424027
211.31900000000002,0.004416888984503662
211.32000000000002,0.013503328018655426
211.321,0.019311787322437473
211.322,0.020961064841878922
211.323,0.01860827850539707
211.324,0.01336375165621152
211.32500000000002,0.00694101793843181
211.32600000000002,0.001149542617494559
211.327,0.0026155864317557475
211.328,0.0037348860922348597
211.329,0.0024743265697281442
211.33,0.0001776796282772935
211.33100000000002,0.002882356983790667
211.33200000000002,0.004405676067826247
211.333,0.004010519643833861
211.334,0.0016672000564585943
211.335,0.0019726423711855187
211.336,0.005815808379614681
211.33700000000002,0.008691900040612304
211.33800000000002,0.009719721222116692
211.339,0.008561304526794945
211.34,0.00549353720724823
211.341,0.0012908716065249107
211.342,0.003027158057518367
211.34300000000002,0.006492649049581597
211.34400000000002,0.008435490290376732
211.345,0.008611939606670331
211.346,0.007195302232620835
211.347,0.004655931852196771
211.348,0.001589369290143952
211.34900000000002,0.001442345977862702
211.35000000000002,0.00400950050423203
211.351,0.005839909441713088
211.352,0.006789574776965195
211.353,0.006797227692653426
211.354,0.005860161704549709
211.35500000000002,0.004049419130132329
211.35600000000002,0.0015545262310075881
211.357,0.0012751258069221706
211.358,0.003932294777316705
211.359,0.005824133349588689
211.36,0.006412352656953732
211.36100000000002,0.005385493098862315
211.36200000000002,0.0028039517582199853
211.363,0.000843896272105301
211.364,0.004713709697862722
211.365,0.007803459582125637
211.366,0.009230253142797691
211.36700000000002,0.008504185523040981
211.368,0.005709512615088482
211.369,0.0015258990275160676
211.37,0.0029301331994520067
211.371,0.0064060872884999336
211.372,0.007871093039965749
211.37300000000002,0.006822428978332916
211.374,0.0034453548755349226
211.375,0.0014258590108145422
211.376,0.006536713654904034
211.377,0.010563161729693364
211.37800000000001,0.012478753377490603
211.37900000000002,0.011828828147269373
211.38,0.008832885779889221
211.381,0.004290983943924768
211.382,0.0006692384081921926
211.383,0.0049212226785642875
211.38400000000001,0.0076413854879068144
211.38500000000002,0.00849626372329118
211.386,0.007668447280450299
211.387,0.005728605766944008
211.388,0.0034087808998369013
211.389,0.0013587818266512924
211.39000000000001,3.447191067264828e-05
211.39100000000002,0.0007129673121079639
211.392,0.0008904875646194969
211.393,0.0009066289728009406
211.394,0.0010540363357351202
211.395,0.0014453489664889019
211.39600000000002,0.00196726620099766
211.39700000000002,0.002334550310982461
211.398,0.002219524051628241
211.399,0.001405743734796376
211.4,9.315082580919258e-05
211.401,0.0019950839907482915
211.40200000000002,0.003808465678238089
211.40300000000002,0.004971129113305488
211.404,0.0050245299037010175
211.405,0.0037664328149933607
211.406,0.001332186360112203
211.407,0.001822460871240451
211.40800000000002,0.0050331243348930915
211.40900000000002,0.007600312099597301
211.41,0.00897382549810726
211.411,0.008894933655932151
211.412,0.007456776000856453
211.413,0.005067958362299549
211.41400000000002,0.002332104610751047
211.41500000000002,0.00012086109121223633
211.416,0.0018038284454470297
211.417,0.002495635006864506
211.418,0.002285774500041418
211.419,0.0015302832737930747
211.42000000000002,0.0007325016208106473
211.42100000000002,0.00038235246154769994
211.422,0.0007987277990367205
211.423,0.002019002039727803
211.424,0.003767822026615163
211.425,0.005516977873790085
211.42600000000002,0.006624144998372688
211.42700000000002,0.006516423903377828
211.428,0.004870496935671151
211.429,0.0017389706731115234
211.43,0.0024164592442820435
211.431,0.006801845967424175
211.43200000000002,0.010465739900897067
211.43300000000002,0.012531827972217403
211.434,0.012430379400835646
211.435,0.010065386649360013
211.436,0.005867750438075068
211.437,0.0007133640273038301
211.43800000000002,0.004278621283604404
211.43900000000002,0.008017822244706903
211.44,0.009713583953187914
211.441,0.009071292209984537
211.442,0.0063594961357790105
211.443,0.0023288277083686015
211.44400000000002,0.001994377279986641
211.44500000000002,0.005581043976686799
211.446,0.007661519398535309
211.447,0.007903949244534933
211.448,0.006462187487892019
211.449,0.003886587760876274
211.45000000000002,0.0009321917302191412
211.45100000000002,0.0016718665713129123
211.452,0.0034196025489125485
211.453,0.00413480588097824
211.454,0.003962404576193386
211.455,0.0032590259987428137
211.45600000000002,0.0024295570091392694
211.45700000000002,0.0017713980366255656
211.458,0.0013810413859025844
211.459,0.0011517572702245645
211.46,0.0008562048369079584
211.461,0.0002763874855342484
211.46200000000002,0.000673259888536897
211.46300000000002,0.0018799872007353058
211.464,0.003051719409791055
211.465,0.0038156521751269235
211.466,0.003860176131982035
211.467,0.003066243899926072
211.46800000000002,0.0015766614168962758
211.46900000000002,0.00022657340266294838
211.47,0.0018335879049847328
211.471,0.0027705993720888683
211.472,0.002760188573495919
211.473,0.0018211300004631011
211.47400000000002,0.0002709429033193233
211.47500000000002,0.0013723116682472288
211.476,0.0025573947258067243
211.477,0.0028804494394017188
211.478,0.002217762932298005
211.479,0.0007658622688134828
211.48000000000002,0.0010242815151828154
211.48100000000002,0.002596084074541423
211.482,0.0034683902854655024
211.483,0.003387670439855803
211.484,0.0024011257700638153
211.485,0.0008282671671068272
211.48600000000002,0.0008565597559479305
211.48700000000002,0.0021883856919742103
211.488,0.00286561058401698
211.489,0.002842024263981785
211.49,0.002327781411423215
211.491,0.0017020986823975705
211.49200000000002,0.0013702390199907947
211.493,0.001615005167987606
211.494,0.002492957269654977
211.495,0.0038086761892789987
211.496,0.005173145381212278
211.497,0.006124461378600594
211.49800000000002,0.006270013532272452
211.499,0.005404826281362908
211.5,0.003571378506821324
211.501,0.0010471720701475432
211.502,0.0017302711847567468
211.50300000000001,0.004273479831623687
211.50400000000002,0.006155757642011264
211.505,0.007093138635182269
211.506,0.006981727655660473
211.507,0.005890790885461757
211.508,0.004024670303772773
211.50900000000001,0.0016718395047509262
211.51000000000002,0.0008433149344923342
211.511,0.003198342772796278
211.512,0.005101144997828032
211.513,0.0063148477255447425
211.514,0.006684264234109866
211.51500000000001,0.006163466528822131
211.51600000000002,0.004836893497147236
211.517,0.0029220826655772187
211.518,0.0007436605431404215
211.519,0.0013238474991522698
211.52,0.002935092579984526
211.52100000000002,0.0038547423424281978
211.52200000000002,0.004015013862905227
211.523,0.003528832628362935
211.524,0.00265022504317375
211.525,0.001691041075073468
211.526,0.0009192247599964322
211.52700000000002,0.00047234873312214745
211.52800000000002,0.00031711463441399574
211.529,0.00027114137972618677
211.53,8.202727232091763e-05
211.531,0.0004623271771534838
211.532,0.0014311675718884495
211.53300000000002,0.0026949704468655915
211.53400000000002,0.003940933302510237
211.535,0.004760810244511215
211.536,0.0047863348093158216
211.537,0.0038287916484062287
211.538,0.0019744739259366343
211.53900000000002,0.0004008691712271512
211.54000000000002,0.0027110310831340288
211.541,0.0043143000540898065
211.542,0.004701144322463734
211.543,0.0036584099489716344
211.544,0.0013580942359410458
211.54500000000002,0.0016606077688814638
211.54600000000002,0.0046164297437858515
211.547,0.006687055912320319
211.548,0.007231775003715976
211.549,0.005974123595237156
211.55,0.0030931882236819607
211.55100000000002,0.0008029496157617486
211.55200000000002,0.004816148638353008
211.553,0.00797400700917028
211.554,0.009467133093200675
211.555,0.008847786930857922
211.556,0.00614086230282156
211.55700000000002,0.0018413907290815998
211.55800000000002,0.003198478840898749
211.559,0.00796328754749423
211.56,0.011500833606419398
211.561,0.013127610065058247
211.562,0.012566457299077002
211.56300000000002,0.009987646498880226
211.56400000000002,0.005948391671855882
211.565,0.0012497021383421566
211.566,0.0032519734164428433
211.567,0.0068317938915316186
211.568,0.009038031093856912
211.56900000000002,0.00975672558202655
211.57000000000002,0.009188570249026645
211.571,0.0077499232332227065
211.572,0.005929332506502813
211.573,0.004141920989633434
211.574,0.002623264046251693
211.57500000000002,0.0013918579242550022
211.57600000000002,0.00028814812224518783
211.577,0.0009256957753077472
211.578,0.002440380818891796
211.579,0.00429221454500872
211.58,0.006312402928745066
211.58100000000002,0.00815319412459084
211.58200000000002,0.00938541826048928
211.583,0.009636923428717015
211.584,0.008725566874542833
211.585,0.006739752707631118
211.586,0.004035144260066699
211.58700000000002,0.0011436581153632173
211.58800000000002,0.001378737790107738
211.589,0.003116078446241328
211.59,0.003912276696497628
211.591,0.0039035984230615054
211.592,0.003449460766362736
211.59300000000002,0.002982993369428775
211.59400000000002,0.0028328989936793514
211.595,0.0030814459556462444
211.596,0.0035140606876400216
211.597,0.003685882464793911
211.598,0.0030893036435418035
211.59900000000002,0.0013681121501451362
211.60000000000002,0.001497601637586061
211.601,0.005107282420541082
211.602,0.008697727530068013
211.603,0.01133698923430803
211.604,0.012200107738948545
211.60500000000002,0.010839814095404682
211.60600000000002,0.007360863849497795
211.607,0.002433460900887633
211.608,0.0028683491628669613
211.609,0.007359679290340197
211.61,0.010080044812972231
211.61100000000002,0.010564590604689556
211.61200000000002,0.008963272063870667
211.613,0.005968475193501072
211.614,0.0025746433707012923
211.615,0.0002501218841761155
211.616,0.0018703501876059078
211.61700000000002,0.002164290395005201
211.618,0.00151931403240375
211.619,0.000645280728347004
211.62,0.00027331831129416936
211.621,0.0008487291149329607
211.622,0.0023305860836063735
211.62300000000002,0.004174876159642815
211.624,0.005514368445290304
211.625,0.005478311157985847
211.626,0.0035428770083168856
211.627,0.00021240476359091074
211.62800000000001,0.005039777585117221
211.62900000000002,0.009685646692751433
211.63,0.012739762072803982
211.631,0.013065846040757768
211.632,0.010176914811554447
211.633,0.004431825876040296
211.63400000000001,0.0030161507728017228
211.63500000000002,0.010510147476855592
211.636,0.016335390816753646
211.637,0.019186049778089936
211.638,0.018512988796829426
211.639,0.01465017057574637
211.64000000000001,0.008687213022767216
211.64100000000002,0.0021341732119654682
211.642,0.003513375716528953
211.643,0.007174877983934728
211.644,0.008433918170831932
211.645,0.007571991900271278
211.64600000000002,0.005393510223091567
211.64700000000002,0.0029131219074432415
211.648,0.0010144413680563038
211.649,0.00018995889228750354
211.65,0.00043724730667475507
211.651,0.001330037792522393
211.65200000000002,0.002224230782862355
211.65300000000002,0.002517811692200136
