Czas,AbsSum,Sum
207.267,0.15470039561831606,-0.15470039561831606
207.268,0.1800133100272937,-0.1800133100272937
207.269,0.18277895668592348,-0.18277895668592348
207.27,0.16524279441366718,-0.16524279441366718
207.271,0.13212389817388293,-0.13212389817388293
207.272,0.08975731514043384,-0.08975731514043384
207.273,0.04521873560164413,-0.04521873560164413
207.274,0.005451356732959489,-0.005451356732959489
207.275,0.023614598392185604,0.023614598392185604
207.276,0.03792114473626418,0.03792114473626418
207.277,0.03601036919454659,0.03601036919454659
207.278,0.01943580785317489,0.01943580785317489
207.279,0.007341815570619303,-0.007341815570619303
207.28,0.03769534043575451,-0.03769534043575451
207.281,0.0641658946943735,-0.0641658946943735
207.282,0.08014901308885858,-0.08014901308885858
207.283,0.08152635662453345,-0.08152635662453345
207.284,0.06778210260098483,-0.06778210260098483
207.285,0.04223564190018936,-0.04223564190018936
207.286,0.011251181503653562,-0.011251181503653562
207.287,0.017413288030223795,0.017413288030223795
207.288,0.036677432588268166,0.036677432588268166
207.289,0.0420341673858069,0.0420341673858069
207.29,0.03270157304316412,0.03270157304316412
207.291,0.01167872339366971,0.01167872339366971
207.292,0.015307142673950946,-0.015307142673950946
207.293,0.04161976148073887,-0.04161976148073887
207.294,0.061706970014462126,-0.061706970014462126
207.295,0.0726192696362492,-0.0726192696362492
207.296,0.07456782822929531,-0.07456782822929531
207.297,0.07036698493750693,-0.07036698493750693
207.298,0.06399518048981467,-0.06399518048981467
207.299,0.058820446783372504,-0.058820446783372504
207.3,0.05616046265939134,-0.05616046265939134
207.301,0.054733848391302464,-0.054733848391302464
207.302,0.051242040678961764,-0.051242040678961764
207.303,0.0419060405809244,-0.0419060405809244
207.304,0.024413907784698874,-0.024413907784698874
207.305,0.0004539378305565833,0.0004539378305565833
207.306,0.02818910671670727,0.02818910671670727
207.307,0.05126878020438541,0.05126878020438541
207.308,0.06112386924240254,0.06112386924240254
207.309,0.05081814394082773,0.05081814394082773
207.31,0.017605066824133875,0.017605066824133875
207.311,0.03549554871822269,-0.03549554871822269
207.312,0.09969938791496369,-0.09969938791496369
207.313,0.16216835829050902,-0.16216835829050902
207.314,0.20903120690699806,-0.20903120690699806
207.315,0.22889463120714737,-0.22889463120714737
207.316,0.21585116556722572,-0.21585116556722572
207.317,0.17112026946069336,-0.17112026946069336
207.318,0.10285373651897634,-0.10285373651897634
207.319,0.0241709428023702,-0.0241709428023702
207.32,0.05000468775717959,0.05000468775717959
207.321,0.10641541861493087,0.10641541861493087
207.322,0.1363093172588048,0.1363093172588048
207.323,0.13695135205481246,0.13695135205481246
207.324,0.11153456548563168,0.11153456548563168
207.325,0.06769620909857199,0.06769620909857199
207.326,0.015214931800526355,0.015214931800526355
207.327,0.03637660629721806,-0.03637660629721806
207.328,0.07961498984917703,-0.07961498984917703
207.329,0.1099938692066913,-0.1099938692066913
207.33,0.12590170327854,-0.12590170327854
207.331,0.1279007459364293,-0.1279007459364293
207.332,0.11779314434068289,-0.11779314434068289
207.333,0.09788560849579642,-0.09788560849579642
207.334,0.07067588014561821,-0.07067588014561821
207.335,0.03893249365287177,-0.03893249365287177
207.336,0.005932463662679854,-0.005932463662679854
207.337,0.02445641320944625,0.02445641320944625
207.338,0.04808305182474726,0.04808305182474726
207.339,0.06124655390211431,0.06124655390211431
207.34,0.0616611858713334,0.0616611858713334
207.341,0.04929631465123485,0.04929631465123485
207.342,0.02671590445898886,0.02671590445898886
207.343,0.0013156932803580768,-0.0013156932803580768
207.344,0.02893933185154629,-0.02893933185154629
207.345,0.050722463470939116,-0.050722463470939116
207.346,0.06311766639297312,-0.06311766639297312
207.347,0.06536463637511525,-0.06536463637511525
207.348,0.0595114869999368,-0.0595114869999368
207.349,0.049531225730829465,-0.049531225730829465
207.35,0.03983317652423468,-0.03983317652423468
207.351,0.033696184800462214,-0.033696184800462214
207.352,0.032191148083273724,-0.032191148083273724
207.353,0.03399160470574791,-0.03399160470574791
207.354,0.03614741839413527,-0.03614741839413527
207.355,0.03553307371175607,-0.03553307371175607
207.356,0.03041354921829198,-0.03041354921829198
207.357,0.021502111422698866,-0.021502111422698866
207.358,0.012050388333571305,-0.012050388333571305
207.359,0.006860372757946154,-0.006860372757946154
207.36,0.010518568518086302,-0.010518568518086302
207.361,0.025473840059016095,-0.025473840059016095
207.362,0.05068801771812126,-0.05068801771812126
207.363,0.08143016672191006,-0.08143016672191006
207.364,0.11040495060971756,-0.11040495060971756
207.365,0.12992952051982332,-0.12992952051982332
207.366,0.13446976552892043,-0.13446976552892043
207.367,0.12266563934997421,-0.12266563934997421
207.368,0.0980940207135198,-0.0980940207135198
207.369,0.06841002994671752,-0.06841002994671752
207.37,0.04304928228634153,-0.04304928228634153
207.371,0.030181375728202675,-0.030181375728202675
207.372,0.033900279926123544,-0.033900279926123544
207.373,0.05260857036088129,-0.05260857036088129
207.374,0.07919638744494517,-0.07919638744494517
207.375,0.10304229808023435,-0.10304229808023435
207.376,0.11325981672639329,-0.11325981672639329
207.377,0.10218351778500534,-0.10218351778500534
207.378,0.06798156643845699,-0.06798156643845699
207.379,0.015539798595028409,-0.015539798595028409
207.38,0.04469401679561846,0.04469401679561846
207.381,0.09956591025148165,0.09956591025148165
207.382,0.13688820743838082,0.13688820743838082
207.383,0.1487903889545581,0.1487903889545581
207.384,0.1337269421618812,0.1337269421618812
207.385,0.09656876870884634,0.09656876870884634
207.386,0.04683114941163069,0.04683114941163069
207.387,0.004315088959074176,-0.004315088959074176
207.388,0.047239539835602695,-0.047239539835602695
207.389,0.07623012275542795,-0.07623012275542795
207.39,0.09035633736243143,-0.09035633736243143
207.391,0.09267286678805275,-0.09267286678805275
207.392,0.08819738355608531,-0.08819738355608531
207.393,0.08150091028082074,-0.08150091028082074
207.394,0.07484194469957095,-0.07484194469957095
207.395,0.06753101133883843,-0.06753101133883843
207.396,0.05672396237103661,-0.05672396237103661
207.397,0.039289168933228535,-0.039289168933228535
207.398,0.01397623507812873,-0.01397623507812873
207.399,0.017016900140646385,0.017016900140646385
207.4,0.047777291114294185,0.047777291114294185
207.401,0.06994148899489194,0.06994148899489194
207.402,0.07515588944938756,0.07515588944938756
207.403,0.057935308750692416,0.057935308750692416
207.404,0.017930495823682557,0.017930495823682557
207.405,0.039232633031164976,-0.039232633031164976
207.406,0.10292987421446331,-0.10292987421446331
207.407,0.16012318549081705,-0.16012318549081705
207.408,0.19880306517253,-0.19880306517253
207.409,0.21123803893311488,-0.21123803893311488
207.41,0.19602275433646876,-0.19602275433646876
207.411,0.1582894595128237,-0.1582894595128237
207.412,0.10802805782977798,-0.10802805782977798
207.413,0.05705522062424939,-0.05705522062424939
207.414,0.015588047561989948,-0.015588047561989948
207.415,0.010520025090630991,0.010520025090630991
207.416,0.021060673022358367,0.021060673022358367
207.417,0.020940314244849434,0.020940314244849434
207.418,0.018087432070251097,0.018087432070251097
207.419,0.020523729118986145,0.020523729118986145
207.42,0.03355090966588281,0.03355090966588281
207.421,0.057919057166174515,0.057919057166174515
207.422,0.08948931534687166,0.08948931534687166
207.423,0.12041185054087933,0.12041185054087933
207.424,0.14137635035896534,0.14137635035896534
207.425,0.14420296471175664,0.14420296471175664
207.426,0.12400519660892217,0.12400519660892217
207.427,0.08036178153978213,0.08036178153978213
207.428,0.017291665648863086,0.017291665648863086
207.429,0.05779800792152889,-0.05779800792152889
207.43,0.13575248803949547,-0.13575248803949547
207.431,0.20737476878741,-0.20737476878741
207.432,0.2647727462852182,-0.2647727462852182
207.433,0.30214805544342327,-0.30214805544342327
207.434,0.31606921063984394,-0.31606921063984394
207.435,0.3054361116630955,-0.3054361116630955
207.436,0.27137241296662196,-0.27137241296662196
207.437,0.21718124735098965,-0.21718124735098965
207.438,0.14832913098039557,-0.14832913098039557
207.439,0.07227252173644005,-0.07227252173644005
207.44,0.0021075438692168547,0.0021075438692168547
207.441,0.06560734636009347,0.06560734636009347
207.442,0.11027736709614144,0.11027736709614144
207.443,0.13116699363399387,0.13116699363399387
207.444,0.12774722856560405,0.12774722856560405
207.445,0.10449063987848306,0.10449063987848306
207.446,0.07024760133045338,0.07024760133045338
207.447,0.03637878371679548,0.03637878371679548
207.448,0.013993045364854906,0.013993045364854906
207.449,0.010970190408882585,0.010970190408882585
207.45,0.029600689842534278,0.029600689842534278
207.451,0.06558070037392327,0.06558070037392327
207.452,0.10876848523378335,0.10876848523378335
207.453,0.14562383727717587,0.14562383727717587
207.454,0.16275553084330419,0.16275553084330419
207.455,0.1506446847206151,0.1506446847206151
207.456,0.10650950427054284,0.10650950427054284
207.457,0.035471219368216955,0.035471219368216955
207.458,0.050373896653340466,-0.050373896653340466
207.459,0.13479772561188352,-0.13479772561188352
207.46,0.20148003192990527,-0.20148003192990527
207.461,0.23817541938464248,-0.23817541938464248
207.462,0.23987996838703618,-0.23987996838703618
207.463,0.21012456820391168,-0.21012456820391168
207.464,0.16002135488188518,-0.16002135488188518
207.465,0.10529692581353911,-0.10529692581353911
207.466,0.06209388996422338,-0.06209388996422338
207.467,0.042660027947376666,-0.042660027947376666
207.468,0.05207904884397219,-0.05207904884397219
207.469,0.08691887317288016,-0.08691887317288016
207.47,0.13615802129409404,-0.13615802129409404
207.471,0.18413788803429199,-0.18413788803429199
207.472,0.21474462964429686,-0.21474462964429686
207.473,0.21569671655655775,-0.21569671655655775
207.474,0.1817920917850625,-0.1817920917850625
207.475,0.11625862700569245,-0.11625862700569245
207.476,0.029874250669973734,-0.029874250669973734
207.477,0.06186484513896273,0.06186484513896273
207.478,0.14271779460211764,0.14271779460211764
207.479,0.19970202853862729,0.19970202853862729
207.48,0.22602663363598152,0.22602663363598152
207.481,0.22218371292097538,0.22218371292097538
207.482,0.19497212520449847,0.19497212520449847
207.483,0.15483585569932568,0.15483585569932568
207.484,0.11238806780042787,0.11238806780042787
207.485,0.07521356281580505,0.07521356281580505
207.486,0.045927147923252365,0.045927147923252365
207.487,0.022046142756489084,0.022046142756489084
207.488,0.0023589331005474667,-0.0023589331005474667
207.489,0.03385234497770406,-0.03385234497770406
207.49,0.07665511670347025,-0.07665511670347025
207.491,0.13054395230426774,-0.13054395230426774
207.492,0.19036441132337234,-0.19036441132337234
207.493,0.24733257660764518,-0.24733257660764518
207.494,0.2916664686436383,-0.2916664686436383
207.495,0.315605022811172,-0.315605022811172
207.496,0.31571557373858194,-0.31571557373858194
207.497,0.29363056150848577,-0.29363056150848577
207.498,0.25492240785030296,-0.25492240785030296
207.499,0.20653115249891008,-0.20653115249891008
207.5,0.15374880020557447,-0.15374880020557447
207.501,0.09800827516554089,-0.09800827516554089
207.502,0.036504003082587166,-0.036504003082587166
207.503,0.03597179795513883,0.03597179795513883
207.504,0.12345494874898799,0.12345494874898799
207.505,0.22475261160264615,0.22475261160264615
207.506,0.3305505169442966,0.3305505169442966
207.507,0.4231447839267113,0.4231447839267113
207.508,0.4794973004748193,0.4794973004748193
207.509,0.4771866277197243,0.4771866277197243
207.51,0.40169902676662694,0.40169902676662694
207.511,0.2527801460386194,0.2527801460386194
207.512,0.0475497896803565,0.0475497896803565
207.513,0.18114483064248266,-0.18114483064248266
207.514,0.39128014065769734,-0.39128014065769734
207.515,0.5416737518643532,-0.5416737518643532
207.516,0.6027668710538134,-0.6027668710538134
207.517,0.5649748379461874,-0.5649748379461874
207.518,0.4419113875084669,-0.4419113875084669
207.519,0.26720246452683205,-0.26720246452683205
207.52,0.08552354451284716,-0.08552354451284716
207.521,0.05967562421240502,0.05967562421240502
207.522,0.13815661896147113,0.13815661896147113
207.523,0.14094760840330478,0.14094760840330478
207.524,0.08195411280280429,0.08195411280280429
207.525,0.007415287745079713,-0.007415287745079713
207.526,0.08894078258573201,-0.08894078258573201
207.527,0.13020625119343643,-0.13020625119343643
207.528,0.11507992635319786,-0.11507992635319786
207.529,0.048654043539766545,-0.048654043539766545
207.53,0.04497925721777962,0.04497925721777962
207.531,0.13138507750595485,0.13138507750595485
207.532,0.1779931635971599,0.1779931635971599
207.533,0.16574618232195748,0.16574618232195748
207.534,0.0962101942147946,0.0962101942147946
207.535,0.00835803874399721,-0.00835803874399721
207.536,0.11214459453471293,-0.11214459453471293
207.537,0.17782326960323636,-0.17782326960323636
207.538,0.1795018289642042,-0.1795018289642042
207.539,0.11216431177409458,-0.11216431177409458
207.54,0.005704329955941834,0.005704329955941834
207.541,0.13738595184120816,0.13738595184120816
207.542,0.23951376512618583,0.23951376512618583
207.543,0.2762275156244658,0.2762275156244658
207.544,0.2312072169077246,0.2312072169077246
207.545,0.11351551623005585,0.11351551623005585
207.546,0.04481401661319939,-0.04481401661319939
207.547,0.19876934559798576,-0.19876934559798576
207.548,0.30470911513312404,-0.30470911513312404
207.549,0.3343442666813815,-0.3343442666813815
207.55,0.2836997061051849,-0.2836997061051849
207.551,0.17404293178126906,-0.17404293178126906
207.552,0.044437785118540685,-0.044437785118540685
207.553,0.0616065917385038,0.0616065917385038
207.554,0.11091718592183253,0.11091718592183253
207.555,0.09188194661330651,0.09188194661330651
207.556,0.018295829659153107,0.018295829659153107
207.557,0.07553174531905538,-0.07553174531905538
207.558,0.14682838949513355,-0.14682838949513355
207.559,0.15955944639858222,-0.15955944639858222
207.56,0.09766705551179511,-0.09766705551179511
207.561,0.028159567483843517,0.028159567483843517
207.562,0.1825769563442481,0.1825769563442481
207.563,0.31601732279094663,0.31601732279094663
207.564,0.38017301200901765,0.38017301200901765
207.565,0.34357433384461133,0.34357433384461133
207.566,0.20225026939300328,0.20225026939300328
207.567,0.017952262198375424,-0.017952262198375424
207.568,0.26812896099713346,-0.26812896099713346
207.569,0.49000421463024924,-0.49000421463024924
207.57,0.6322365950109239,-0.6322365950109239
207.571,0.6643129473147754,-0.6643129473147754
207.572,0.583903868713914,-0.583903868713914
207.573,0.41574588144888425,-0.41574588144888425
207.574,0.20284307386686362,-0.20284307386686362
207.575,0.006862488019423019,0.006862488019423019
207.576,0.17396827569905926,0.17396827569905926
207.577,0.27709390556120095,0.27709390556120095
207.578,0.31579031620326936,0.31579031620326936
207.579,0.3066020763133086,0.3066020763133086
207.58,0.2742533896603816,0.2742533896603816
207.581,0.2413701191908908,0.2413701191908908
207.582,0.22035652283473262,0.22035652283473262
207.583,0.2100230786959556,0.2100230786959556
207.584,0.19773291525877812,0.19773291525877812
207.585,0.16587088586909404,0.16587088586909404
207.586,0.10001944316439615,0.10001944316439615
207.587,0.004199809492506423,-0.004199809492506423
207.588,0.1380095418006294,-0.1380095418006294
207.589,0.28104468382723324,-0.28104468382723324
207.59,0.40689906033393497,-0.40689906033393497
207.591,0.4906357505641098,-0.4906357505641098
207.592,0.5157195278436634,-0.5157195278436634
207.593,0.4782070405636444,-0.4782070405636444
207.594,0.3871073730856941,-0.3871073730856941
207.595,0.26116789113331795,-0.26116789113331795
207.596,0.12345618296787841,-0.12345618296787841
207.597,0.004368444607494748,0.004368444607494748
207.598,0.10638934900166297,0.10638934900166297
207.599,0.17441514202509878,0.17441514202509878
207.6,0.2076126833799945,0.2076126833799945
207.601,0.21057658058293427,0.21057658058293427
207.602,0.19095108977346076,0.19095108977346076
207.603,0.15753005010740506,0.15753005010740506
207.604,0.11920733530971983,0.11920733530971983
207.605,0.0845342835681242,0.0845342835681242
207.606,0.061268603800790356,0.061268603800790356
207.607,0.0553504604701931,0.0553504604701931
207.608,0.06918903727835302,0.06918903727835302
207.609,0.09976496726155748,0.09976496726155748
207.61,0.13752911256719025,0.13752911256719025
207.611,0.16712693338989815,0.16712693338989815
207.612,0.17049256576384253,0.17049256576384253
207.613,0.13196494374805035,0.13196494374805035
207.614,0.04410872498795104,0.04410872498795104
207.615,0.08771463340180974,-0.08771463340180974
207.616,0.2439584010281901,-0.2439584010281901
207.617,0.393835505766703,-0.393835505766703
207.618,0.5023958816948233,-0.5023958816948233
207.619,0.5400494218197832,-0.5400494218197832
207.62,0.49176446220749503,-0.49176446220749503
207.621,0.36293340813495945,-0.36293340813495945
207.622,0.1796779535911759,-0.1796779535911759
207.623,0.017013622144092633,0.017013622144092633
207.624,0.1819602362580246,0.1819602362580246
207.625,0.27826007030922684,0.27826007030922684
207.626,0.28778786871164264,0.28778786871164264
207.627,0.21638996796463683,0.21638996796463683
207.628,0.09201091454252874,0.09201091454252874
207.629,0.04381404869370098,-0.04381404869370098
207.63,0.14854010412169683,-0.14854010412169683
207.631,0.19136641138870292,-0.19136641138870292
207.632,0.1621704806045705,-0.1621704806045705
207.633,0.07384382983054427,-0.07384382983054427
207.634,0.04262243275295985,0.04262243275295985
207.635,0.14860939161611686,0.14860939161611686
207.636,0.21042579894653124,0.21042579894653124
207.637,0.20984862158358486,0.20984862158358486
207.638,0.14928488505984605,0.14928488505984605
207.639,0.05003006237311114,0.05003006237311114
207.64,0.05558604127663613,-0.05558604127663613
207.641,0.13536657677875252,-0.13536657677875252
207.642,0.16789960044215957,-0.16789960044215957
207.643,0.1491471781692998,-0.1491471781692998
207.644,0.09289563418821434,-0.09289563418821434
207.645,0.025129027162743012,-0.025129027162743012
207.646,0.025550028714376616,0.025550028714376616
207.647,0.03804478954335622,0.03804478954335622
207.648,0.005943420546287603,0.005943420546287603
207.649,0.06062158067454104,-0.06062158067454104
207.65,0.13890587706676016,-0.13890587706676016
207.651,0.20173878455366734,-0.20173878455366734
207.652,0.22700075396025965,-0.22700075396025965
207.653,0.20507630564955504,-0.20507630564955504
207.654,0.14177201655615412,-0.14177201655615412
207.655,0.055845048880916015,-0.055845048880916015
207.656,0.027807451029312036,0.027807451029312036
207.657,0.08676691834566119,0.08676691834566119
207.658,0.10843959150843263,0.10843959150843263
207.659,0.09360073928644641,0.09360073928644641
207.66,0.05503494005041576,0.05503494005041576
207.661,0.01194880741505,0.01194880741505
207.662,0.017676282544315636,-0.017676282544315636
207.663,0.023941922650840497,-0.023941922650840497
207.664,0.008603022828904017,-0.008603022828904017
207.665,0.015907652369557823,0.015907652369557823
207.666,0.03158942332544634,0.03158942332544634
207.667,0.02220788834404286,0.02220788834404286
207.668,0.019854602756839035,-0.019854602756839035
207.669,0.08976297442500947,-0.08976297442500947
207.67,0.170860961396464,-0.170860961396464
207.671,0.2396350568347122,-0.2396350568347122
207.672,0.27334111941779704,-0.27334111941779704
207.673,0.2576798705120311,-0.2576798705120311
207.674,0.19187783768420985,-0.19187783768420985
207.675,0.08941638180330547,-0.08941638180330547
207.676,0.02586232307165015,0.02586232307165015
207.677,0.12697492797924315,0.12697492797924315
207.678,0.191931894392098,0.191931894392098
207.679,0.21009388320768774,0.21009388320768774
207.68,0.18468581577712917,0.18468581577712917
207.681,0.13072224880298888,0.13072224880298888
207.682,0.06914764761014403,0.06914764761014403
207.683,0.019253507465341935,0.019253507465341935
207.684,0.008015339825981571,-0.008015339825981571
207.685,0.0135829925032388,-0.0135829925032388
207.686,0.009399284296085941,-0.009399284296085941
207.687,0.01351413995152606,-0.01351413995152606
207.688,0.042729501578805396,-0.042729501578805396
207.689,0.10531908934482415,-0.10531908934482415
207.69,0.1963273720727713,-0.1963273720727713
207.691,0.2971709774393534,-0.2971709774393534
207.692,0.37992234984790574,-0.37992234984790574
207.693,0.41517776592953815,-0.41517776592953815
207.694,0.3812532755128112,-0.3812532755128112
207.695,0.2719606590068401,-0.2719606590068401
207.696,0.10053407162692818,-0.10053407162692818
207.697,0.1016890992439663,0.1016890992439663
207.698,0.2917801542331786,0.2917801542331786
207.699,0.42541242169086146,0.42541242169086146
207.7,0.46815872432411054,0.46815872432411054
207.701,0.4049293596983885,0.4049293596983885
207.702,0.24498249875987832,0.24498249875987832
207.703,0.02101425474310048,0.02101425474310048
207.704,0.21768277317327356,-0.21768277317327356
207.705,0.41648889091032626,-0.41648889091032626
207.706,0.5284830764222473,-0.5284830764222473
207.707,0.5260289851405798,-0.5260289851405798
207.708,0.4079872532603005,-0.4079872532603005
207.709,0.2006242534598781,-0.2006242534598781
207.71,0.048193183453360655,0.048193183453360655
207.711,0.28025372433485307,0.28025372433485307
207.712,0.4410307568375835,0.4410307568375835
207.713,0.4930226021977524,0.4930226021977524
207.714,0.4250152154096649,0.4250152154096649
207.715,0.2548324744608492,0.2548324744608492
207.716,0.02476446597767823,0.02476446597767823
207.717,0.2092385199824892,-0.2092385199824892
207.718,0.3918469456011445,-0.3918469456011445
207.719,0.4823682738645968,-0.4823682738645968
207.72,0.4647701562620493,-0.4647701562620493
207.721,0.35102246138396465,-0.35102246138396465
207.722,0.1768846701947665,-0.1768846701947665
207.723,0.00863677152632647,0.00863677152632647
207.724,0.15715128459362426,0.15715128459362426
207.725,0.23411387419895413,0.23411387419895413
207.726,0.2276652660328251,0.2276652660328251
207.727,0.15062887499921396,0.15062887499921396
207.728,0.03524903833605331,0.03524903833605331
207.729,0.07757799800930754,-0.07757799800930754
207.73,0.15119333550919367,-0.15119333550919367
207.731,0.16420320958791113,-0.16420320958791113
207.732,0.11630222260084266,-0.11630222260084266
207.733,0.02722730510875493,-0.02722730510875493
207.734,0.07063072403263404,0.07063072403263404
207.735,0.14342290327351126,0.14342290327351126
207.736,0.16712939571182495,0.16712939571182495
207.737,0.13525071081405882,0.13525071081405882
207.738,0.060442776381993024,0.060442776381993024
207.739,0.030339652096223135,-0.030339652096223135
207.74,0.10547104432142895,-0.10547104432142895
207.741,0.13975937733035526,-0.13975937733035526
207.742,0.1232586258960503,-0.1232586258960503
207.743,0.06480726600878128,-0.06480726600878128
207.744,0.010907968167368498,0.010907968167368498
207.745,0.07178293090472487,0.07178293090472487
207.746,0.08939142060274263,0.08939142060274263
207.747,0.049015538660549085,0.049015538660549085
207.748,0.04476716659469682,-0.04476716659469682
207.749,0.1688364378953623,-0.1688364378953623
207.75,0.2884068282439599,-0.2884068282439599
207.751,0.36778309614999893,-0.36778309614999893
207.752,0.38147464588263424,-0.38147464588263424
207.753,0.3220583468057655,-0.3220583468057655
207.754,0.20228744679828758,-0.20228744679828758
207.755,0.05086908703421977,-0.05086908703421977
207.756,0.0965803048689553,0.0965803048689553
207.757,0.2083446894562373,0.2083446894562373
207.758,0.2656270914013512,0.2656270914013512
207.759,0.26691939106808227,0.26691939106808227
207.76,0.22650260032351466,0.22650260032351466
207.761,0.16786233251339677,0.16786233251339677
207.762,0.11449251566419627,0.11449251566419627
207.763,0.08136703204500262,0.08136703204500262
207.764,0.07002918593647234,0.07002918593647234
207.765,0.06891874536741183,0.06891874536741183
207.766,0.05869886148723702,0.05869886148723702
207.767,0.020603288081015636,0.020603288081015636
207.768,0.055210958574189894,-0.055210958574189894
207.769,0.16430905016130704,-0.16430905016130704
207.77,0.2875882607735657,-0.2875882607735657
207.771,0.39612199971883355,-0.39612199971883355
207.772,0.45973208769515517,-0.45973208769515517
207.773,0.45652386533447575,-0.45652386533447575
207.774,0.3802848595969863,-0.3802848595969863
207.775,0.24333273864856209,-0.24333273864856209
207.776,0.0738573689256038,-0.0738573689256038
207.777,0.09145619351362044,0.09145619351362044
207.778,0.21727963611408363,0.21727963611408363
207.779,0.2790073521933578,0.2790073521933578
207.78,0.26889994563929664,0.26889994563929664
207.781,0.19732647283669325,0.19732647283669325
207.782,0.08895107033193983,0.08895107033193983
207.783,0.024793291198535794,-0.024793291198535794
207.784,0.11458879242046904,-0.11458879242046904
207.785,0.16087006230892542,-0.16087006230892542
207.786,0.15814843634024411,-0.15814843634024411
207.787,0.1150635970724877,-0.1150635970724877
207.788,0.050504022532479764,-0.050504022532479764
207.789,0.012768578771994,0.012768578771994
207.79,0.054972236316971346,0.054972236316971346
207.791,0.06466550893975165,0.06466550893975165
207.792,0.04125126012246971,0.04125126012246971
207.793,0.005811563231187256,-0.005811563231187256
207.794,0.06056624582951009,-0.06056624582951009
207.795,0.10565102911730151,-0.10565102911730151
207.796,0.12738817352518927,-0.12738817352518927
207.797,0.11947373790784466,-0.11947373790784466
207.798,0.08436944421670356,-0.08436944421670356
207.799,0.032179377059223024,-0.032179377059223024
207.8,0.02253249307786498,0.02253249307786498
207.801,0.06502618459725618,0.06502618459725618
207.802,0.08458394949182035,0.08458394949182035
207.803,0.07750723828461403,0.07750723828461403
207.804,0.04813095920796462,0.04813095920796462
207.805,0.007584093997017094,0.007584093997017094
207.806,0.02940296518534402,-0.02940296518534402
207.807,0.048836823874424784,-0.048836823874424784
207.808,0.041810069916344506,-0.041810069916344506
207.809,0.007663310506865861,-0.007663310506865861
207.81,0.044998866321887876,0.044998866321887876
207.811,0.09988948723980151,0.09988948723980151
207.812,0.1369966689731863,0.1369966689731863
207.813,0.13801912805730154,0.13801912805730154
207.814,0.09188915124997932,0.09188915124997932
207.815,0.0011571689505723848,-0.0011571689505723848
207.816,0.1282292003081028,-0.1282292003081028
207.817,0.26575745214764,-0.26575745214764
207.818,0.3845139652104598,-0.3845139652104598
207.819,0.4565218386785076,-0.4565218386785076
207.82,0.4621001823533972,-0.4621001823533972
207.821,0.3951647127495417,-0.3951647127495417
207.822,0.26531340608428655,-0.26531340608428655
207.823,0.09607143507926885,-0.09607143507926885
207.824,0.08028952254001598,0.08028952254001598
207.825,0.23001371401341908,0.23001371401341908
207.826,0.3253235020299876,0.3253235020299876
207.827,0.3502094803439886,0.3502094803439886
207.828,0.3032184500232933,0.3032184500232933
207.829,0.1967975028976332,0.1967975028976332
207.83,0.05369741299784425,0.05369741299784425
207.831,0.09835456103876061,-0.09835456103876061
207.832,0.23223220480276796,-0.23223220480276796
207.833,0.3259621969945836,-0.3259621969945836
207.834,0.36552408619506793,-0.36552408619506793
207.835,0.3458282523978732,-0.3458282523978732
207.836,0.2703100938025713,-0.2703100938025713
207.837,0.14976994152268286,-0.14976994152268286
207.838,0.0009407865631503309,-0.0009407865631503309
207.839,0.15509112739522624,0.15509112739522624
207.84,0.2948343288840438,0.2948343288840438
207.841,0.39505373153865975,0.39505373153865975
207.842,0.43628406272465914,0.43628406272465914
207.843,0.4068507200136744,0.4068507200136744
207.844,0.3064998897966311,0.3064998897966311
207.845,0.14839198369407813,0.14839198369407813
207.846,0.04169632118807309,-0.04169632118807309
207.847,0.22950665889341504,-0.22950665889341504
207.848,0.3793186624586449,-0.3793186624586449
207.849,0.46233602499723303,-0.46233602499723303
207.85,0.46418157345108446,-0.46418157345108446
207.851,0.3891674200473596,-0.3891674200473596
207.852,0.25972106068595757,-0.25972106068595757
207.853,0.11070588470624365,-0.11070588470624365
207.854,0.020026467168505757,0.020026467168505757
207.855,0.10220543530146387,0.10220543530146387
207.856,0.1216459486104291,0.1216459486104291
207.857,0.08397845725910646,0.08397845725910646
207.858,0.012300200030154196,0.012300200030154196
207.859,0.06064330835619114,-0.06064330835619114
207.86,0.10333817878727691,-0.10333817878727691
207.861,0.09596666354932648,-0.09596666354932648
207.862,0.03703639073968368,-0.03703639073968368
207.863,0.056041191168979765,0.056041191168979765
207.864,0.15266037435157953,0.15266037435157953
207.865,0.21915767733640146,0.21915767733640146
207.866,0.23001083230511932,0.23001083230511932
207.867,0.1763550226932713,0.1763550226932713
207.868,0.06896296319692508,0.06896296319692508
207.869,0.06528929649386361,-0.06528929649386361
207.87,0.19222704942888658,-0.19222704942888658
207.871,0.28140728991810526,-0.28140728991810526
207.872,0.31558036607887785,-0.31558036607887785
207.873,0.2953595379950673,-0.2953595379950673
207.874,0.23757430627775078,-0.23757430627775078
207.875,0.16801904282100488,-0.16801904282100488
207.876,0.1112939015683273,-0.1112939015683273
207.877,0.08146541468504653,-0.08146541468504653
207.878,0.07697751305871392,-0.07697751305871392
207.879,0.08171592102169278,-0.08171592102169278
207.88,0.07190416330639182,-0.07190416330639182
207.881,0.026374212866955737,-0.026374212866955737
207.882,0.06352949375336125,0.06352949375336125
207.883,0.1881213010552658,0.1881213010552658
207.884,0.31997624857472995,0.31997624857472995
207.885,0.421106798324411,0.421106798324411
207.886,0.4545563881039496,0.4545563881039496
207.887,0.39666105675470886,0.39666105675470886
207.888,0.24590635950178963,0.24590635950178963
207.889,0.025363949794091623,0.025363949794091623
207.89,0.22223360208418907,-0.22223360208418907
207.891,0.445341562886715,-0.445341562886715
207.892,0.5970591840690971,-0.5970591840690971
207.893,0.647121075019784,-0.647121075019784
207.894,0.5889396031367787,-0.5889396031367787
207.895,0.43990241944780006,-0.43990241944780006
207.896,0.23530713741285758,-0.23530713741285758
207.897,0.018230517007730374,-0.018230517007730374
207.898,0.17134277704163403,0.17134277704163403
207.899,0.3049500965129939,0.3049500965129939
207.9,0.3696297710624712,0.3696297710624712
207.901,0.3671451058586779,0.3671451058586779
207.902,0.3097383122264865,0.3097383122264865
207.903,0.21461260536142146,0.21461260536142146
207.904,0.09931307051898175,0.09931307051898175
207.905,0.020680225125358387,-0.020680225125358387
207.906,0.13209456157622312,-0.13209456157622312
207.907,0.222797015874604,-0.222797015874604
207.908,0.2810605488008755,-0.2810605488008755
207.909,0.29639205899617804,-0.29639205899617804
207.91,0.2621935318244669,-0.2621935318244669
207.911,0.17936749776186567,-0.17936749776186567
207.912,0.05914971447402373,-0.05914971447402373
207.913,0.07663719405911062,0.07663719405911062
207.914,0.198958222672881,0.198958222672881
207.915,0.27826259456816205,0.27826259456816205
207.916,0.2927610072469107,0.2927610072469107
207.917,0.2356149470076916,0.2356149470076916
207.918,0.11837742963591436,0.11837742963591436
207.919,0.030946847618071427,-0.030946847618071427
207.92,0.17511213187102503,-0.17511213187102503
207.921,0.27815042418473934,-0.27815042418473934
207.922,0.3159529738987399,-0.3159529738987399
207.923,0.28346062790258075,-0.28346062790258075
207.924,0.19600656018499552,-0.19600656018499552
207.925,0.08425186986608846,-0.08425186986608846
207.926,0.015694157019126465,0.015694157019126465
207.927,0.07372901244214214,0.07372901244214214
207.928,0.07499663624507757,0.07499663624507757
207.929,0.023880484788919798,0.023880484788919798
207.93,0.058467962186266265,-0.058467962186266265
207.931,0.14205232428292847,-0.14205232428292847
207.932,0.19853534195655265,-0.19853534195655265
207.933,0.21062713805162692,-0.21062713805162692
207.934,0.1771539063405172,-0.1771539063405172
207.935,0.11222465628222789,-0.11222465628222789
207.936,0.03906575684493463,-0.03906575684493463
207.937,0.019010623615706157,0.019010623615706157
207.938,0.04708362829753576,0.04708362829753576
207.939,0.04344734113955373,0.04344734113955373
207.94,0.019140003223617308,0.019140003223617308
207.941,0.007426129182768637,-0.007426129182768637
207.942,0.018493555555527452,-0.018493555555527452
207.943,0.00444110493770089,-0.00444110493770089
207.944,0.03221753913777348,0.03221753913777348
207.945,0.0778622871602681,0.0778622871602681
207.946,0.11338911512161265,0.11338911512161265
207.947,0.12218950399515527,0.12218950399515527
207.948,0.09731028079623405,0.09731028079623405
207.949,0.04490592986760111,0.04490592986760111
207.95,0.017491608626317823,-0.017491608626317823
207.951,0.06735737868776859,-0.06735737868776859
207.952,0.08585399079778067,-0.08585399079778067
207.953,0.06549849320522383,-0.06549849320522383
207.954,0.01380890835433135,-0.01380890835433135
207.955,0.04861525245557807,0.04861525245557807
207.956,0.09504492211270055,0.09504492211270055
207.957,0.10215605302945008,0.10215605302945008
207.958,0.05867318985687309,0.05867318985687309
207.959,0.030083052136045008,-0.030083052136045008
207.96,0.1434736285286029,-0.1434736285286029
207.961,0.2522324434485853,-0.2522324434485853
207.962,0.3281560959935964,-0.3281560959935964
207.963,0.35326665767335685,-0.35326665767335685
207.964,0.3251325465050996,-0.3251325465050996
207.965,0.25649257189575025,-0.25649257189575025
207.966,0.1694907840255513,-0.1694907840255513
207.967,0.08687383709941854,-0.08687383709941854
207.968,0.023642773421872043,-0.023642773421872043
207.969,0.017561344054513928,0.017561344054513928
207.97,0.045558193879402964,0.045558193879402964
207.971,0.07465810647534865,0.07465810647534865
207.972,0.11615243235506867,0.11615243235506867
207.973,0.17092392709977355,0.17092392709977355
207.974,0.22652787214590275,0.22652787214590275
207.975,0.26041547798105036,0.26041547798105036
207.976,0.24852386818296357,0.24852386818296357
207.977,0.17616693948187412,0.17616693948187412
207.978,0.04693480323694077,0.04693480323694077
207.979,0.11431326197910197,-0.11431326197910197
207.98,0.2663424005285788,-0.2663424005285788
207.981,0.363449955642417,-0.363449955642417
207.982,0.3707655620759238,-0.3707655620759238
207.983,0.2777110985084734,-0.2777110985084734
207.984,0.10458454438276255,-0.10458454438276255
207.985,0.10072635750796244,0.10072635750796244
207.986,0.27563961337130016,0.27563961337130016
207.987,0.3617541798406314,0.3617541798406314
207.988,0.3237824966436309,0.3237824966436309
207.989,0.16225605991463743,0.16225605991463743
207.99,0.08450473699807515,-0.08450473699807515
207.991,0.3502868488361225,-0.3502868488361225
207.992,0.5600031126105801,-0.5600031126105801
207.993,0.6520251308550806,-0.6520251308550806
207.994,0.596822294800738,-0.596822294800738
207.995,0.4059955189004628,-0.4059955189004628
207.996,0.12884408032677952,-0.12884408032677952
207.997,0.16240193157840488,0.16240193157840488
207.998,0.3939427274792917,0.3939427274792917
207.999,0.511596520895419,0.511596520895419
208.0,0.4952576575122971,0.4952576575122971
208.001,0.3624108536068038,0.3624108536068038
208.002,0.16013835040965385,0.16013835040965385
208.003,0.05122963814247272,-0.05122963814247272
208.004,0.21713374589716128,-0.21713374589716128
208.005,0.3042338557528833,-0.3042338557528833
208.006,0.3075916507737322,-0.3075916507737322
208.007,0.2479280766138675,-0.2479280766138675
208.008,0.1607321078888082,-0.1607321078888082
208.009,0.08164303343729107,-0.08164303343729107
208.01,0.03351216536129953,-0.03351216536129953
208.011,0.019607269994978083,-0.019607269994978083
208.012,0.02496856517089907,-0.02496856517089907
208.013,0.024883384071105463,-0.024883384071105463
208.014,0.003088894917720131,0.003088894917720131
208.015,0.06826542316870654,0.06826542316870654
208.016,0.1613048360193985,0.1613048360193985
208.017,0.2560818195111296,0.2560818195111296
208.018,0.3183205256100883,0.3183205256100883
208.019,0.3178886301248276,0.3178886301248276
208.02,0.2403551167507818,0.2403551167507818
208.021,0.09368561724992652,0.09368561724992652
208.022,0.09235118122446395,-0.09235118122446395
208.023,0.2739938855702907,-0.2739938855702907
208.024,0.4060257546659294,-0.4060257546659294
208.025,0.45502797246825955,-0.45502797246825955
208.026,0.40918603642550466,-0.40918603642550466
208.027,0.2816923593824002,-0.2816923593824002
208.028,0.10688626942559554,-0.10688626942559554
208.029,0.0694698361858832,0.0694698361858832
208.03,0.20269705217097722,0.20269705217097722
208.031,0.26079104787093366,0.26079104787093366
208.032,0.23195004007054254,0.23195004007054254
208.033,0.12632645498666317,0.12632645498666317
208.034,0.027928977027161683,-0.027928977027161683
208.035,0.19271541913382817,-0.19271541913382817
208.036,0.3296268935340254,-0.3296268935340254
208.037,0.40864169789805693,-0.40864169789805693
208.038,0.4139438605919743,-0.4139438605919743
208.039,0.345980809479855,-0.345980809479855
208.04,0.21988592806110552,-0.21988592806110552
208.041,0.06114587750323108,-0.06114587750323108
208.042,0.10024614749992278,0.10024614749992278
208.043,0.23589387058777445,0.23589387058777445
208.044,0.3242917879422478,0.3242917879422478
208.045,0.3545031623769015,0.3545031623769015
208.046,0.32767610902111155,0.32767610902111155
208.047,0.25612813039454596,0.25612813039454596
208.048,0.1600812984117297,0.1600812984117297
208.049,0.06258789263121178,0.06258789263121178
208.05,0.016309134950185156,-0.016309134950185156
208.051,0.0647437394607816,-0.0647437394607816
208.052,0.08201018775585711,-0.08201018775585711
208.053,0.0782471262566925,-0.0782471262566925
208.054,0.07057906754160104,-0.07057906754160104
208.055,0.07661870680501459,-0.07661870680501459
208.056,0.10728530738796427,-0.10728530738796427
208.057,0.16143110006903927,-0.16143110006903927
208.058,0.2244842382133011,-0.2244842382133011
208.059,0.27217226491610513,-0.27217226491610513
208.06,0.2786717382277868,-0.2786717382277868
208.061,0.22679425793489794,-0.22679425793489794
208.062,0.1167155916730509,-0.1167155916730509
208.063,0.030214566994225533,0.030214566994225533
208.064,0.17473663373568038,0.17473663373568038
208.065,0.26990561176678574,0.26990561176678574
208.066,0.27564867494047385,0.27564867494047385
208.067,0.1731556208388183,0.1731556208388183
208.068,0.025880277908929883,-0.025880277908929883
208.069,0.2789245065226633,-0.2789245065226633
208.07,0.5222476838753107,-0.5222476838753107
208.071,0.688333593469094,-0.688333593469094
208.072,0.7260007909354109,-0.7260007909354109
208.073,0.6168716725974338,-0.6168716725974338
208.074,0.3825865160935188,-0.3825865160935188
208.075,0.07988579930892581,-0.07988579930892581
208.076,0.21544517707107214,0.21544517707107214
208.077,0.4310284650921721,0.4310284650921721
208.078,0.5196762104241619,0.5196762104241619
208.079,0.4734038986046438,0.4734038986046438
208.08,0.3249455836314541,0.3249455836314541
208.081,0.1361012633987515,0.1361012633987515
208.082,0.023342296927810313,-0.023342296927810313
208.083,0.09912043690557149,-0.09912043690557149
208.084,0.0704913289176946,-0.0704913289176946
208.085,0.04344459828809977,0.04344459828809977
208.086,0.19134891005155685,0.19134891005155685
208.087,0.308628693071189,0.308628693071189
208.088,0.34125629670570423,0.34125629670570423
208.089,0.2660825453539155,0.2660825453539155
208.09,0.10037694076176673,0.10037694076176673
208.091,0.1030319267955836,-0.1030319267955836
208.092,0.2736551810709562,-0.2736551810709562
208.093,0.34829946243607846,-0.34829946243607846
208.094,0.2944632739434708,-0.2944632739434708
208.095,0.12387131559848275,-0.12387131559848275
208.096,0.10894228339916201,0.10894228339916201
208.097,0.3230369380096667,0.3230369380096667
208.098,0.43731255350565323,0.43731255350565323
208.099,0.39794524637124384,0.39794524637124384
208.1,0.19774611815793297,0.19774611815793297
208.101,0.11927850082969638,-0.11927850082969638
208.102,0.47001956078523255,-0.47001956078523255
208.103,0.7573115582938544,-0.7573115582938544
208.104,0.8998785827462016,-0.8998785827462016
208.105,0.8574527848899013,-0.8574527848899013
208.106,0.6429178476743528,-0.6429178476743528
208.107,0.31762682283171606,-0.31762682283171606
208.108,0.02840137607005122,0.02840137607005122
208.109,0.3047671341161733,0.3047671341161733
208.11,0.44815315721069804,0.44815315721069804
208.111,0.4401323192667519,0.4401323192667519
208.112,0.30988252051583487,0.30988252051583487
208.113,0.12149304128625227,0.12149304128625227
208.114,0.04936308789088584,-0.04936308789088584
208.115,0.14126836974445434,-0.14126836974445434
208.116,0.12676147228311174,-0.12676147228311174
208.117,0.019632704640557108,-0.019632704640557108
208.118,0.13205616699289657,0.13205616699289657
208.119,0.2642452049771167,0.2642452049771167
208.12,0.31980778448043945,0.31980778448043945
208.121,0.26824201820343485,0.26824201820343485
208.122,0.1156764798028882,0.1156764798028882
208.123,0.09770143226584027,-0.09770143226584027
208.124,0.311337671303748,-0.311337671303748
208.125,0.4640429596572512,-0.4640429596572512
208.126,0.5129764920214752,-0.5129764920214752
208.127,0.4457795808550229,-0.4457795808550229
208.128,0.2824513175626612,-0.2824513175626612
208.129,0.0672073891405568,-0.0672073891405568
208.13,0.14615575164279426,0.14615575164279426
208.131,0.3100641660371577,0.3100641660371577
208.132,0.3949934526801544,0.3949934526801544
208.133,0.39411724649120194,0.39411724649120194
208.134,0.32042978585176773,0.32042978585176773
208.135,0.19865056940771808,0.19865056940771808
208.136,0.055719690149022005,0.055719690149022005
208.137,0.08641469725114792,-0.08641469725114792
208.138,0.21354049763361815,-0.21354049763361815
208.139,0.31750125005222707,-0.31750125005222707
208.14,0.3921005952679112,-0.3921005952679112
208.141,0.4295171743884454,-0.4295171743884454
208.142,0.4196889998382686,-0.4196889998382686
208.143,0.35352334656662066,-0.35352334656662066
208.144,0.2287612431084698,-0.2287612431084698
208.145,0.05575915027715883,-0.05575915027715883
208.146,0.13995793988307415,0.13995793988307415
208.147,0.32053958506717706,0.32053958506717706
208.148,0.4441896742662452,0.4441896742662452
208.149,0.4769249430642759,0.4769249430642759
208.15,0.4039017768252675,0.4039017768252675
208.151,0.23619353177211666,0.23619353177211666
208.152,0.010140878337322912,0.010140878337322912
208.153,0.22119982830709184,-0.22119982830709184
208.154,0.40226107679688083,-0.40226107679688083
208.155,0.4905153125682671,-0.4905153125682671
208.156,0.46844458346472606,-0.46844458346472606
208.157,0.34807407019801573,-0.34807407019801573
208.158,0.16663176484431097,-0.16663176484431097
208.159,0.025182195420456077,0.025182195420456077
208.16,0.17843012922424983,0.17843012922424983
208.161,0.2597390965332371,0.2597390965332371
208.162,0.25938341572894985,0.25938341572894985
208.163,0.1914437845399226,0.1914437845399226
208.164,0.08658945947624996,0.08658945947624996
208.165,0.019540243701169913,-0.019540243701169913
208.166,0.0981112325392417,-0.0981112325392417
208.167,0.13507229714988012,-0.13507229714988012
208.168,0.13304410133492262,-0.13304410133492262
208.169,0.10718974535896653,-0.10718974535896653
208.17,0.07729393501530823,-0.07729393501530823
208.171,0.059444956983615516,-0.059444956983615516
208.172,0.060513793238477276,-0.060513793238477276
208.173,0.0772166918587116,-0.0772166918587116
208.174,0.09954752778871323,-0.09954752778871323
208.175,0.11659529821829406,-0.11659529821829406
208.176,0.12191974673461226,-0.12191974673461226
208.177,0.11605009722769621,-0.11605009722769621
208.178,0.10509610271812231,-0.10509610271812231
208.179,0.09629520894219779,-0.09629520894219779
208.18,0.09277736690120009,-0.09277736690120009
208.181,0.09027770933164914,-0.09027770933164914
208.182,0.0777497217555635,-0.0777497217555635
208.183,0.04212139335514453,-0.04212139335514453
208.184,0.024509541813839686,0.024509541813839686
208.185,0.11830186834005452,0.11830186834005452
208.186,0.2209238448912656,0.2209238448912656
208.187,0.3026140502613426,0.3026140502613426
208.188,0.3308344013728115,0.3308344013728115
208.189,0.28194759311347073,0.28194759311347073
208.19,0.15178134217562755,0.15178134217562755
208.191,0.03915283677335524,-0.03915283677335524
208.192,0.2484749530463366,-0.2484749530463366
208.193,0.4227537634105394,-0.4227537634105394
208.194,0.5133396398876443,-0.5133396398876443
208.195,0.492133705130572,-0.492133705130572
208.196,0.36182065411681585,-0.36182065411681585
208.197,0.15665505312955375,-0.15665505312955375
208.198,0.06704337617003153,0.06704337617003153
208.199,0.247987770028129,0.247987770028129
208.2,0.33914928109733466,0.33914928109733466
208.201,0.32267513062731834,0.32267513062731834
208.202,0.21531851531136037,0.21531851531136037
208.203,0.062314543907248776,0.062314543907248776
208.204,0.07842350496777417,-0.07842350496777417
208.205,0.15651273808287403,-0.15651273808287403
208.206,0.14679165430239294,-0.14679165430239294
208.207,0.05830267978583281,-0.05830267978583281
208.208,0.06871341737511405,0.06871341737511405
208.209,0.1769722158464142,0.1769722158464142
208.21,0.21270234916784125,0.21270234916784125
208.211,0.1455311158624455,0.1455311158624455
208.212,0.019277315487602698,-0.019277315487602698
208.213,0.24068165377385364,-0.24068165377385364
208.214,0.4541596342094817,-0.4541596342094817
208.215,0.5924874833554268,-0.5924874833554268
208.216,0.6080642735953465,-0.6080642735953465
208.217,0.48921039751442763,-0.48921039751442763
208.218,0.26483010478286495,-0.26483010478286495
208.219,0.0042733694107726095,0.0042733694107726095
208.22,0.2446324851533539,0.2446324851533539
208.221,0.39352496422215544,0.39352496422215544
208.222,0.4187623931238198,0.4187623931238198
208.223,0.3282824913917961,0.3282824913917961
208.224,0.16641157542427765,0.16641157542427765
208.225,0.0018501718382970544,-0.0018501718382970544
208.226,0.11316445007370568,-0.11316445007370568
208.227,0.12728553560357547,-0.12728553560357547
208.228,0.0404393591696971,-0.0404393591696971
208.229,0.11372328005408172,0.11372328005408172
208.23,0.2757727786120656,0.2757727786120656
208.231,0.38072236027928064,0.38072236027928064
208.232,0.3800146229482415,0.3800146229482415
208.233,0.25799062267247486,0.25799062267247486
208.234,0.03751091772049753,0.03751091772049753
208.235,0.22693302714498353,-0.22693302714498353
208.236,0.46615474739569707,-0.46615474739569707
208.237,0.6175928826047467,-0.6175928826047467
208.238,0.6441024837856189,-0.6441024837856189
208.239,0.5443500118728839,-0.5443500118728839
208.24,0.35185556439280685,-0.35185556439280685
208.241,0.1234718801036101,-0.1234718801036101
208.242,0.0785917934257343,0.0785917934257343
208.243,0.20526464153396673,0.20526464153396673
208.244,0.23387202727596001,0.23387202727596001
208.245,0.17241736984577405,0.17241736984577405
208.246,0.05423658882634719,0.05423658882634719
208.247,0.07454301109307648,-0.07454301109307648
208.248,0.17023109014979432,-0.17023109014979432
208.249,0.20451502284618372,-0.20451502284618372
208.25,0.1713095841817034,-0.1713095841817034
208.251,0.08600537445510559,-0.08600537445510559
208.252,0.021825945739964325,0.021825945739964325
208.253,0.11923597725845458,0.11923597725845458
208.254,0.18039147062593996,0.18039147062593996
208.255,0.19347387653985582,0.19347387653985582
208.256,0.1622619770315532,0.1622619770315532
208.257,0.1026138267741008,0.1026138267741008
208.258,0.03569652228446718,0.03569652228446718
208.259,0.01937859783751772,-0.01937859783751772
208.26,0.05104668548567182,-0.05104668548567182
208.261,0.05743351737304325,-0.05743351737304325
208.262,0.04503320994238702,-0.04503320994238702
208.263,0.02498735765454896,-0.02498735765454896
208.264,0.008658692876149399,-0.008658692876149399
208.265,0.00411265332396038,-0.00411265332396038
208.266,0.014471322534849174,-0.014471322534849174
208.267,0.038217568734943086,-0.038217568734943086
208.268,0.07078177130121799,-0.07078177130121799
208.269,0.10641358607906592,-0.10641358607906592
208.27,0.13949921297822476,-0.13949921297822476
208.271,0.16499213816965452,-0.16499213816965452
208.272,0.17820898718441458,-0.17820898718441458
208.273,0.17461882551877572,-0.17461882551877572
208.274,0.1502522419844582,-0.1502522419844582
208.275,0.10298413439571164,-0.10298413439571164
208.276,0.03438038186768311,-0.03438038186768311
208.277,0.04868693261376489,0.04868693261376489
208.278,0.13361512686024812,0.13361512686024812
208.279,0.20352715777794472,0.20352715777794472
208.28,0.24066491296108383,0.24066491296108383
208.281,0.2310073474621619,0.2310073474621619
208.282,0.16879726664812034,0.16879726664812034
208.283,0.05947527445989542,0.05947527445989542
208.284,0.08013987387102017,-0.08013987387102017
208.285,0.2248038950212924,-0.2248038950212924
208.286,0.34634118966214,-0.34634118966214
208.287,0.4202573747370604,-0.4202573747370604
208.288,0.43164152556743096,-0.43164152556743096
208.289,0.378695109143089,-0.378695109143089
208.29,0.27291180352961897,-0.27291180352961897
208.291,0.13591716307413393,-0.13591716307413393
208.292,0.006059616507922749,0.006059616507922749
208.293,0.1284712597269817,0.1284712597269817
208.294,0.21375826032356637,0.21375826032356637
208.295,0.25433676904729974,0.25433676904729974
208.296,0.2526991162412322,0.2526991162412322
208.297,0.21893395809527583,0.21893395809527583
208.298,0.16668014848653412,0.16668014848653412
208.299,0.10886570860399547,0.10886570860399547
208.3,0.054484017031329435,0.054484017031329435
208.301,0.007198955765352233,0.007198955765352233
208.302,0.03407239315472177,-0.03407239315472177
208.303,0.07306338217444475,-0.07306338217444475
208.304,0.11341568227526067,-0.11341568227526067
208.305,0.1562623528093604,-0.1562623528093604
208.306,0.19891685654337443,-0.19891685654337443
208.307,0.23505517068381887,-0.23505517068381887
208.308,0.2563128992099233,-0.2563128992099233
208.309,0.25481223944769493,-0.25481223944769493
208.31,0.22587960860730438,-0.22587960860730438
208.311,0.170158790403925,-0.170158790403925
208.312,0.09446419932480465,-0.09446419932480465
208.313,0.011015944801264221,-0.011015944801264221
208.314,0.06490891392685927,0.06490891392685927
208.315,0.1184626056938789,0.1184626056938789
208.316,0.1390581998881073,0.1390581998881073
208.317,0.12356069621442245,0.12356069621442245
208.318,0.07788255035295855,0.07788255035295855
208.319,0.016318603775453244,0.016318603775453244
208.32,0.04152090679785436,-0.04152090679785436
208.321,0.07566350213279827,-0.07566350213279827
208.322,0.07147372818136288,-0.07147372818136288
208.323,0.02456258854092519,-0.02456258854092519
208.324,0.056630223383141276,0.056630223383141276
208.325,0.15165317726892868,0.15165317726892868
208.326,0.23246510064259018,0.23246510064259018
208.327,0.2706137718671535,0.2706137718671535
208.328,0.24538515407402062,0.24538515407402062
208.329,0.1506347050196737,0.1506347050196737
208.33,0.0018403611427804112,-0.0018403611427804112
208.331,0.18370207863384969,-0.18370207863384969
208.332,0.3562452311130716,-0.3562452311130716
208.333,0.4799118640948524,-0.4799118640948524
208.334,0.5246150297607728,-0.5246150297607728
208.335,0.4779463232360148,-0.4779463232360148
208.336,0.3488282398934405,-0.3488282398934405
208.337,0.16543589642434986,-0.16543589642434986
208.338,0.03211063283135607,0.03211063283135607
208.339,0.2022102362249909,0.2022102362249909
208.34,0.3123669977577288,0.3123669977577288
208.341,0.3468386427416672,0.3468386427416672
208.342,0.3092203880569566,0.3092203880569566
208.343,0.21943783246357373,0.21943783246357373
208.344,0.10637098667929035,0.10637098667929035
208.345,0.0013466005554836347,-0.0013466005554836347
208.346,0.08334940382095113,-0.08334940382095113
208.347,0.1319234865831006,-0.1319234865831006
208.348,0.15164530178639601,-0.15164530178639601
208.349,0.15485068559506954,-0.15485068559506954
208.35,0.15493155946921167,-0.15493155946921167
208.351,0.16012628508707405,-0.16012628508707405
208.352,0.17015840210128153,-0.17015840210128153
208.353,0.17691284241731053,-0.17691284241731053
208.354,0.16875129774978814,-0.16875129774978814
208.355,0.13664512636175352,-0.13664512636175352
208.356,0.07957315955770394,-0.07957315955770394
208.357,0.006870839913149518,-0.006870839913149518
208.358,0.06365034110237788,0.06365034110237788
208.359,0.11137599717506452,0.11137599717506452
208.36,0.12040871935002428,0.12040871935002428
208.361,0.08615697714207071,0.08615697714207071
208.362,0.018392436139976986,0.018392436139976986
208.363,0.06066889504596229,-0.06066889504596229
208.364,0.1229603186153082,-0.1229603186153082
208.365,0.1438107274301258,-0.1438107274301258
208.366,0.11074956699769822,-0.11074956699769822
208.367,0.02876195355871447,-0.02876195355871447
208.368,0.08003068309955919,0.08003068309955919
208.369,0.182454683454367,0.182454683454367
208.37,0.2443595670717551,0.2443595670717551
208.371,0.24149805013779302,0.24149805013779302
208.372,0.16766078575715904,0.16766078575715904
208.373,0.037345647467935894,0.037345647467935894
208.374,0.11800356546360513,-0.11800356546360513
208.375,0.25906119620882695,-0.25906119620882695
208.376,0.3501330535008522,-0.3501330535008522
208.377,0.36948628433009323,-0.36948628433009323
208.378,0.31528504901229826,-0.31528504901229826
208.379,0.20538922124027004,-0.20538922124027004
208.38,0.07128016018203032,-0.07128016018203032
208.381,0.051756976456999615,0.051756976456999615
208.382,0.13495812805904728,0.13495812805904728
208.383,0.16367224647515877,0.16367224647515877
208.384,0.140039073638349,0.140039073638349
208.385,0.08029441122149517,0.08029441122149517
208.386,0.008021290173274354,0.008021290173274354
208.387,0.05410645187411289,-0.05410645187411289
208.388,0.09124955113401356,-0.09124955113401356
208.389,0.09984886826934414,-0.09984886826934414
208.39,0.0868171523568203,-0.0868171523568203
208.391,0.06524207215633049,-0.06524207215633049
208.392,0.048517874472226996,-0.048517874472226996
208.393,0.04520447008636419,-0.04520447008636419
208.394,0.056435350230448544,-0.056435350230448544
208.395,0.07658579630462248,-0.07658579630462248
208.396,0.0966150500591989,-0.0966150500591989
208.397,0.10850232786017444,-0.10850232786017444
208.398,0.10886394121487297,-0.10886394121487297
208.399,0.10026367191269536,-0.10026367191269536
208.4,0.08972034153528485,-0.08972034153528485
208.401,0.08507783894464582,-0.08507783894464582
208.402,0.09078346297133955,-0.09078346297133955
208.403,0.10488613393364754,-0.10488613393364754
208.404,0.11862040036588861,-0.11862040036588861
208.405,0.11895746237933835,-0.11895746237933835
208.406,0.0933528057269648,-0.0933528057269648
208.407,0.03503282420459963,-0.03503282420459963
208.408,0.05312891299690903,0.05312891299690903
208.409,0.15767996305563492,0.15767996305563492
208.41,0.25715956189461653,0.25715956189461653
208.411,0.3275367960665352,0.3275367960665352
208.412,0.3488921814867525,0.3488921814867525
208.413,0.31127292830342146,0.31127292830342146
208.414,0.21789662581391922,0.21789662581391922
208.415,0.08471760734694112,0.08471760734694112
208.416,0.063489765262144,-0.063489765262144
208.417,0.19932122341820024,-0.19932122341820024
208.418,0.2993650371948864,-0.2993650371948864
208.419,0.34938908251294243,-0.34938908251294243
208.42,0.34677317091387505,-0.34677317091387505
208.421,0.2997742427439051,-0.2997742427439051
208.422,0.22416139408278246,-0.22416139408278246
208.423,0.13844780523292588,-0.13844780523292588
208.424,0.059190072368307645,-0.059190072368307645
208.425,0.002399705676427777,0.002399705676427777
208.426,0.04184506206605687,0.04184506206605687
208.427,0.0607897546091718,0.0607897546091718
208.428,0.06492679366526222,0.06492679366526222
208.429,0.06131789818178324,0.06131789818178324
208.43,0.0559408828029786,0.0559408828029786
208.431,0.05205989530764832,0.05205989530764832
208.432,0.049667832689692215,0.049667832689692215
208.433,0.04593364510147335,0.04593364510147335
208.434,0.036382825500966165,0.036382825500966165
208.435,0.016461913023039232,0.016461913023039232
208.436,0.016852401037130815,-0.016852401037130815
208.437,0.06369955758500767,-0.06369955758500767
208.438,0.12050448618517162,-0.12050448618517162
208.439,0.17990753202883603,-0.17990753202883603
208.44,0.23162459138960045,-0.23162459138960045
208.441,0.26425758228405893,-0.26425758228405893
208.442,0.2678341329658971,-0.2678341329658971
208.443,0.2365707327684471,-0.2365707327684471
208.444,0.17112770039178526,-0.17112770039178526
208.445,0.07957691820187529,-0.07957691820187529
208.446,0.023483204307292782,0.023483204307292782
208.447,0.11976142737048678,0.11976142737048678
208.448,0.19153861890598933,0.19153861890598933
208.449,0.22628627609256502,0.22628627609256502
208.45,0.22027067526129418,0.22027067526129418
208.451,0.17990779014766756,0.17990779014766756
208.452,0.1202098282160855,0.1202098282160855
208.453,0.06054016334235346,0.06054016334235346
208.454,0.018797990441988377,0.018797990441988377
208.455,0.005772613281816774,0.005772613281816774
208.456,0.02149442847752714,0.02149442847752714
208.457,0.054886287761037655,0.054886287761037655
208.458,0.08701627229557984,0.08701627229557984
208.459,0.09708228134194741,0.09708228134194741
208.46,0.06931256005388331,0.06931256005388331
208.461,0.0014177320563301121,-0.0014177320563301121
208.462,0.10711622697661438,-0.10711622697661438
208.463,0.22823790340985262,-0.22823790340985262
208.464,0.33887437476889215,-0.33887437476889215
208.465,0.41396961883748584,-0.41396961883748584
208.466,0.4362955226417704,-0.4362955226417704
208.467,0.40100898075939173,-0.40100898075939173
208.468,0.3164330875064577,-0.3164330875064577
208.469,0.20097601978257362,-0.20097601978257362
208.47,0.07737897083394207,-0.07737897083394207
208.471,0.033678880079581974,0.033678880079581974
208.472,0.11848551466515489,0.11848551466515489
208.473,0.17223195301437744,0.17223195301437744
208.474,0.19766198641452704,0.19766198641452704
208.475,0.20135481281438272,0.20135481281438272
208.476,0.18940650676829485,0.18940650676829485
208.477,0.16441667662501103,0.16441667662501103
208.478,0.12506873448402533,0.12506873448402533
208.479,0.06845291728346048,0.06845291728346048
208.48,0.005938137849079372,-0.005938137849079372
208.481,0.09242838716540536,-0.09242838716540536
208.482,0.1775525732711397,-0.1775525732711397
208.483,0.24185094374836313,-0.24185094374836313
208.484,0.26499024670144034,-0.26499024670144034
208.485,0.23274629733863084,-0.23274629733863084
208.486,0.14343476504490626,-0.14343476504490626
208.487,0.011264451268426678,-0.011264451268426678
208.488,0.13508574537329743,0.13508574537329743
208.489,0.25883803520427895,0.25883803520427895
208.49,0.32488852729575335,0.32488852729575335
208.491,0.31012889088944884,0.31012889088944884
208.492,0.21105529891282582,0.21105529891282582
208.493,0.046079589063671156,0.046079589063671156
208.494,0.1484656017452599,-0.1484656017452599
208.495,0.3276626441064887,-0.3276626441064887
208.496,0.4500045237159672,-0.4500045237159672
208.497,0.4884895168119855,-0.4884895168119855
208.498,0.4375140836190018,-0.4375140836190018
208.499,0.3135823053804552,-0.3135823053804552
208.5,0.149791222951987,-0.149791222951987
208.501,0.014030088734803492,0.014030088734803492
208.502,0.1423835252355492,0.1423835252355492
208.503,0.21300810200050102,0.21300810200050102
208.504,0.22114341363129442,0.22114341363129442
208.505,0.17829351481697597,0.17829351481697597
208.506,0.106442176124518,0.106442176124518
208.507,0.030041544696776556,0.030041544696776556
208.508,0.031408896577668655,-0.031408896577668655
208.509,0.06787347429247248,-0.06787347429247248
208.51,0.07931511680215864,-0.07931511680215864
208.511,0.07270506975194047,-0.07270506975194047
208.512,0.057180487460236296,-0.057180487460236296
208.513,0.0395231891116542,-0.0395231891116542
208.514,0.021771384170418462,-0.021771384170418462
208.515,0.0017382773010743424,-0.0017382773010743424
208.516,0.024071273913210733,0.024071273913210733
208.517,0.05667333564670218,0.05667333564670218
208.518,0.09183495904939343,0.09183495904939343
208.519,0.11978232024058677,0.11978232024058677
208.52,0.12780765277019657,0.12780765277019657
208.521,0.10495664577104002,0.10495664577104002
208.522,0.04703025115797188,0.04703025115797188
208.523,0.040140998541064565,-0.040140998541064565
208.524,0.14067041271003622,-0.14067041271003622
208.525,0.2322156601801506,-0.2322156601801506
208.526,0.2922424434548133,-0.2922424434548133
208.527,0.3049424570502687,-0.3049424570502687
208.528,0.26644836730204724,-0.26644836730204724
208.529,0.18648334392692534,-0.18648334392692534
208.53,0.08575939573047198,-0.08575939573047198
208.531,0.010114723469070386,0.010114723469070386
208.532,0.0782527651832785,0.0782527651832785
208.533,0.10514461757422677,0.10514461757422677
208.534,0.09018394085243764,0.09018394085243764
208.535,0.04498494441458556,0.04498494441458556
208.536,0.011160129603338231,-0.011160129603338231
208.537,0.05804039700606378,-0.05804039700606378
208.538,0.08116306633342751,-0.08116306633342751
208.539,0.07605516093634235,-0.07605516093634235
208.54,0.04890365528018137,-0.04890365528018137
208.541,0.013519399118647635,-0.013519399118647635
208.542,0.014125918341714394,0.014125918341714394
208.543,0.02176727897452535,0.02176727897452535
208.544,0.005066254533621972,0.005066254533621972
208.545,0.031176496056427028,-0.031176496056427028
208.546,0.07504179056290294,-0.07504179056290294
208.547,0.11182263005333104,-0.11182263005333104
208.548,0.12899346737377881,-0.12899346737377881
208.549,0.12004739673896736,-0.12004739673896736
208.55,0.0859805039175422,-0.0859805039175422
208.551,0.03416017207829347,-0.03416017207829347
208.552,0.0247031970134719,0.0247031970134719
208.553,0.08012821449669194,0.08012821449669194
208.554,0.12456540298974605,0.12456540298974605
208.555,0.15432370653649818,0.15432370653649818
208.556,0.16865479752994816,0.16865479752994816
208.557,0.1677496087695587,0.1677496087695587
208.558,0.15085959550653572,0.15085959550653572
208.559,0.11566183900753613,0.11566183900753613
208.56,0.05938019255532989,0.05938019255532989
208.561,0.018694328569843988,-0.018694328569843988
208.562,0.11440512736249386,-0.11440512736249386
208.563,0.21709798880394215,-0.21709798880394215
208.564,0.3103117598499865,-0.3103117598499865
208.565,0.37511988003132757,-0.37511988003132757
208.566,0.39537748003116757,-0.39537748003116757
208.567,0.3632234948363783,-0.3632234948363783
208.568,0.28282669231072,-0.28282669231072
208.569,0.17074084333131823,-0.17074084333131823
208.57,0.05227124350525403,-0.05227124350525403
208.571,0.04537864470735942,0.04537864470735942
208.572,0.1011922512559893,0.1011922512559893
208.573,0.10705071540003286,0.10705071540003286
208.574,0.07071274875739308,0.07071274875739308
208.575,0.013794092723009355,0.013794092723009355
208.576,0.03492444700515507,-0.03492444700515507
208.577,0.04894418794705313,-0.04894418794705313
208.578,0.013301912775193436,-0.013301912775193436
208.579,0.0694217878715937,0.0694217878715937
208.58,0.17848672308608782,0.17848672308608782
208.581,0.2802690859816783,0.2802690859816783
208.582,0.3380526238597694,0.3380526238597694
208.583,0.32346079041075004,0.32346079041075004
208.584,0.22603062874176905,0.22603062874176905
208.585,0.057895195956005896,0.057895195956005896
208.586,0.14803262686257945,-0.14803262686257945
208.587,0.3460356221298161,-0.3460356221298161
208.588,0.4895265756824564,-0.4895265756824564
208.589,0.5435421209891469,-0.5435421209891469
208.59,0.4942245988765108,-0.4942245988765108
208.591,0.3526152163916001,-0.3526152163916001
208.592,0.1517533871460084,-0.1517533871460084
208.593,0.06199536734251798,0.06199536734251798
208.594,0.24085960228720893,0.24085960228720893
208.595,0.3474938447126181,0.3474938447126181
208.596,0.3635643614855446,0.3635643614855446
208.597,0.29299713160185314,0.29299713160185314
208.598,0.15938738998713387,0.15938738998713387
208.599,0.0013093850893264314,-0.0013093850893264314
208.6,0.15050410892326493,-0.15050410892326493
208.601,0.25637848529127616,-0.25637848529127616
208.602,0.3005890752387339,-0.3005890752387339
208.603,0.2808736160710531,-0.2808736160710531
208.604,0.20941668073320818,-0.20941668073320818
208.605,0.10797199051858786,-0.10797199051858786
208.606,0.001454564802515823,-0.001454564802515823
208.607,0.08814035056284086,0.08814035056284086
208.608,0.1460237222397036,0.1460237222397036
208.609,0.16636817647448598,0.16636817647448598
208.61,0.15160637402556998,0.15160637402556998
208.611,0.10998875859088786,0.10998875859088786
208.612,0.05243482499626961,0.05243482499626961
208.613,0.010328717669729093,-0.010328717669729093
208.614,0.0696687608714871,-0.0696687608714871
208.615,0.11975941215674801,-0.11975941215674801
208.616,0.15729786684059277,-0.15729786684059277
208.617,0.18067500331963304,-0.18067500331963304
208.618,0.18911368068618029,-0.18911368068618029
208.619,0.1821680793449838,-0.1821680793449838
208.62,0.1597508064022034,-0.1597508064022034
208.621,0.1226118510498786,-0.1226118510498786
208.622,0.07301220976690626,-0.07301220976690626
208.623,0.015259099278577826,-0.015259099278577826
208.624,0.0441948916274546,0.0441948916274546
208.625,0.09726367757124699,0.09726367757124699
208.626,0.13535566407324873,0.13535566407324873
208.627,0.1509484880467169,0.1509484880467169
208.628,0.1392989715166173,0.1392989715166173
208.629,0.09989489682169395,0.09989489682169395
208.63,0.037252908759802805,0.037252908759802805
208.631,0.03924622947744394,-0.03924622947744394
208.632,0.11662083627805642,-0.11662083627805642
208.633,0.18054785841149912,-0.18054785841149912
208.634,0.2182560695652993,-0.2182560695652993
208.635,0.22146770963615758,-0.22146770963615758
208.636,0.18868667259849436,-0.18868667259849436
208.637,0.1261762430901875,-0.1261762430901875
208.638,0.047198045462690574,-0.047198045462690574
208.639,0.030531146889923866,0.030531146889923866
208.64,0.0887469088195636,0.0887469088195636
208.641,0.11307224019026285,0.11307224019026285
208.642,0.09689368024601475,0.09689368024601475
208.643,0.04360801855043461,0.04360801855043461
208.644,0.033516638948209,-0.033516638948209
208.645,0.11406091757643311,-0.11406091757643311
208.646,0.17527383588831147,-0.17527383588831147
208.647,0.19789666561208785,-0.19789666561208785
208.648,0.17152459617407767,-0.17152459617407767
208.649,0.09803916640136534,-0.09803916640136534
208.65,0.007953089696952187,0.007953089696952187
208.651,0.12201395341910581,0.12201395341910581
208.652,0.2155637179056067,0.2155637179056067
208.653,0.2630442751432671,0.2630442751432671
208.654,0.24874970662972617,0.24874970662972617
208.655,0.17149689565253556,0.17149689565253556
208.656,0.04577942223495346,0.04577942223495346
208.657,0.10108900507952079,-0.10108900507952079
208.658,0.2352939481524775,-0.2352939481524775
208.659,0.3248087935334568,-0.3248087935334568
208.66,0.34756911508598787,-0.34756911508598787
208.661,0.29739215957266274,-0.29739215957266274
208.662,0.18601441581903655,-0.18601441581903655
208.663,0.040589409230782025,-0.040589409230782025
208.664,0.10283207350477519,0.10283207350477519
208.665,0.20823837268095025,0.20823837268095025
208.666,0.2487281330035349,0.2487281330035349
208.667,0.21334976611654155,0.21334976611654155
208.668,0.10989513541937379,0.10989513541937379
208.669,0.037111225370064505,-0.037111225370064505
208.67,0.19270629150124996,-0.19270629150124996
208.671,0.3203907164796196,-0.3203907164796196
208.672,0.3912589431803164,-0.3912589431803164
208.673,0.3909273171605876,-0.3909273171605876
208.674,0.32245777615128224,-0.32245777615128224
208.675,0.20460745310145179,-0.20460745310145179
208.676,0.06605020357634828,-0.06605020357634828
208.677,0.0626667136797543,0.0626667136797543
208.678,0.15707682816154334,0.15707682816154334
208.679,0.20441567958369156,0.20441567958369156
208.68,0.2054403777141054,0.2054403777141054
208.681,0.1721793539301355,0.1721793539301355
208.682,0.12259711099600756,0.12259711099600756
208.683,0.07407237206067707,0.07407237206067707
208.684,0.03787571138783008,0.03787571138783008
208.685,0.01640693753387179,0.01640693753387179
208.686,0.003956512568149995,0.003956512568149995
208.687,0.009479336087612422,-0.009479336087612422
208.688,0.032859599212908375,-0.032859599212908375
208.689,0.0692897567540367,-0.0692897567540367
208.69,0.11360305428970019,-0.11360305428970019
208.691,0.15333658302515107,-0.15333658302515107
208.692,0.17287830782551705,-0.17287830782551705
208.693,0.15938147302273276,-0.15938147302273276
208.694,0.1083288068727234,-0.1083288068727234
208.695,0.02664707057093052,-0.02664707057093052
208.696,0.06795842444124989,0.06795842444124989
208.697,0.15150318923185413,0.15150318923185413
208.698,0.2007566096613409,0.2007566096613409
208.699,0.2005495710639349,0.2005495710639349
208.7,0.14888578606219216,0.14888578606219216
208.701,0.05802522694198098,0.05802522694198098
208.702,0.0489910276685962,-0.0489910276685962
208.703,0.1453697599889343,-0.1453697599889343
208.704,0.20889780009528802,-0.20889780009528802
208.705,0.2288126014248033,-0.2288126014248033
208.706,0.20886667560478178,-0.20886667560478178
208.707,0.16548159542720808,-0.16548159542720808
208.708,0.12154489376769106,-0.12154489376769106
208.709,0.09791852156549907,-0.09791852156549907
208.71,0.1055732717192418,-0.1055732717192418
208.711,0.14112847367583314,-0.14112847367583314
208.712,0.18747884399796177,-0.18747884399796177
208.713,0.21948125391431483,-0.21948125391431483
208.714,0.2129233409386322,-0.2129233409386322
208.715,0.15380151714606138,-0.15380151714606138
208.716,0.04471933708465392,-0.04471933708465392
208.717,0.09392512914172912,0.09392512914172912
208.718,0.2286293627944791,0.2286293627944791
208.719,0.322093095122441,0.322093095122441
208.72,0.34433183438221615,0.34433183438221615
208.721,0.2821363064131126,0.2821363064131126
208.722,0.1438855140574946,0.1438855140574946
208.723,0.0418421712236825,-0.0418421712236825
208.724,0.23348406428337798,-0.23348406428337798
208.725,0.38736621218614353,-0.38736621218614353
208.726,0.46899217492732215,-0.46899217492732215
208.727,0.4614798313107912,-0.4614798313107912
208.728,0.3688769482198776,-0.3688769482198776
208.729,0.21374572764236488,-0.21374572764236488
208.73,0.030158690437041114,-0.030158690437041114
208.731,0.1454808265219294,0.1454808265219294
208.732,0.28297404409562876,0.28297404409562876
208.733,0.3639265829801539,0.3639265829801539
208.734,0.3833306441302571,0.3833306441302571
208.735,0.34746691729896995,0.34746691729896995
208.736,0.26958312241891047,0.26958312241891047
208.737,0.16526107456359007,0.16526107456359007
208.738,0.04908009875049024,0.04908009875049024
208.739,0.06668326293107907,-0.06668326293107907
208.74,0.1716150462299918,-0.1716150462299918
208.741,0.25604736650864357,-0.25604736650864357
208.742,0.3105277826403241,-0.3105277826403241
208.743,0.32670859043590805,-0.32670859043590805
208.744,0.29964419921873087,-0.29964419921873087
208.745,0.23060475590810925,-0.23060475590810925
208.746,0.12900164231636224,-0.12900164231636224
208.747,0.012129242610228075,-0.012129242610228075
208.748,0.09784437955575065,0.09784437955575065
208.749,0.17912233521942222,0.17912233521942222
208.75,0.21623567182556092,0.21623567182556092
208.751,0.20468209516294866,0.20468209516294866
208.752,0.15246384398416213,0.15246384398416213
208.753,0.07770902458036999,0.07770902458036999
208.754,0.00292675519960639,0.00292675519960639
208.755,0.052286941573448154,-0.052286941573448154
208.756,0.07759978627051167,-0.07759978627051167
208.757,0.07506687388209032,-0.07506687388209032
208.758,0.05781150818072989,-0.05781150818072989
208.759,0.04462084533466515,-0.04462084533466515
208.76,0.052331055924812464,-0.052331055924812464
208.761,0.08876894575745253,-0.08876894575745253
208.762,0.1489225961669659,-0.1489225961669659
208.763,0.21592257985085794,-0.21592257985085794
208.764,0.26668851314576714,-0.26668851314576714
208.765,0.2803461516770489,-0.2803461516770489
208.766,0.24639576905965543,-0.24639576905965543
208.767,0.16955693924509285,-0.16955693924509285
208.768,0.06929523774887303,-0.06929523774887303
208.769,0.026096471909203833,0.026096471909203833
208.77,0.08898895866486178,0.08898895866486178
208.771,0.10220167517953138,0.10220167517953138
208.772,0.06553489367117393,0.06553489367117393
208.773,0.0034846529414502836,-0.0034846529414502836
208.774,0.07519763341698005,-0.07519763341698005
208.775,0.11803017164158935,-0.11803017164158935
208.776,0.10987448749395001,-0.10987448749395001
208.777,0.0465977588846207,-0.0465977588846207
208.778,0.055502037696169904,0.055502037696169904
208.779,0.16444678795173084,0.16444678795173084
208.78,0.2431677329077615,0.2431677329077615
208.781,0.26243263654588533,0.26243263654588533
208.782,0.21163600123783866,0.21163600123783866
208.783,0.1035495750191644,0.1035495750191644
208.784,0.028902170722654996,-0.028902170722654996
208.785,0.14306064522530504,-0.14306064522530504
208.786,0.20082838060054764,-0.20082838060054764
208.787,0.18205760452395636,-0.18205760452395636
208.788,0.09239337431468364,-0.09239337431468364
208.789,0.03732029818394067,0.03732029818394067
208.79,0.16017668878189362,0.16017668878189362
208.791,0.22809904001181214,0.22809904001181214
208.792,0.20769419298060532,0.20769419298060532
208.793,0.09184348513998897,0.09184348513998897
208.794,0.09687166381585677,-0.09687166381585677
208.795,0.31216833264226684,-0.31216833264226684
208.796,0.4976570874319821,-0.4976570874319821
208.797,0.6037105597118952,-0.6037105597118952
208.798,0.6022160584615752,-0.6022160584615752
208.799,0.4945384213684002,-0.4945384213684002
208.8,0.31026982233103095,-0.31026982233103095
208.801,0.0973657684332161,-0.0973657684332161
208.802,0.09295439347525192,0.09295439347525192
208.803,0.22155015285841717,0.22155015285841717
208.804,0.27202143378551513,0.27202143378551513
208.805,0.25345791533594353,0.25345791533594353
208.806,0.19476071605238698,0.19476071605238698
208.807,0.13282626880779147,0.13282626880779147
208.808,0.09883500687913571,0.09883500687913571
208.809,0.10735709632976254,0.10735709632976254
208.81,0.15186031308771253,0.15186031308771253
208.811,0.2079100309201345,0.2079100309201345
208.812,0.24269882512959184,0.24269882512959184
208.813,0.22743968708388929,0.22743968708388929
208.814,0.1482935248934405,0.1482935248934405
208.815,0.012126888963495563,0.012126888963495563
208.816,0.154754063052016,-0.154754063052016
208.817,0.3143405152325002,-0.3143405152325002
208.818,0.4284426975168485,-0.4284426975168485
208.819,0.47015454213389396,-0.47015454213389396
208.82,0.4315857128666766,-0.4315857128666766
208.821,0.32555672861514373,-0.32555672861514373
208.822,0.18101252874988127,-0.18101252874988127
208.823,0.03393612031806381,-0.03393612031806381
208.824,0.08313391251216573,0.08313391251216573
208.825,0.1496550006721884,0.1496550006721884
208.826,0.16125016232627565,0.16125016232627565
208.827,0.12864935276726097,0.12864935276726097
208.828,0.07230001998833013,0.07230001998833013
208.829,0.014833388807568237,0.014833388807568237
208.83,0.02598439451239165,-0.02598439451239165
208.831,0.04166119824532011,-0.04166119824532011
208.832,0.03373258483148611,-0.03373258483148611
208.833,0.011191563384490899,-0.011191563384490899
208.834,0.014008273292218876,0.014008273292218876
208.835,0.031534591502420994,0.031534591502420994
208.836,0.03576380627162101,0.03576380627162101
208.837,0.026584782460689294,0.026584782460689294
208.838,0.008093067318146074,0.008093067318146074
208.839,0.013893898575586205,-0.013893898575586205
208.84,0.03428486634709971,-0.03428486634709971
208.841,0.050150673430386705,-0.050150673430386705
208.842,0.06078045109874031,-0.06078045109874031
208.843,0.06667491248723123,-0.06667491248723123
208.844,0.06825502833460761,-0.06825502833460761
208.845,0.06511862183509964,-0.06511862183509964
208.846,0.05632405779217231,-0.05632405779217231
208.847,0.04159567577186829,-0.04159567577186829
208.848,0.02280355079358387,-0.02280355079358387
208.849,0.004824007535514263,-0.004824007535514263
208.85,0.004936977241647211,0.004936977241647211
208.851,0.00146655893351888,-0.00146655893351888
208.852,0.029533132214414892,-0.029533132214414892
208.853,0.07939315988989382,-0.07939315988989382
208.854,0.14417931066412448,-0.14417931066412448
208.855,0.2105815009650972,-0.2105815009650972
208.856,0.26175210293483575,-0.26175210293483575
208.857,0.2818585339479701,-0.2818585339479701
208.858,0.2608987286406992,-0.2608987286406992
208.859,0.1981725259113456,-0.1981725259113456
208.86,0.10314983197411776,-0.10314983197411776
208.861,0.006703641783430969,0.006703641783430969
208.862,0.11056745767599763,0.11056745767599763
208.863,0.18994714178918715,0.18994714178918715
208.864,0.23358755572857914,0.23358755572857914
208.865,0.24004927611674254,0.24004927611674254
208.866,0.21715862276262388,0.21715862276262388
208.867,0.1785965384934729,0.1785965384934729
208.868,0.13885195793305538,0.13885195793305538
208.869,0.1082955480654908,0.1082955480654908
208.87,0.09004639589051155,0.09004639589051155
208.871,0.0796418559239418,0.0796418559239418
208.872,0.06751826887777268,0.06751826887777268
208.873,0.04332425069921064,0.04332425069921064
208.874,0.0004649880867375611,0.0004649880867375611
208.875,0.06077156040923781,-0.06077156040923781
208.876,0.1326214212614779,-0.1326214212614779
208.877,0.20198272689549934,-0.20198272689549934
208.878,0.2545155051318504,-0.2545155051318504
208.879,0.2792555010018045,-0.2792555010018045
208.88,0.2721383852730095,-0.2721383852730095
208.881,0.23723896176564596,-0.23723896176564596
208.882,0.1853452093155521,-0.1853452093155521
208.883,0.13041310883852875,-0.13041310883852875
208.884,0.085158690180837,-0.085158690180837
208.885,0.05729751456324983,-0.05729751456324983
208.886,0.047665324315612434,-0.047665324315612434
208.887,0.05076101123312571,-0.05076101123312571
208.888,0.057399629564243826,-0.057399629564243826
208.889,0.05845067680474603,-0.05845067680474603
208.89,0.04830635351092616,-0.04830635351092616
208.891,0.026874842632143014,-0.026874842632143014
208.892,0.0005467672183907535,0.0005467672183907535
208.893,0.025405911815246762,0.025405911815246762
208.894,0.039229525165447754,0.039229525165447754
208.895,0.03696545880275215,0.03696545880275215
208.896,0.019163528008746544,0.019163528008746544
208.897,0.007753295696458218,-0.007753295696458218
208.898,0.033228596805175536,-0.033228596805175536
208.899,0.045769384473847485,-0.045769384473847485
208.9,0.036596814426832824,-0.036596814426832824
208.901,0.0026326122164739285,-0.0026326122164739285
208.902,0.05206515591575278,0.05206515591575278
208.903,0.11682308880879111,0.11682308880879111
208.904,0.17667278724736657,0.17667278724736657
208.905,0.21583772677233903,0.21583772677233903
208.906,0.22149004393332383,0.22149004393332383
208.907,0.1868723960666585,0.1868723960666585
208.908,0.11309237931292526,0.11309237931292526
208.909,0.009241672644660914,0.009241672644660914
208.91,0.10913405048698932,-0.10913405048698932
208.911,0.22286949739234319,-0.22286949739234319
208.912,0.31275667355558745,-0.31275667355558745
208.913,0.36319915943936454,-0.36319915943936454
208.914,0.36527855051085467,-0.36527855051085467
208.915,0.31865753848313083,-0.31865753848313083
208.916,0.23191562112133013,-0.23191562112133013
208.917,0.12116182019670163,-0.12116182019670163
208.918,0.007079072087011862,-0.007079072087011862
208.919,0.089111898647936,0.089111898647936
208.92,0.14999300829528983,0.14999300829528983
208.921,0.16565816843104297,0.16565816843104297
208.922,0.13590077643308862,0.13590077643308862
208.923,0.07026850800723428,0.07026850800723428
208.924,0.014146221202145703,-0.014146221202145703
208.925,0.09674091514053407,-0.09674091514053407
208.926,0.15831681890316562,-0.15831681890316562
208.927,0.18564129191885237,-0.18564129191885237
208.928,0.17447198098659633,-0.17447198098659633
208.929,0.13024090878192884,-0.13024090878192884
208.93,0.06622747835244525,-0.06622747835244525
208.931,0.000253182115254047,0.000253182115254047
208.932,0.05256586763054205,0.05256586763054205
208.933,0.0790550747380454,0.0790550747380454
208.934,0.07576053294135243,0.07576053294135243
208.935,0.04687424877213853,0.04687424877213853
208.936,0.0029441869214634764,0.0029441869214634764
208.937,0.04252052994770128,-0.04252052994770128
208.938,0.07696823622614357,-0.07696823622614357
208.939,0.09210204966187396,-0.09210204966187396
208.94,0.08569049630081649,-0.08569049630081649
208.941,0.06154241350051848,-0.06154241350051848
208.942,0.027866669776138275,-0.027866669776138275
208.943,0.005326664355026045,0.005326664355026045
208.944,0.02894922620850071,0.02894922620850071
208.945,0.036951148289178226,0.036951148289178226
208.946,0.02741094680332057,0.02741094680332057
208.947,0.0025523567544900594,0.0025523567544900594
208.948,0.032062033970366555,-0.032062033970366555
208.949,0.06878418678455045,-0.06878418678455045
208.95,0.0992550961077504,-0.0992550961077504
208.951,0.11572916128810151,-0.11572916128810151
208.952,0.11232489460465189,-0.11232489460465189
208.953,0.08622305678708342,-0.08622305678708342
208.954,0.03874257754710264,-0.03874257754710264
208.955,0.023951691886453075,0.023951691886453075
208.956,0.09090493724973858,0.09090493724973858
208.957,0.14758688933350927,0.14758688933350927
208.958,0.17843579807686716,0.17843579807686716
208.959,0.17047922271738347,0.17047922271738347
208.96,0.11728371598487208,0.11728371598487208
208.961,0.022113119951904903,0.022113119951904903
208.962,0.10088531114615551,-0.10088531114615551
208.963,0.22829384731062752,-0.22829384731062752
208.964,0.33193562069218885,-0.33193562069218885
208.965,0.3854739127282123,-0.3854739127282123
208.966,0.3714882168246848,-0.3714882168246848
208.967,0.28702015825690064,-0.28702015825690064
208.968,0.14578390812486164,-0.14578390812486164
208.969,0.023958202769577275,0.023958202769577275
208.97,0.1856437120243044,0.1856437120243044
208.971,0.3033129628645381,0.3033129628645381
208.972,0.3507977603127934,0.3507977603127934
208.973,0.3185995097975587,0.3185995097975587
208.974,0.21642188151396113,0.21642188151396113
208.975,0.07053544244121812,0.07053544244121812
208.976,0.08334113019220557,-0.08334113019220557
208.977,0.20962300871312867,-0.20962300871312867
208.978,0.2821455334170082,-0.2821455334170082
208.979,0.2904973206551099,-0.2904973206551099
208.98,0.24165933901458858,-0.24165933901458858
208.981,0.1566535864706815,-0.1566535864706815
208.982,0.06341785353494189,-0.06341785353494189
208.983,0.011776137618840332,0.011776137618840332
208.984,0.05169843508818661,0.05169843508818661
208.985,0.05217095493065438,0.05217095493065438
208.986,0.02171993389365512,0.02171993389365512
208.987,0.022687869395394578,-0.022687869395394578
208.988,0.062159731173392796,-0.062159731173392796
208.989,0.08235467736731927,-0.08235467736731927
208.99,0.07779725863407716,-0.07779725863407716
208.991,0.052756951842254485,-0.052756951842254485
208.992,0.01865886588503618,-0.01865886588503618
208.993,0.010825830007070714,0.010825830007070714
208.994,0.025130230277616628,0.025130230277616628
208.995,0.020652975156155717,0.020652975156155717
208.996,0.0018189602493483559,0.0018189602493483559
208.997,0.020926225187121505,-0.020926225187121505
208.998,0.03535887707789698,-0.03535887707789698
208.999,0.03236390093810182,-0.03236390093810182
209.0,0.009691679785140295,-0.009691679785140295
209.001,0.026747391614879934,0.026747391614879934
209.002,0.06449522405720098,0.06449522405720098
209.003,0.08849806876077948,0.08849806876077948
209.004,0.0860472503615437,0.0860472503615437
209.005,0.05105901852032191,0.05105901852032191
209.006,0.013689996603652888,-0.013689996603652888
209.007,0.09704183662169441,-0.09704183662169441
209.008,0.1824230722418151,-0.1824230722418151
209.009,0.25229729132702605,-0.25229729132702605
209.01,0.2927041284864125,-0.2927041284864125
209.011,0.2965612884464315,-0.2965612884464315
209.012,0.26489424886618107,-0.26489424886618107
209.013,0.20586037933089352,-0.20586037933089352
209.014,0.13209881094111253,-0.13209881094111253
209.015,0.05735206497340539,-0.05735206497340539
209.016,0.006632977199331869,0.006632977199331869
209.017,0.052177775736472976,0.052177775736472976
209.018,0.07641556503208635,0.07641556503208635
209.019,0.08084702673831767,0.08084702673831767
209.02,0.07014072519524617,0.07014072519524617
209.021,0.05067838590793383,0.05067838590793383
209.022,0.02921899961604857,0.02921899961604857
209.023,0.011839755501844795,0.011839755501844795
209.024,0.0031297343249117038,0.0031297343249117038
209.025,0.005550179448818193,0.005550179448818193
209.026,0.018944540022717726,0.018944540022717726
209.027,0.04031850810666082,0.04031850810666082
209.028,0.06411016965344829,0.06411016965344829
209.029,0.08314131540640979,0.08314131540640979
209.03,0.09025314488765912,0.09025314488765912
209.031,0.08033733316246527,0.08033733316246527
209.032,0.05219874352134668,0.05219874352134668
209.033,0.009569201459661114,0.009569201459661114
209.034,0.03927191535285235,-0.03927191535285235
209.035,0.08342449590936096,-0.08342449590936096
209.036,0.11246126249872423,-0.11246126249872423
209.037,0.11981523080498446,-0.11981523080498446
209.038,0.10533823396966646,-0.10533823396966646
209.039,0.07603252255829762,-0.07603252255829762
209.04,0.04446247513352819,-0.04446247513352819
209.041,0.025100554480097736,-0.025100554480097736
209.042,0.02960701185319925,-0.02960701185319925
209.043,0.0625183299865214,-0.0625183299865214
209.044,0.11882969574020164,-0.11882969574020164
209.045,0.18445688251999248,-0.18445688251999248
209.046,0.2396856374676175,-0.2396856374676175
209.047,0.2647372207300641,-0.2647372207300641
209.048,0.2458256800836245,-0.2458256800836245
209.049,0.179824680001613,-0.179824680001613
209.05,0.07601129671649154,-0.07601129671649154
209.051,0.04577962461984786,0.04577962461984786
209.052,0.16014413398976202,0.16014413398976202
209.053,0.24279697048276994,0.24279697048276994
209.054,0.2769647039163352,0.2769647039163352
209.055,0.25757623136356367,0.25757623136356367
209.056,0.19204132297533616,0.19204132297533616
209.057,0.09749093483468729,0.09749093483468729
209.058,0.004537810707891832,-0.004537810707891832
209.059,0.09422009443544332,-0.09422009443544332
209.06,0.15843442657712337,-0.15843442657712337
209.061,0.19315474708468838,-0.19315474708468838
209.062,0.20270187591086275,-0.20270187591086275
209.063,0.19638765234194144,-0.19638765234194144
209.064,0.1839367661737259,-0.1839367661737259
209.065,0.17141456066785488,-0.17141456066785488
209.066,0.1591197132476816,-0.1591197132476816
209.067,0.14212828474561567,-0.14212828474561567
209.068,0.11318210285066266,-0.11318210285066266
209.069,0.0667532123262713,-0.0667532123262713
209.07,0.0026878928089241194,-0.0026878928089241194
209.071,0.07201727506142408,0.07201727506142408
209.072,0.14408844927106546,0.14408844927106546
209.073,0.1973335672798422,0.1973335672798422
209.074,0.21743480855181496,0.21743480855181496
209.075,0.1965958438732609,0.1965958438732609
209.076,0.1364807247004065,0.1364807247004065
209.077,0.048427054388169744,0.048427054388169744
209.078,0.049200304696700115,-0.049200304696700115
209.079,0.13573040835937822,-0.13573040835937822
209.08,0.1935515851582026,-0.1935515851582026
209.081,0.21252216103821875,-0.21252216103821875
209.082,0.192175834379415,-0.192175834379415
209.083,0.1411992937335843,-0.1411992937335843
209.084,0.07451182658574829,-0.07451182658574829
209.085,0.008968715713659092,-0.008968715713659092
209.086,0.04097135749692549,0.04097135749692549
209.087,0.06640424458999328,0.06640424458999328
209.088,0.06524893588407665,0.06524893588407665
209.089,0.041575729770346515,0.041575729770346515
209.09,0.0035351699331533926,0.0035351699331533926
209.091,0.039241916921345155,-0.039241916921345155
209.092,0.07791763224247084,-0.07791763224247084
209.093,0.10584540993973413,-0.10584540993973413
209.094,0.11899274927844927,-0.11899274927844927
209.095,0.11568362075016336,-0.11568362075016336
209.096,0.09614856398747229,-0.09614856398747229
209.097,0.062301907671238,-0.062301907671238
209.098,0.017890408111787992,-0.017890408111787992
209.099,0.03118376142221102,0.03118376142221102
209.1,0.0768041833189883,0.0768041833189883
209.101,0.10930249305450412,0.10930249305450412
209.102,0.11906553489918448,0.11906553489918448
209.103,0.09890589486285317,0.09890589486285317
209.104,0.046596462975641906,0.046596462975641906
209.105,0.03328257053216721,-0.03328257053216721
209.106,0.1289951367356118,-0.1289951367356118
209.107,0.22325241349516778,-0.22325241349516778
209.108,0.29664160175176013,-0.29664160175176013
209.109,0.332138641642005,-0.332138641642005
209.11,0.3195242691877991,-0.3195242691877991
209.111,0.25842639199109285,-0.25842639199109285
209.112,0.15901552318753576,-0.15901552318753576
209.113,0.04000930455308738,-0.04000930455308738
209.114,0.0755891327051117,0.0755891327051117
209.115,0.16592413532861672,0.16592413532861672
209.116,0.21543760641513465,0.21543760641513465
209.117,0.21834946605135785,0.21834946605135785
209.118,0.17955809912804765,0.17955809912804765
209.119,0.11278934151903752,0.11278934151903752
209.12,0.036597507170758714,0.036597507170758714
209.121,0.03060082071451098,-0.03060082071451098
209.122,0.07506680963019052,-0.07506680963019052
209.123,0.09066080583006197,-0.09066080583006197
209.124,0.079487774046343,-0.079487774046343
209.125,0.050299963114550095,-0.050299963114550095
209.126,0.015319756396644846,-0.015319756396644846
209.127,0.01347010749136035,0.01347010749136035
209.128,0.027479700382267103,0.027479700382267103
209.129,0.023303048874447008,0.023303048874447008
209.13,0.0028351475861227993,0.0028351475861227993
209.131,0.02806687735199309,-0.02806687735199309
209.132,0.06176158775047813,-0.06176158775047813
209.133,0.09106756701874252,-0.09106756701874252
209.134,0.11091106452495458,-0.11091106452495458
209.135,0.1190205827145423,-0.1190205827145423
209.136,0.1156897515851909,-0.1156897515851909
209.137,0.10294000060501962,-0.10294000060501962
209.138,0.08355543706201785,-0.08355543706201785
209.139,0.06040171207556,-0.06040171207556
209.14,0.036222454238723834,-0.036222454238723834
209.141,0.013830965248315175,-0.013830965248315175
209.142,0.0036019925921659812,0.0036019925921659812
209.143,0.012531494461158088,0.012531494461158088
209.144,0.009549105839844474,0.009549105839844474
209.145,0.007572046274534006,-0.007572046274534006
209.146,0.03858150937184179,-0.03858150937184179
209.147,0.07970314428946423,-0.07970314428946423
209.148,0.12337387476638728,-0.12337387476638728
209.149,0.15913975266384472,-0.15913975266384472
209.15,0.1757356447321322,-0.1757356447321322
209.151,0.16395996869536134,-0.16395996869536134
209.152,0.11960845523350105,-0.11960845523350105
209.153,0.04557912733691949,-0.04557912733691949
209.154,0.04762144375474486,0.04762144375474486
209.155,0.1433617637036062,0.1433617637036062
209.156,0.22220477895251722,0.22220477895251722
209.157,0.26635244093613397,0.26635244093613397
209.158,0.26410835414878586,0.26410835414878586
209.159,0.21314816355734822,0.21314816355734822
209.16,0.12162975032993129,0.12162975032993129
209.161,0.006713717075296444,0.006713717075296444
209.162,0.1092426042330018,-0.1092426042330018
209.163,0.20390225010123697,-0.20390225010123697
209.164,0.2602414828684755,-0.2602414828684755
209.165,0.2705255274794103,-0.2705255274794103
209.166,0.23790694631590192,-0.23790694631590192
209.167,0.17522297109672647,-0.17522297109672647
209.168,0.10133118729492907,-0.10133118729492907
209.169,0.03599503548216043,-0.03599503548216043
209.17,0.005281722816203649,0.005281722816203649
209.171,0.015080353546396363,0.015080353546396363
209.172,0.004440078632704458,-0.004440078632704458
209.173,0.04270458379571873,-0.04270458379571873
209.174,0.08411691792682496,-0.08411691792682496
209.175,0.11266393419002352,-0.11266393419002352
209.176,0.11641701884530309,-0.11641701884530309
209.177,0.0907122187403504,-0.0907122187403504
209.178,0.0392239235527595,-0.0392239235527595
209.179,0.027224444480477228,0.027224444480477228
209.18,0.0936402056485881,0.0936402056485881
209.181,0.144713043351395,0.144713043351395
209.182,0.16847236527493803,0.16847236527493803
209.183,0.1588510276787427,0.1588510276787427
209.184,0.11665449832168817,0.11665449832168817
209.185,0.04891820842871142,0.04891820842871142
209.186,0.03295242049796787,-0.03295242049796787
209.187,0.11563938498493898,-0.11563938498493898
209.188,0.18634480930448605,-0.18634480930448605
209.189,0.23475237767375712,-0.23475237767375712
209.19,0.25432251031810427,-0.25432251031810427
209.191,0.24294104885203416,-0.24294104885203416
209.192,0.20304164978796935,-0.20304164978796935
209.193,0.14129580327525404,-0.14129580327525404
209.194,0.0678650638839321,-0.0678650638839321
209.195,0.004870387670202092,0.004870387670202092
209.196,0.06416948167750536,0.06416948167750536
209.197,0.09927609325175912,0.09927609325175912
209.198,0.10389703197850331,0.10389703197850331
209.199,0.0782083243320324,0.0782083243320324
209.2,0.029680956313402396,0.029680956313402396
209.201,0.02784217639295261,-0.02784217639295261
209.202,0.07698028693447079,-0.07698028693447079
209.203,0.10113796498129868,-0.10113796498129868
209.204,0.0893138197629082,-0.0893138197629082
209.205,0.040026426878340016,-0.040026426878340016
209.206,0.03698168591725137,0.03698168591725137
209.207,0.1221185542071821,0.1221185542071821
209.208,0.19040856880198787,0.19040856880198787
209.209,0.21809175989625773,0.21809175989625773
209.21,0.18961139768228996,0.18961139768228996
209.211,0.10292572662526123,0.10292572662526123
209.212,0.0286128768560171,-0.0286128768560171
209.213,0.17867089111055545,-0.17867089111055545
209.214,0.3142492562262773,-0.3142492562262773
209.215,0.404286554832303,-0.404286554832303
209.216,0.42813042719496575,-0.42813042719496575
209.217,0.3813626716994165,-0.3813626716994165
209.218,0.2771516077156604,-0.2771516077156604
209.219,0.14259922942175218,-0.14259922942175218
209.22,0.011065686021456411,-0.011065686021456411
209.221,0.08728571871735702,0.08728571871735702
209.222,0.1338866666790035,0.1338866666790035
209.223,0.12655496140192346,0.12655496140192346
209.224,0.07922690355511808,0.07922690355511808
209.225,0.016756028803845302,0.016756028803845302
209.226,0.03353982109911113,-0.03353982109911113
209.227,0.050867831264144625,-0.050867831264144625
209.228,0.027603461299332888,-0.027603461299332888
209.229,0.028531183974149776,0.028531183974149776
209.23,0.09741765882848274,0.09741765882848274
209.231,0.1536077377445464,0.1536077377445464
209.232,0.1751447054740254,0.1751447054740254
209.233,0.15120168787694355,0.15120168787694355
209.234,0.0859903300713254,0.0859903300713254
209.235,0.0023732153009889956,-0.0023732153009889956
209.236,0.08768631313061348,-0.08768631313061348
209.237,0.1442456562473171,-0.1442456562473171
209.238,0.1553582016502163,-0.1553582016502163
209.239,0.11894861486088926,-0.11894861486088926
209.24,0.048386933429529266,-0.048386933429529266
209.241,0.03176325407328617,0.03176325407328617
209.242,0.09369698465918508,0.09369698465918508
209.243,0.11541669928852616,0.11541669928852616
209.244,0.08790915817686917,0.08790915817686917
209.245,0.01809732275640985,0.01809732275640985
209.246,0.07339564988762737,-0.07339564988762737
209.247,0.15892893686883758,-0.15892893686883758
209.248,0.2127769224210655,-0.2127769224210655
209.249,0.21938908480664632,-0.21938908480664632
209.25,0.1782894676791279,-0.1782894676791279
209.251,0.10404358058898922,-0.10404358058898922
209.252,0.021342694519402405,-0.021342694519402405
209.253,0.04315142766341218,0.04315142766341218
209.254,0.06951544793937248,0.06951544793937248
209.255,0.050983717667359985,0.050983717667359985
209.256,0.003995470127903689,-0.003995470127903689
209.257,0.07470400344889627,-0.07470400344889627
209.258,0.13510818470920505,-0.13510818470920505
209.259,0.16254307867372597,-0.16254307867372597
209.26,0.14530674547058997,-0.14530674547058997
209.261,0.0867160290281701,-0.0867160290281701
209.262,0.004325957314107787,-0.004325957314107787
209.263,0.07543657061446285,0.07543657061446285
209.264,0.12552626992756144,0.12552626992756144
209.265,0.12682979236211445,0.12682979236211445
209.266,0.07435500088331959,0.07435500088331959
209.267,0.02084009165565115,-0.02084009165565115
209.268,0.1345494809927238,-0.1345494809927238
209.269,0.23624968387812573,-0.23624968387812573
209.27,0.2977923049794522,-0.2977923049794522
209.271,0.301381595869203,-0.301381595869203
209.272,0.24453224130428386,-0.24453224130428386
209.273,0.14064598026314623,-0.14064598026314623
209.274,0.015152277125561553,-0.015152277125561553
209.275,0.10157206956474352,0.10157206956474352
209.276,0.18242417767309305,0.18242417767309305
209.277,0.2106238147170416,0.2106238147170416
209.278,0.18370581790399854,0.18370581790399854
209.279,0.11350345486164626,0.11350345486164626
209.28,0.02231051665398054,0.02231051665398054
209.281,0.06356882193463376,-0.06356882193463376
209.282,0.12104118482377157,-0.12104118482377157
209.283,0.1362731922272168,-0.1362731922272168
209.284,0.10804057075421647,-0.10804057075421647
209.285,0.04763188030156795,-0.04763188030156795
209.286,0.024518067384076137,0.024518067384076137
209.287,0.0844750607035254,0.0844750607035254
209.288,0.1112257097254381,0.1112257097254381
209.289,0.09224638920540285,0.09224638920540285
209.29,0.026874113044197845,0.026874113044197845
209.291,0.07328825326596733,-0.07328825326596733
209.292,0.18697242767755207,-0.18697242767755207
209.293,0.28818674894433993,-0.28818674894433993
209.294,0.35230900185615266,-0.35230900185615266
209.295,0.36189648556065857,-0.36189648556065857
209.296,0.31086410637064077,-0.31086410637064077
209.297,0.2060672200231074,-0.2060672200231074
209.298,0.06592625557437182,-0.06592625557437182
209.299,0.0835874664754368,0.0835874664754368
209.3,0.2146729323027159,0.2146729323027159
209.301,0.3037945073014068,0.3037945073014068
209.302,0.3367257840255333,0.3367257840255333
209.303,0.3113646396463745,0.3113646396463745
209.304,0.23767843186872706,0.23767843186872706
209.305,0.13483904995167428,0.13483904995167428
209.306,0.026300405337166488,0.026300405337166488
209.307,0.06592174404691364,-0.06592174404691364
209.308,0.12632160439454654,-0.12632160439454654
209.309,0.14906996046417686,-0.14906996046417686
209.31,0.13853713100702625,-0.13853713100702625
209.311,0.10714384289978451,-0.10714384289978451
209.312,0.07122059236880474,-0.07122059236880474
209.313,0.04606979601849104,-0.04606979601849104
209.314,0.04160359937546665,-0.04160359937546665
209.315,0.05972880077186982,-0.05972880077186982
209.316,0.09413224872726911,-0.09413224872726911
209.317,0.13243744444794225,-0.13243744444794225
209.318,0.160051336983434,-0.160051336983434
209.319,0.16458022131421912,-0.16458022131421912
209.32,0.13957927177560026,-0.13957927177560026
209.321,0.0866283617129402,-0.0866283617129402
209.322,0.015216805169594227,-0.015216805169594227
209.323,0.05947770154439236,0.05947770154439236
209.324,0.12028568437941378,0.12028568437941378
209.325,0.1522416156197708,0.1522416156197708
209.326,0.14622946359030498,0.14622946359030498
209.327,0.10122288002521285,0.10122288002521285
209.328,0.02464985618893123,0.02464985618893123
209.329,0.06912809100940431,-0.06912809100940431
209.33,0.16181477150544654,-0.16181477150544654
209.331,0.2349629360918819,-0.2349629360918819
209.332,0.2737371013015891,-0.2737371013015891
209.333,0.2699068010004195,-0.2699068010004195
209.334,0.22350962555230003,-0.22350962555230003
209.335,0.142891013696137,-0.142891013696137
209.336,0.04312453529533333,-0.04312453529533333
209.337,0.05689870896167126,0.05689870896167126
209.338,0.13818272768316642,0.13818272768316642
209.339,0.1854467572561651,0.1854467572561651
209.34,0.19029734472506799,0.19029734472506799
209.341,0.15306799598416587,0.15306799598416587
209.342,0.08285853443277413,0.08285853443277413
209.343,0.00434665944992596,-0.00434665944992596
209.344,0.08917829771948138,-0.08917829771948138
209.345,0.15328572351930703,-0.15328572351930703
209.346,0.18364273153233424,-0.18364273153233424
209.347,0.1756884374205937,-0.1756884374205937
209.348,0.13444503092547144,-0.13444503092547144
209.349,0.07321775147631626,-0.07321775147631626
209.35,0.01010026939286035,-0.01010026939286035
209.351,0.036879822388635075,0.036879822388635075
209.352,0.054714014396524124,0.054714014396524124
209.353,0.039103013633754236,0.039103013633754236
209.354,0.00419432886693738,-0.00419432886693738
209.355,0.06082088780258188,-0.06082088780258188
209.356,0.11177820808005778,-0.11177820808005778
209.357,0.13884185626851742,-0.13884185626851742
209.358,0.12993983981317025,-0.12993983981317025
209.359,0.0829593295310832,-0.0829593295310832
209.36,0.0068518520009525075,-0.0068518520009525075
209.361,0.08034951414575797,0.08034951414575797
209.362,0.15611626989462324,0.15611626989462324
209.363,0.19938382360198093,0.19938382360198093
209.364,0.19625360236677492,0.19625360236677492
209.365,0.14387080261290652,0.14387080261290652
209.366,0.05141836362944607,0.05141836362944607
209.367,0.062030384163764385,-0.062030384163764385
209.368,0.1721968168645347,-0.1721968168645347
209.369,0.255543280067557,-0.255543280067557
209.37,0.2949045426895046,-0.2949045426895046
209.371,0.2833728542766929,-0.2833728542766929
209.372,0.2255317424171056,-0.2255317424171056
209.373,0.13587421640109143,-0.13587421640109143
209.374,0.03497570858940113,-0.03497570858940113
209.375,0.055481603234682764,0.055481603234682764
209.376,0.11754517272857434,0.11754517272857434
209.377,0.14056467301894982,0.14056467301894982
209.378,0.12281117174038592,0.12281117174038592
209.379,0.07100860406817522,0.07100860406817522
209.38,0.0018469722108940267,-0.0018469722108940267
209.381,0.07967018765170786,-0.07967018765170786
209.382,0.14666054004993356,-0.14666054004993356
209.383,0.190171972793313,-0.190171972793313
209.384,0.20263390245013702,-0.20263390245013702
209.385,0.1823672928518285,-0.1823672928518285
209.386,0.13337476848843444,-0.13337476848843444
209.387,0.0643201939554946,-0.0643201939554946
209.388,0.01304775131543523,0.01304775131543523
209.389,0.0857936107641395,0.0857936107641395
209.39,0.14180978029614777,0.14180978029614777
209.391,0.17174541508907049,0.17174541508907049
209.392,0.17061827445534616,0.17061827445534616
209.393,0.13884429516180408,0.13884429516180408
209.394,0.08242555785454608,0.08242555785454608
209.395,0.012122078664922986,0.012122078664922986
209.396,0.0583919216589418,-0.0583919216589418
209.397,0.11514868255921695,-0.11514868255921695
209.398,0.14680822309476094,-0.14680822309476094
209.399,0.1472456762215819,-0.1472456762215819
209.4,0.11715858105186427,-0.11715858105186427
209.401,0.06421354255876466,-0.06421354255876466
209.402,0.0015711227088760493,-0.0015711227088760493
209.403,0.05497263604547031,0.05497263604547031
209.404,0.09061596769436986,0.09061596769436986
209.405,0.09509996180959956,0.09509996180959956
209.406,0.06529295648134026,0.06529295648134026
209.407,0.0061282755133895694,0.0061282755133895694
209.408,0.07039796974603652,-0.07039796974603652
209.409,0.14798060016723813,-0.14798060016723813
209.41,0.20987233731365895,-0.20987233731365895
209.411,0.2429266491126607,-0.2429266491126607
209.412,0.24081213712732208,-0.24081213712732208
209.413,0.20558124356740426,-0.20558124356740426
209.414,0.14717378835818928,-0.14717378835818928
209.415,0.08094643250923383,-0.08094643250923383
209.416,0.02381538435432795,-0.02381538435432795
209.417,0.010043175303250385,0.010043175303250385
209.418,0.012863503567504209,0.012863503567504209
209.419,0.014601735312839259,-0.014601735312839259
209.42,0.06309608221410745,-0.06309608221410745
209.421,0.11703709273338059,-0.11703709273338059
209.422,0.1583582524027941,-0.1583582524027941
209.423,0.17108971520657412,-0.17108971520657412
209.424,0.14554849673644366,-0.14554849673644366
209.425,0.08108279341554492,-0.08108279341554492
209.426,0.013344800351660524,0.013344800351660524
209.427,0.12092364806770739,0.12092364806770739
209.428,0.2207150820863124,0.2207150820863124
209.429,0.292435584303411,0.292435584303411
209.43,0.32113633971811373,0.32113633971811373
209.431,0.30062948146597623,0.30062948146597623
209.432,0.23482212342957265,0.23482212342957265
209.433,0.13664656210325465,0.13664656210325465
209.434,0.02488281700667927,0.02488281700667927
209.435,0.08030144364215852,-0.08030144364215852
209.436,0.16195826735872765,-0.16195826735872765
209.437,0.2099682351106099,-0.2099682351106099
209.438,0.22279368298821467,-0.22279368298821467
209.439,0.2070250510758732,-0.2070250510758732
209.44,0.1749509565838797,-0.1749509565838797
209.441,0.14088139734441307,-0.14088139734441307
209.442,0.11723726169212545,-0.11723726169212545
209.443,0.1114203251433441,-0.1114203251433441
209.444,0.12421018473071943,-0.12421018473071943
209.445,0.1499867929862132,-0.1499867929862132
209.446,0.17858362772883363,-0.17858362772883363
209.447,0.19817529076198093,-0.19817529076198093
209.448,0.19839596422777817,-0.19839596422777817
209.449,0.17290921358973543,-0.17290921358973543
209.45,0.12087287613023123,-0.12087287613023123
209.451,0.04707939832208918,-0.04707939832208918
209.452,0.0391058012344454,0.0391058012344454
209.453,0.12563169246643469,0.12563169246643469
209.454,0.1999862416706626,0.1999862416706626
209.455,0.2512997925836633,0.2512997925836633
209.456,0.2719976114710869,0.2719976114710869
209.457,0.2588345136786465,0.2588345136786465
209.458,0.21328087883558844,0.21328087883558844
209.459,0.1413068260166479,0.1413068260166479
209.46,0.05263232124516182,0.05263232124516182
209.461,0.040494025930739586,-0.040494025930739586
209.462,0.12491605911051418,-0.12491605911051418
209.463,0.1884701425487626,-0.1884701425487626
209.464,0.22195370638954004,-0.22195370638954004
209.465,0.22085331701101907,-0.22085331701101907
209.466,0.18646580611414287,-0.18646580611414287
209.467,0.12607659068769494,-0.12607659068769494
209.468,0.05200024118894453,-0.05200024118894453
209.469,0.020477140376815584,0.020477140376815584
209.47,0.07594134392985841,0.07594134392985841
209.471,0.10193391954650277,0.10193391954650277
209.472,0.09161360851842759,0.09161360851842759
209.473,0.045377038582440354,0.045377038582440354
209.474,0.0289726704823704,-0.0289726704823704
209.475,0.1175997685806508,-0.1175997685806508
209.476,0.20329041458349484,-0.20329041458349484
209.477,0.26883471904409806,-0.26883471904409806
209.478,0.30042584097010716,-0.30042584097010716
209.479,0.2903764828305079,-0.2903764828305079
209.48,0.2386194855638234,-0.2386194855638234
209.481,0.15273005760759417,-0.15273005760759417
209.482,0.04651161434305995,-0.04651161434305995
209.483,0.06254322731608197,0.06254322731608197
209.484,0.15641883727887906,0.15641883727887906
209.485,0.2197906411464441,0.2197906411464441
209.486,0.2427270214954338,0.2427270214954338
209.487,0.22242082324279067,0.22242082324279067
209.488,0.16365428265601323,0.16365428265601323
209.489,0.07790330127645784,0.07790330127645784
209.49,0.01878956415957711,-0.01878956415957711
209.491,0.10882213592008605,-0.10882213592008605
209.492,0.17638076825383442,-0.17638076825383442
209.493,0.21047957373971804,-0.21047957373971804
209.494,0.20704876926813387,-0.20704876926813387
209.495,0.16958413570177833,-0.16958413570177833
209.496,0.10816208100553648,-0.10816208100553648
209.497,0.037004194687714875,-0.037004194687714875
209.498,0.02885003528575658,0.02885003528575658
209.499,0.07694312348694621,0.07694312348694621
209.5,0.09999991038114397,0.09999991038114397
209.501,0.0970518525666908,0.0970518525666908
209.502,0.07281870123602485,0.07281870123602485
209.503,0.035594965768759756,0.035594965768759756
209.504,0.005650942997156849,-0.005650942997156849
209.505,0.04400586122941419,-0.04400586122941419
209.506,0.07626763424574612,-0.07626763424574612
209.507,0.10299283183718333,-0.10299283183718333
209.508,0.12697133766345503,-0.12697133766345503
209.509,0.15074727701814727,-0.15074727701814727
209.51,0.17419692715492807,-0.17419692715492807
209.511,0.19321609566918496,-0.19321609566918496
209.512,0.200219231032438,-0.200219231032438
209.513,0.1865061014164049,-0.1865061014164049
209.514,0.14582099527121184,-0.14582099527121184
209.515,0.07787508249466235,-0.07787508249466235
209.516,0.0095549639792476,0.0095549639792476
209.517,0.10100320603176227,0.10100320603176227
209.518,0.17645979598310824,0.17645979598310824
209.519,0.21663100628976562,0.21663100628976562
209.52,0.20883645040664667,0.20883645040664667
209.521,0.151669095775818,0.151669095775818
209.522,0.0567493030572539,0.0567493030572539
209.523,0.05330619474711784,-0.05330619474711784
209.524,0.1504266130308608,-0.1504266130308608
209.525,0.20871165593480967,-0.20871165593480967
209.526,0.21193706756346342,-0.21193706756346342
209.527,0.15863160740949278,-0.15863160740949278
209.528,0.06304566236550935,-0.06304566236550935
209.529,0.04846769189615596,0.04846769189615596
209.53,0.1447311967198297,0.1447311967198297
209.531,0.19858728350164578,0.19858728350164578
209.532,0.19467262935035623,0.19467262935035623
209.533,0.13376606188680729,0.13376606188680729
209.534,0.03237790758389303,0.03237790758389303
209.535,0.08229257194475714,-0.08229257194475714
209.536,0.18047452968033995,-0.18047452968033995
209.537,0.23851600017594055,-0.23851600017594055
209.538,0.2454911227321599,-0.2454911227321599
209.539,0.20575180296318718,-0.20575180296318718
209.54,0.1367510899138077,-0.1367510899138077
209.541,0.06295870023774208,-0.06295870023774208
209.542,0.007894309552884837,-0.007894309552884837
209.543,0.013161030429133636,0.013161030429133636
209.544,0.0024904790947354316,-0.0024904790947354316
209.545,0.044818676020560666,-0.044818676020560666
209.546,0.09499592982534388,-0.09499592982534388
209.547,0.13198350678704074,-0.13198350678704074
209.548,0.13956201220688402,-0.13956201220688402
209.549,0.11154283011371013,-0.11154283011371013
209.55,0.05357578609179514,-0.05357578609179514
209.551,0.018873902630776485,0.018873902630776485
209.552,0.08556596229832869,0.08556596229832869
209.553,0.1278128438258328,0.1278128438258328
209.554,0.1340532267293677,0.1340532267293677
209.555,0.1029894381805021,0.1029894381805021
209.556,0.04348105980948591,0.04348105980948591
209.557,0.028542381286438157,-0.028542381286438157
209.558,0.09498142976198343,-0.09498142976198343
209.559,0.1406529495912262,-0.1406529495912262
209.56,0.15703683810460622,-0.15703683810460622
209.561,0.1437335145949683,-0.1437335145949683
209.562,0.10749812661334435,-0.10749812661334435
209.563,0.059477875539284075,-0.059477875539284075
209.564,0.011737497733543378,-0.011737497733543378
209.565,0.02580191230802531,0.02580191230802531
209.566,0.04722150786015389,0.04722150786015389
209.567,0.051012859825186885,0.051012859825186885
209.568,0.039310680105001605,0.039310680105001605
209.569,0.016540911626365062,0.016540911626365062
209.57,0.011901411695575126,-0.011901411695575126
209.571,0.040557889271067515,-0.040557889271067515
209.572,0.06434987478901233,-0.06434987478901233
209.573,0.07879489506050219,-0.07879489506050219
209.574,0.08032694954837372,-0.08032694954837372
209.575,0.06692473413400113,-0.06692473413400113
209.576,0.03897652911164051,-0.03897652911164051
209.577,3.065106815669516e-05,-3.065106815669516e-05
209.578,0.04305296450804286,0.04305296450804286
209.579,0.08093156744199792,0.08093156744199792
209.58,0.1036455238371794,0.1036455238371794
209.581,0.10314930337853245,0.10314930337853245
209.582,0.07577906677081825,0.07577906677081825
209.583,0.02380792607365345,0.02380792607365345
209.584,0.0445638717040695,-0.0445638717040695
209.585,0.1169651971157244,-0.1169651971157244
209.586,0.17994696013125977,-0.17994696013125977
209.587,0.22250622109340856,-0.22250622109340856
209.588,0.2389296200837303,-0.2389296200837303
209.589,0.2300232214871819,-0.2300232214871819
209.59,0.20231614415465482,-0.20231614415465482
209.591,0.16551272953593743,-0.16551272953593743
209.592,0.12907833051142403,-0.12907833051142403
209.593,0.09915206269932375,-0.09915206269932375
209.594,0.07686514942859224,-0.07686514942859224
209.595,0.05863750060043971,-0.05863750060043971
209.596,0.03830475448480153,-0.03830475448480153
209.597,0.01025323613778406,-0.01025323613778406
209.598,0.02764016817341708,0.02764016817341708
209.599,0.07240747183804541,0.07240747183804541
209.6,0.11638927109714281,0.11638927109714281
209.601,0.14955903589769792,0.14955903589769792
209.602,0.16297424369804392,0.16297424369804392
209.603,0.15211487842678406,0.15211487842678406
209.604,0.11887499142263591,0.11887499142263591
209.605,0.07142935654476723,0.07142935654476723
209.606,0.021943623530577883,0.021943623530577883
209.607,0.01713584888409503,-0.01713584888409503
209.608,0.03696521150835885,-0.03696521150835885
209.609,0.03504318548434415,-0.03504318548434415
209.61,0.01588947371634697,-0.01588947371634697
209.611,0.010538016623093949,0.010538016623093949
209.612,0.03210800696119609,0.03210800696119609
209.613,0.03832602112746453,0.03832602112746453
209.614,0.02341309765119237,0.02341309765119237
209.615,0.012306288472654137,-0.012306288472654137
209.616,0.06302087561619873,-0.06302087561619873
209.617,0.11964264441735728,-0.11964264441735728
209.618,0.17266745871382239,-0.17266745871382239
209.619,0.21459871679859988,-0.21459871679859988
209.62,0.24112917897434571,-0.24112917897434571
209.621,0.25086044948381714,-0.25086044948381714
209.622,0.24398234220754655,-0.24398234220754655
209.623,0.22077083758220162,-0.22077083758220162
209.624,0.18081184775697978,-0.18081184775697978
209.625,0.12349331879805692,-0.12349331879805692
209.626,0.04967483170827025,-0.04967483170827025
209.627,0.03619716650086091,0.03619716650086091
209.628,0.12463224220421543,0.12463224220421543
209.629,0.20132113657680106,0.20132113657680106
209.63,0.24952617001891686,0.24952617001891686
209.631,0.25429252462880414,0.25429252462880414
209.632,0.20732599170908306,0.20732599170908306
209.633,0.11091127021926761,0.11091127021926761
209.634,0.0206712461636821,-0.0206712461636821
209.635,0.16310960481004266,-0.16310960481004266
209.636,0.28723388774565284,-0.28723388774565284
209.637,0.3661352319863753,-0.3661352319863753
209.638,0.3822161300300799,-0.3822161300300799
209.639,0.33203458872387714,-0.33203458872387714
209.64,0.22738614473400665,-0.22738614473400665
209.641,0.09218880637328153,-0.09218880637328153
209.642,0.04396185643138861,0.04396185643138861
209.643,0.15364936685464525,0.15364936685464525
209.644,0.2185441092437208,0.2185441092437208
209.645,0.23332343213268802,0.23332343213268802
209.646,0.20554898450713877,0.20554898450713877
209.647,0.15176285523005406,0.15176285523005406
209.648,0.09127047778801045,0.09127047778801045
209.649,0.03976938687369569,0.03976938687369569
209.65,0.004932203865782636,0.004932203865782636
209.651,0.014710305721446715,-0.014710305721446715
209.652,0.027439539530198176,-0.027439539530198176
209.653,0.04363923600925035,-0.04363923600925035
209.654,0.07057664858137902,-0.07057664858137902
209.655,0.10866806384680938,-0.10866806384680938
209.656,0.1506307432760038,-0.1506307432760038
209.657,0.1838389064262541,-0.1838389064262541
209.658,0.1950153962157235,-0.1950153962157235
209.659,0.17552652870354257,-0.17552652870354257
209.66,0.12531071613666833,-0.12531071613666833
209.661,0.05394248170985416,-0.05394248170985416
209.662,0.021657954254023393,0.021657954254023393
209.663,0.08217243770450677,0.08217243770450677
209.664,0.1118473722697233,0.1118473722697233
209.665,0.10345604218922477,0.10345604218922477
209.666,0.060575170430298586,0.060575170430298586
209.667,0.003597275608666073,-0.003597275608666073
209.668,0.07048087387802282,-0.07048087387802282
209.669,0.1219771246379805,-0.1219771246379805
209.67,0.1459990666057155,-0.1459990666057155
209.671,0.13985146601109755,-0.13985146601109755
209.672,0.11040724687445247,-0.11040724687445247
209.673,0.07112952101756032,-0.07112952101756032
209.674,0.03705118495012805,-0.03705118495012805
209.675,0.019483085887694207,-0.019483085887694207
209.676,0.022261254536375397,-0.022261254536375397
209.677,0.040765253265673485,-0.040765253265673485
209.678,0.06395660205606613,-0.06395660205606613
209.679,0.07864481211053476,-0.07864481211053476
209.68,0.07444566264228958,-0.07444566264228958
209.681,0.04769694766112864,-0.04769694766112864
209.682,0.002993587516473939,-0.002993587516473939
209.683,0.04815499560698955,0.04815499560698955
209.684,0.09105478398513367,0.09105478398513367
209.685,0.11265754641474302,0.11265754641474302
209.686,0.10586166302504241,0.10586166302504241
209.687,0.07186373130723434,0.07186373130723434
209.688,0.019816763928889758,0.019816763928889758
209.689,0.03604871768163287,-0.03604871768163287
209.69,0.0808638682197822,-0.0808638682197822
209.691,0.10366920782101496,-0.10366920782101496
209.692,0.10062993102692064,-0.10062993102692064
209.693,0.07594983453631854,-0.07594983453631854
209.694,0.04027483268887977,-0.04027483268887977
209.695,0.0071688351822607466,-0.0071688351822607466
209.696,0.011183299962187698,0.011183299962187698
209.697,0.007705621835903065,0.007705621835903065
209.698,0.017510827246935867,-0.017510827246935867
209.699,0.05736880117096732,-0.05736880117096732
209.7,0.10000318840299904,-0.10000318840299904
209.701,0.13235220781032286,-0.13235220781032286
209.702,0.14397104282703954,-0.14397104282703954
209.703,0.12999030917101584,-0.12999030917101584
209.704,0.09242739336380013,-0.09242739336380013
209.705,0.03956385617515712,-0.03956385617515712
209.706,0.01635136075284671,0.01635136075284671
209.707,0.06237795274742286,0.06237795274742286
209.708,0.08822632225418192,0.08822632225418192
209.709,0.08878804370654003,0.08878804370654003
209.71,0.06523415992007853,0.06523415992007853
209.711,0.024456535096021526,0.024456535096021526
209.712,0.022944476022654037,-0.022944476022654037
209.713,0.06556525977627159,-0.06556525977627159
209.714,0.09422739225576937,-0.09422739225576937
209.715,0.10434061730267896,-0.10434061730267896
209.716,0.09698287686362572,-0.09698287686362572
209.717,0.07840270689860862,-0.07840270689860862
209.718,0.058052801459707926,-0.058052801459707926
209.719,0.04565587593833176,-0.04565587593833176
209.72,0.04808854363151116,-0.04808854363151116
209.721,0.06696511934264016,-0.06696511934264016
209.722,0.09766841683800365,-0.09766841683800365
209.723,0.1302216208046928,-0.1302216208046928
209.724,0.15189874566749717,-0.15189874566749717
209.725,0.15095628719125775,-0.15095628719125775
209.726,0.12048245159419724,-0.12048245159419724
209.727,0.061230331088033885,-0.061230331088033885
209.728,0.017506561645490137,0.017506561645490137
209.729,0.09942850361999467,0.09942850361999467
209.73,0.1649572076600878,0.1649572076600878
209.731,0.19627880565515787,0.19627880565515787
209.732,0.18236954061058164,0.18236954061058164
209.733,0.12257765549740673,0.12257765549740673
209.734,0.027655154822444628,0.027655154822444628
209.735,0.08220355070628294,-0.08220355070628294
209.736,0.18193346757876072,-0.18193346757876072
209.737,0.2476503159581811,-0.2476503159581811
209.738,0.2626045947564535,-0.2626045947564535
209.739,0.22145814039799072,-0.22145814039799072
209.74,0.1317488828439577,-0.1317488828439577
209.741,0.01217567915911233,-0.01217567915911233
209.742,0.11180513102982736,0.11180513102982736
209.743,0.2138790615277011,0.2138790615277011
209.744,0.27273362701409876,0.27273362701409876
209.745,0.2764436279880558,0.2764436279880558
209.746,0.22443362109458787,0.22443362109458787
209.747,0.12677678174191076,0.12677678174191076
209.748,0.0012916290012261467,0.0012916290012261467
209.749,0.13060908753088674,-0.13060908753088674
209.75,0.24819974927803523,-0.24819974927803523
209.751,0.3349055618651541,-0.3349055618651541
