Czas,AbsSum,Sum
85.962,0.02105509522730553,-0.02105509522730553
85.96300000000001,0.04667284562444496,0.04667284562444496
85.96400000000001,0.09125112268113678,0.09125112268113678
85.965,0.10447365665638886,0.10447365665638886
85.96600000000001,0.08782922603508592,0.08782922603508592
85.96700000000001,0.05113297655321314,0.05113297655321314
85.968,0.008806608582587527,0.008806608582587527
85.96900000000001,0.024893824012004462,-0.024893824012004462
85.97000000000001,0.040164252472059125,-0.040164252472059125
85.971,0.034172965143173695,-0.034172965143173695
85.97200000000001,0.011181391585223022,-0.011181391585223022
85.97300000000001,0.019563008960044703,0.019563008960044703
85.974,0.047295218380028814,0.047295218380028814
85.97500000000001,0.06333017251321804,0.06333017251321804
85.97600000000001,0.06361840994862256,0.06361840994862256
85.977,0.04952882005337389,0.04952882005337389
85.97800000000001,0.026774269481464552,0.026774269481464552
85.97900000000001,0.0030196348087994096,0.0030196348087994096
85.98,0.014895202159585397,-0.014895202159585397
85.98100000000001,0.02313869130295343,-0.02313869130295343
85.98200000000001,0.02178971803710339,-0.02178971803710339
85.983,0.0142747313609769,-0.0142747313609769
85.98400000000001,0.005682901705567178,-0.005682901705567178
85.98500000000001,0.0006668487967169678,-0.0006668487967169678
85.986,0.0017226381539425795,-0.0017226381539425795
85.98700000000001,0.008440002098745514,-0.008440002098745514
85.988,0.017914629032103835,-0.017914629032103835
85.989,0.026075500499768034,-0.026075500499768034
85.99000000000001,0.029362627039896227,-0.029362627039896227
85.991,0.026101392191079986,-0.026101392191079986
85.992,0.017076863804892928,-0.017076863804892928
85.99300000000001,0.0051417401124082,-0.0051417401124082
85.994,0.005937333877830353,0.005937333877830353
85.995,0.012918404461683686,0.012918404461683686
85.99600000000001,0.014253667617788235,0.014253667617788235
85.997,0.010570327556991277,0.010570327556991277
85.998,0.004327585376489473,0.004327585376489473
85.99900000000001,0.0011677095729988318,-0.0011677095729988318
86.0,0.002975444522856807,-0.002975444522856807
86.001,0.0005016786185028099,0.0005016786185028099
86.00200000000001,0.009121273955539522,0.009121273955539522
86.003,0.02127195512371549,0.02127195512371549
86.004,0.034628144017489815,0.034628144017489815
86.00500000000001,0.04702420466388246,0.04702420466388246
86.006,0.057062240818580356,0.057062240818580356
86.007,0.06421125145965623,0.06421125145965623
86.00800000000001,0.06839978129860591,0.06839978129860591
86.009,0.06934567568933225,0.06934567568933225
86.01,0.06600201800054717,0.06600201800054717
86.01100000000001,0.056467354276674486,0.056467354276674486
86.012,0.038517984986075504,0.038517984986075504
86.013,0.010643500597020239,0.010643500597020239
86.01400000000001,0.026784762902529513,-0.026784762902529513
86.015,0.07070274704994517,-0.07070274704994517
86.016,0.11532039274033434,-0.11532039274033434
86.01700000000001,0.15303955702925964,-0.15303955702925964
86.018,0.17615717334466352,-0.17615717334466352
86.019,0.17887987530438287,-0.17887987530438287
86.02000000000001,0.15901885016166062,-0.15901885016166062
86.021,0.11879430339435726,-0.11879430339435726
86.022,0.06444668093923034,-0.06444668093923034
86.02300000000001,0.004738412618053078,-0.004738412618053078
86.024,0.05119994835406283,0.05119994835406283
86.025,0.09600534964422391,0.09600534964422391
86.02600000000001,0.1255384069217378,0.1255384069217378
86.027,0.13924354713595122,0.13924354713595122
86.028,0.13938785327425185,0.13938785327425185
86.02900000000001,0.1295504793582849,0.1295504793582849
86.03,0.11299193966743348,0.11299193966743348
86.031,0.09155355410748411,0.09155355410748411
86.03200000000001,0.06551079427086548,0.06551079427086548
86.033,0.03441107651647357,0.03441107651647357
86.034,0.0014879975515444954,-0.0014879975515444954
86.03500000000001,0.03984196615009461,-0.03984196615009461
86.036,0.07559541372434742,-0.07559541372434742
86.037,0.10155745798719051,-0.10155745798719051
86.03800000000001,0.11018335621887698,-0.11018335621887698
86.039,0.09608496667132516,-0.09608496667132516
86.04,0.058442745518920924,-0.058442745518920924
86.04100000000001,0.00241378758962163,-0.00241378758962163
86.042,0.06112783650854792,0.06112783650854792
86.043,0.1176834804178093,0.1176834804178093
86.04400000000001,0.15262079291784114,0.15262079291784114
86.045,0.15512796947212837,0.15512796947212837
86.046,0.12146864166683313,0.12146864166683313
86.04700000000001,0.05651004816492278,0.05651004816492278
86.048,0.027032359367031078,-0.027032359367031078
86.049,0.111524527618591,-0.111524527618591
86.05000000000001,0.17875349241040728,-0.17875349241040728
86.051,0.21447729551591688,-0.21447729551591688
86.052,0.21190896445226126,-0.21190896445226126
86.05300000000001,0.17316836558180493,-0.17316836558180493
86.054,0.10833642194175042,-0.10833642194175042
86.055,0.03245050741503286,-0.03245050741503286
86.05600000000001,0.03863031716511811,0.03863031716511811
86.057,0.09226546876875874,0.09226546876875874
86.058,0.12183547838363484,0.12183547838363484
86.05900000000001,0.12758817150136337,0.12758817150136337
86.06,0.11543413063995978,0.11543413063995978
86.061,0.09422272530148579,0.09422272530148579
86.06200000000001,0.07246301756570594,0.07246301756570594
86.063,0.055567842802615175,0.055567842802615175
86.06400000000001,0.04447195516269198,0.04447195516269198
86.06500000000001,0.03599108021474828,0.03599108021474828
86.066,0.024709166139237793,0.024709166139237793
86.06700000000001,0.00569027969786573,0.00569027969786573
86.06800000000001,0.02294125932103852,-0.02294125932103852
86.069,0.05845374543126225,-0.05845374543126225
86.07000000000001,0.09355891006331873,-0.09355891006331873
86.07100000000001,0.1181191776470556,-0.1181191776470556
86.072,0.12205056001092107,-0.12205056001092107
86.07300000000001,0.09858296917587162,-0.09858296917587162
86.07400000000001,0.046910844659018514,-0.046910844659018514
86.075,0.0265827009338393,0.0265827009338393
86.07600000000001,0.10896502827083832,0.10896502827083832
86.07700000000001,0.18319429949842925,0.18319429949842925
86.078,0.23181856461635486,0.23181856461635486
86.07900000000001,0.24105506636337792,0.24105506636337792
86.08000000000001,0.20426095614953232,0.20426095614953232
86.081,0.12394244353759931,0.12394244353759931
86.08200000000001,0.0117900016151542,0.0117900016151542
86.08300000000001,0.11331538109063544,-0.11331538109063544
86.084,0.22891613862996985,-0.22891613862996985
86.08500000000001,0.31343929178989083,-0.31343929178989083
86.08600000000001,0.3505458835097771,-0.3505458835097771
86.087,0.33243829089437515,-0.33243829089437515
86.08800000000001,0.26142702987361055,-0.26142702987361055
86.08900000000001,0.14943999815913867,-0.14943999815913867
86.09,0.015602923190934481,-0.015602923190934481
86.09100000000001,0.11756763644951684,0.11756763644951684
86.09200000000001,0.2285284253961366,0.2285284253961366
86.093,0.3006988482744224,0.3006988482744224
86.09400000000001,0.3252518540402123,0.3252518540402123
86.09500000000001,0.3021753559802076,0.3021753559802076
86.096,0.23948125051620384,0.23948125051620384
86.09700000000001,0.1508644337746523,0.1508644337746523
86.09800000000001,0.0524530764036395,0.0524530764036395
86.099,0.040539203998642526,-0.040539203998642526
86.10000000000001,0.11648836114937644,-0.11648836114937644
86.10100000000001,0.1688242642723684,-0.1688242642723684
86.102,0.19610468669412529,-0.19610468669412529
86.10300000000001,0.20090030699951344,-0.20090030699951344
86.10400000000001,0.18798871867782274,-0.18798871867782274
86.105,0.16248684149414105,-0.16248684149414105
86.10600000000001,0.12848718874293763,-0.12848718874293763
86.10700000000001,0.08853377337967694,-0.08853377337967694
86.108,0.04395775951828074,-0.04395775951828074
86.10900000000001,0.004204452869576603,0.004204452869576603
86.11000000000001,0.054171966142021244,0.054171966142021244
86.111,0.10273516419622153,0.10273516419622153
86.11200000000001,0.14525047424535686,0.14525047424535686
86.113,0.17637598765179452,0.17637598765179452
86.114,0.19133093882939556,0.19133093882939556
86.11500000000001,0.18726286749096044,0.18726286749096044
86.116,0.16425403119941828,0.16425403119941828
86.117,0.12560878188291924,0.12560878188291924
86.11800000000001,0.07729561842382382,0.07729561842382382
86.119,0.026689990402692265,0.026689990402692265
86.12,0.01901671842822439,-0.01901671842822439
86.12100000000001,0.05428289508806672,-0.05428289508806672
86.122,0.07615715351992691,-0.07615715351992691
86.123,0.08447942259402497,-0.08447942259402497
86.12400000000001,0.08137214314337937,-0.08137214314337937
86.125,0.07026671699345832,-0.07026671699345832
86.126,0.05482640236560776,-0.05482640236560776
86.12700000000001,0.038110449827745474,-0.038110449827745474
86.128,0.022191369585257137,-0.022191369585257137
86.129,0.008244435135352224,-0.008244435135352224
86.13000000000001,0.0030494731956252075,0.0030494731956252075
86.131,0.011045409255814542,0.011045409255814542
86.132,0.014866866841901416,0.014866866841901416
86.13300000000001,0.013467262971827543,0.013467262971827543
86.134,0.006001309605302874,0.006001309605302874
86.135,0.0076537504602628426,-0.0076537504602628426
86.13600000000001,0.026457046237698623,-0.026457046237698623
86.137,0.04804806890659674,-0.04804806890659674
86.138,0.0689751918709991,-0.0689751918709991
86.13900000000001,0.08526778890469511,-0.08526778890469511
86.14,0.09319265013524625,-0.09319265013524625
86.141,0.08998364150895899,-0.08998364150895899
86.14200000000001,0.0743630600058327,-0.0743630600058327
86.143,0.046763898514728064,-0.046763898514728064
86.144,0.00926967744963525,-0.00926967744963525
86.14500000000001,0.03463604837491796,0.03463604837491796
86.146,0.08040564108616866,0.08040564108616866
86.147,0.12279249815716375,0.12279249815716375
86.14800000000001,0.15626581266779604,0.15626581266779604
86.149,0.1755505280708589,0.1755505280708589
86.15,0.17635863475386993,0.17635863475386993
86.15100000000001,0.15629079891713538,0.15629079891713538
86.152,0.11574950912912985,0.11574950912912985
86.153,0.058577229387213325,0.058577229387213325
86.15400000000001,0.007913282403968602,-0.007913282403968602
86.155,0.07376383146109555,-0.07376383146109555
86.156,0.128078008885659,-0.128078008885659
86.15700000000001,0.16133835710252897,-0.16133835710252897
86.158,0.16778258081935538,-0.16778258081935538
86.159,0.1471432782542791,-0.1471432782542791
86.16000000000001,0.10512656698539247,-0.10512656698539247
86.161,0.05230512730119208,-0.05230512730119208
86.162,0.0015608980974836095,-0.0015608980974836095
86.16300000000001,0.03530659314428619,0.03530659314428619
86.164,0.05085349265764094,0.05085349265764094
86.165,0.04413512835111888,0.04413512835111888
86.16600000000001,0.02097948603368094,0.02097948603368094
86.167,0.007807581644312722,-0.007807581644312722
86.168,0.02984945456245358,-0.02984945456245358
86.16900000000001,0.03520800065137375,-0.03520800065137375
86.17,0.019726258819895093,-0.019726258819895093
86.171,0.013417742647154451,0.013417742647154451
86.17200000000001,0.05453829713314695,0.05453829713314695
86.173,0.09048324804082064,0.09048324804082064
86.174,0.1089754899011699,0.1089754899011699
86.17500000000001,0.10286058858309044,0.10286058858309044
86.176,0.07282875795583088,0.07282875795583088
86.177,0.027620847799806336,0.027620847799806336
86.17800000000001,0.018476140349863446,-0.018476140349863446
86.179,0.05013905506136107,-0.05013905506136107
86.18,0.05611389232320363,-0.05611389232320363
86.18100000000001,0.033240636066841245,-0.033240636066841245
86.182,0.011995985295432998,0.011995985295432998
86.183,0.06502543999802057,0.06502543999802057
86.18400000000001,0.10749577901360796,0.10749577901360796
86.185,0.12304079922223843,0.12304079922223843
86.186,0.10269737658742395,0.10269737658742395
86.18700000000001,0.04820640297276424,0.04820640297276424
86.188,0.0279451498742318,-0.0279451498742318
86.18900000000001,0.10587013274611878,-0.10587013274611878
86.19000000000001,0.16406278395128504,-0.16406278395128504
86.191,0.18586438208817802,-0.18586438208817802
86.19200000000001,0.16460824073864366,-0.16460824073864366
86.19300000000001,0.10582195938260353,-0.10582195938260353
86.194,0.02576743683139804,-0.02576743683139804
86.19500000000001,0.05326358146092347,0.05326358146092347
86.19600000000001,0.10947103068953812,0.10947103068953812
86.197,0.12789725120664164,0.12789725120664164
86.19800000000001,0.10468391441361269,0.10468391441361269
86.19900000000001,0.04797693373315415,0.04797693373315415
86.2,0.024731411462829977,-0.024731411462829977
86.20100000000001,0.09194029124468361,-0.09194029124468361
86.20200000000001,0.13448069649634808,-0.13448069649634808
86.203,0.1409280238695897,-0.1409280238695897
86.20400000000001,0.11050901340512953,-0.11050901340512953
86.20500000000001,0.052752397154798514,-0.052752397154798514
86.206,0.01584284931914004,0.01584284931914004
86.20700000000001,0.07695582765110953,0.07695582765110953
86.20800000000001,0.11575759952903186,0.11575759952903186
86.209,0.12479336847187561,0.12479336847187561
86.21000000000001,0.10538209475969795,0.10538209475969795
86.21100000000001,0.06632033102840174,0.06632033102840174
86.212,0.020522524615919746,0.020522524615919746
86.21300000000001,0.019185775566323282,-0.019185775566323282
86.21400000000001,0.04375036813609401,-0.04375036813609401
86.215,0.049967262047047045,-0.049967262047047045
86.21600000000001,0.040489714109623653,-0.040489714109623653
86.21700000000001,0.02200200310072653,-0.02200200310072653
86.218,0.002363472376668563,-0.002363472376668563
86.21900000000001,0.012223049241028683,0.012223049241028683
86.22000000000001,0.01908308418400062,0.01908308418400062
86.221,0.019463199913568374,0.019463199913568374
86.22200000000001,0.01747328880535437,0.01747328880535437
86.22300000000001,0.01809247372499745,0.01809247372499745
86.224,0.025018608812524823,0.025018608812524823
86.22500000000001,0.039119597178747245,0.039119597178747245
86.22600000000001,0.05797080342782146,0.05797080342782146
86.227,0.07655440667394542,0.07655440667394542
86.22800000000001,0.08880537073135564,0.08880537073135564
86.22900000000001,0.08944484027982536,0.08944484027982536
86.23,0.07551050113414193,0.07551050113414193
86.23100000000001,0.04715923675052669,0.04715923675052669
86.23200000000001,0.00759818751871566,0.00759818751871566
86.233,0.03771577000574722,-0.03771577000574722
86.23400000000001,0.08227881454295982,-0.08227881454295982
86.23500000000001,0.11977085072237015,-0.11977085072237015
86.236,0.1450277853042703,-0.1450277853042703
86.23700000000001,0.1546308091189813,-0.1546308091189813
86.238,0.1471446557189019,-0.1471446557189019
86.239,0.12312478545044814,-0.12312478545044814
86.24000000000001,0.08500927823193027,-0.08500927823193027
86.241,0.03693730593027256,-0.03693730593027256
86.242,0.01555330677846456,0.01555330677846456
86.24300000000001,0.06604270629436981,0.06604270629436981
86.244,0.1080197889804233,0.1080197889804233
86.245,0.13589996018482497,0.13589996018482497
86.24600000000001,0.14608661425732516,0.14608661425732516
86.247,0.1377936612381705,0.1377936612381705
86.248,0.11334108358423833,0.11334108358423833
86.24900000000001,0.07774669718254734,0.07774669718254734
86.25,0.03763937370261283,0.03763937370261283
86.251,0.00025531496745778703,-0.00025531496745778703
86.25200000000001,0.030641378462997526,-0.030641378462997526
86.253,0.05074034045356968,-0.05074034045356968
86.254,0.060610759399724934,-0.060610759399724934
86.25500000000001,0.06261199098993375,-0.06261199098993375
86.256,0.060209467853062026,-0.060209467853062026
86.257,0.05654440947137218,-0.05654440947137218
86.25800000000001,0.05327339606696191,-0.05327339606696191
86.259,0.050087545614950546,-0.050087545614950546
86.26,0.045076103348027474,-0.045076103348027474
86.26100000000001,0.03578972734884234,-0.03578972734884234
86.262,0.020595513535873078,-0.020595513535873078
86.263,0.00020401672201564303,0.00020401672201564303
86.26400000000001,0.0239447117076792,0.0239447117076792
86.265,0.046083037661862614,0.046083037661862614
86.266,0.06147433056797502,0.06147433056797502
86.26700000000001,0.06603579144631899,0.06603579144631899
86.268,0.05822176269093071,0.05822176269093071
86.269,0.039776390668498474,0.039776390668498474
86.27000000000001,0.01545659437651814,0.01545659437651814
86.271,0.008239647634194158,-0.008239647634194158
86.272,0.02496539023119304,-0.02496539023119304
86.27300000000001,0.03044357317891999,-0.03044357317891999
86.274,0.023795876032091434,-0.023795876032091434
86.275,0.007846694145498656,-0.007846694145498656
86.27600000000001,0.011706931371922025,0.011706931371922025
86.277,0.028008299918997892,0.028008299918997892
86.278,0.03511005451197802,0.03511005451197802
86.27900000000001,0.02976920894746171,0.02976920894746171
86.28,0.012436003071054413,0.012436003071054413
86.281,0.01283597446505258,-0.01283597446505258
86.28200000000001,0.03949968506864876,-0.03949968506864876
86.283,0.06029134230332234,-0.06029134230332234
86.284,0.06915212181878105,-0.06915212181878105
86.28500000000001,0.06277187967874331,-0.06277187967874331
86.286,0.04138177478502547,-0.04138177478502547
86.287,0.00866056501626189,-0.00866056501626189
86.28800000000001,0.029138410697116646,0.029138410697116646
86.289,0.06455894756805614,0.06455894756805614
86.29,0.09046521562885435,0.09046521562885435
86.29100000000001,0.10140516252258358,0.10140516252258358
86.292,0.09460198326355185,0.09460198326355185
86.293,0.07047240479375372,0.07047240479375372
86.29400000000001,0.03265201867420342,0.03265201867420342
86.295,0.01245356240224349,-0.01245356240224349
86.296,0.056561372548260325,-0.056561372548260325
86.29700000000001,0.09079942521063888,-0.09079942521063888
86.298,0.10728902753309721,-0.10728902753309721
86.299,0.10082413890316855,-0.10082413890316855
86.30000000000001,0.07034036589733006,-0.07034036589733006
86.301,0.019792797999532374,-0.019792797999532374
86.302,0.04191733312422463,0.04191733312422463
86.30300000000001,0.10217763297867788,0.10217763297867788
86.304,0.14700328073666835,0.14700328073666835
86.305,0.16409577364974037,0.16409577364974037
86.30600000000001,0.14595340663149337,0.14595340663149337
86.307,0.0922273860549152,0.0922273860549152
86.308,0.010599768005350896,0.010599768005350896
86.30900000000001,0.08422838784309394,-0.08422838784309394
86.31,0.17337428576243363,-0.17337428576243363
86.311,0.2378604285005106,-0.2378604285005106
86.31200000000001,0.26298295559933915,-0.26298295559933915
86.313,0.24184860661215124,-0.24184860661215124
86.31400000000001,0.17713365413037063,-0.17713365413037063
86.31500000000001,0.08056290229479368,-0.08056290229479368
86.316,0.02978938057912006,0.02978938057912006
86.31700000000001,0.13368549403527696,0.13368549403527696
86.31800000000001,0.21330565230158616,0.21330565230158616
86.319,0.2570408669825457,0.2570408669825457
86.32000000000001,0.26155673631598275,0.26155673631598275
86.32100000000001,0.23169094701237647,0.23169094701237647
86.322,0.17835788294318866,0.17835788294318866
86.32300000000001,0.11516885439030089,0.11516885439030089
86.32400000000001,0.054781513515618885,0.054781513515618885
86.325,0.005987887131953862,0.005987887131953862
86.32600000000001,0.02774441571478181,-0.02774441571478181
86.32700000000001,0.048042716040608835,-0.048042716040608835
86.328,0.05998410756381056,-0.05998410756381056
86.32900000000001,0.0696886606921292,-0.0696886606921292
86.33000000000001,0.08195593060134498,-0.08195593060134498
86.331,0.09864567408289582,-0.09864567408289582
86.33200000000001,0.11820162119451072,-0.11820162119451072
86.33300000000001,0.13633031104229698,-0.13633031104229698
86.334,0.1475033925060737,-0.1475033925060737
86.33500000000001,0.14675132438028515,-0.14675132438028515
86.33600000000001,0.1312013969157101,-0.1312013969157101
86.337,0.1009609885913183,-0.1009609885913183
86.33800000000001,0.05918645289644486,-0.05918645289644486
86.33900000000001,0.011419312256066738,-0.011419312256066738
86.34,0.03555978204572252,0.03555978204572252
86.34100000000001,0.07504778420737113,0.07504778420737113
86.34200000000001,0.10163182330631093,0.10163182330631093
86.343,0.11211425014179799,0.11211425014179799
86.34400000000001,0.10606089960302767,0.10606089960302767
86.34500000000001,0.08594302638019857,0.08594302638019857
86.346,0.0568619391348697,0.0568619391348697
86.34700000000001,0.025845587427687278,0.025845587427687278
86.34800000000001,0.0007253859688856057,0.0007253859688856057
86.349,0.011331852812703769,-0.011331852812703769
86.35000000000001,0.005447111403181659,-0.005447111403181659
86.35100000000001,0.019511163278998156,0.019511163278998156
86.352,0.060032856482688635,0.060032856482688635
86.35300000000001,0.10801621225730007,0.10801621225730007
86.35400000000001,0.15197792659661613,0.15197792659661613
86.355,0.1793526517201327,0.1793526517201327
86.35600000000001,0.17947135156970728,0.17947135156970728
86.35700000000001,0.1465217554133138,0.1465217554133138
86.358,0.08167132488389606,0.08167132488389606
86.35900000000001,0.0063547121339906365,-0.0063547121339906365
86.36000000000001,0.10259892954751415,-0.10259892954751415
86.361,0.18895271728687413,-0.18895271728687413
86.36200000000001,0.24832130345519798,-0.24832130345519798
86.363,0.26882490454312447,-0.26882490454312447
86.364,0.24689075041317843,-0.24689075041317843
86.36500000000001,0.1883268323505698,-0.1883268323505698
86.366,0.10699026227212127,-0.10699026227212127
86.367,0.021329879881278657,-0.021329879881278657
86.36800000000001,0.05030094264239504,0.05030094264239504
86.369,0.09428887828248689,0.09428887828248689
86.37,0.10507659762823085,0.10507659762823085
86.37100000000001,0.08622844741161928,0.08622844741161928
86.372,0.04896533671507286,0.04896533671507286
86.373,0.008617591302656491,0.008617591302656491
86.37400000000001,0.01995671316344938,-0.01995671316344938
86.375,0.026652963892061288,-0.026652963892061288
86.376,0.008875680288183196,-0.008875680288183196
86.37700000000001,0.02798503093502669,0.02798503093502669
86.378,0.07242335477446527,0.07242335477446527
86.379,0.110410179793065,0.110410179793065
86.38000000000001,0.12959780357984174,0.12959780357984174
86.381,0.12288668072346876,0.12288668072346876
86.382,0.0903424304946665,0.0903424304946665
86.38300000000001,0.038982917267506245,0.038982917267506245
86.384,0.019393066718223606,-0.019393066718223606
86.385,0.07159603982203633,-0.07159603982203633
86.38600000000001,0.10660111008689821,-0.10660111008689821
86.387,0.11823702635491562,-0.11823702635491562
86.388,0.10631158097148585,-0.10631158097148585
86.38900000000001,0.07599878506697233,-0.07599878506697233
86.39,0.03584963633185789,-0.03584963633185789
86.391,0.004831656735635681,0.004831656735635681
86.39200000000001,0.03839028753867102,0.03839028753867102
86.393,0.06031601635687478,0.06031601635687478
86.394,0.06952061246010399,0.06952061246010399
86.39500000000001,0.06752945653406406,0.06752945653406406
86.396,0.057073190830810416,0.057073190830810416
86.397,0.04071553718180532,0.04071553718180532
86.39800000000001,0.0200605003787786,0.0200605003787786
86.399,0.004206517845869451,-0.004206517845869451
86.4,0.031558990893904904,-0.031558990893904904
86.40100000000001,0.06057710990307619,-0.06057710990307619
86.402,0.08816556126625563,-0.08816556126625563
86.403,0.10951401413851669,-0.10951401413851669
86.40400000000001,0.11898890530516582,-0.11898890530516582
86.405,0.11176863049942021,-0.11176863049942021
86.406,0.08570321735141329,-0.08570321735141329
86.40700000000001,0.042719060985415114,-0.042719060985415114
86.408,0.010832274698785671,0.010832274698785671
86.409,0.06517832349462926,0.06517832349462926
86.41000000000001,0.10934377533168727,0.10934377533168727
86.411,0.13401698097762482,0.13401698097762482
86.412,0.13422980176842247,0.13422980176842247
86.41300000000001,0.11100233591922182,0.11100233591922182
86.414,0.07136634689692034,0.07136634689692034
86.415,0.026648551536607057,0.026648551536607057
86.41600000000001,0.010573096870190257,-0.010573096870190257
86.417,0.029997221423653464,-0.029997221423653464
86.418,0.026580846533946545,-0.026580846533946545
86.41900000000001,0.002068852511142194,-0.002068852511142194
86.42,0.03542827634609358,0.03542827634609358
86.421,0.07373450008055005,0.07373450008055005
86.42200000000001,0.10014485785271865,0.10014485785271865
86.423,0.10517070835286102,0.10517070835286102
86.424,0.0853820870669395,0.0853820870669395
86.42500000000001,0.04448728361287446,0.04448728361287446
86.426,0.007694056281063455,-0.007694056281063455
86.427,0.05807991900653986,-0.05807991900653986
86.42800000000001,0.09416187358000339,-0.09416187358000339
86.429,0.10768760427803059,-0.10768760427803059
86.43,0.09708525901185427,-0.09708525901185427
86.43100000000001,0.06789402526524646,-0.06789402526524646
86.432,0.031059393382778744,-0.031059393382778744
86.433,0.00040730235645169977,0.00040730235645169977
86.43400000000001,0.015410524069798814,0.015410524069798814
86.435,0.008200144814501709,0.008200144814501709
86.436,0.019785354122519805,-0.019785354122519805
86.43700000000001,0.06022674250263138,-0.06022674250263138
86.438,0.10030731396214199,-0.10030731396214199
86.43900000000001,0.126476973849185,-0.126476973849185
86.44000000000001,0.12849021294456286,-0.12849021294456286
86.441,0.10252815436662066,-0.10252815436662066
86.44200000000001,0.0524849685374994,-0.0524849685374994
86.44300000000001,0.010960242545070553,0.010960242545070553
86.444,0.073216095653859,0.073216095653859
86.44500000000001,0.11976244959219717,0.11976244959219717
86.44600000000001,0.1400983219727001,0.1400983219727001
86.447,0.1305343237256924,0.1305343237256924
86.44800000000001,0.09506190344783749,0.09506190344783749
86.44900000000001,0.04409910524116967,0.04409910524116967
86.45,0.008476578922581357,-0.008476578922581357
86.45100000000001,0.04912370241986874,-0.04912370241986874
86.45200000000001,0.0681737406537728,-0.0681737406537728
86.453,0.062141457426204916,-0.062141457426204916
86.45400000000001,0.03423415807113028,-0.03423415807113028
86.45500000000001,0.0069741963935776585,0.0069741963935776585
86.456,0.05021572369394689,0.05021572369394689
86.45700000000001,0.08470862845281224,0.08470862845281224
86.45800000000001,0.10291906474247359,0.10291906474247359
86.459,0.10216911207286472,0.10216911207286472
86.46000000000001,0.08474702050827565,0.08474702050827565
86.46100000000001,0.05663980299625471,0.05663980299625471
86.462,0.025399920039126833,0.025399920039126833
86.46300000000001,0.0021360618928681907,-0.0021360618928681907
86.46400000000001,0.021587404067718086,-0.021587404067718086
86.465,0.0317746653989065,-0.0317746653989065
86.46600000000001,0.03437244149383478,-0.03437244149383478
86.46700000000001,0.032723852323156,-0.032723852323156
86.468,0.03031055334737731,-0.03031055334737731
86.46900000000001,0.029430420892692877,-0.029430420892692877
86.47000000000001,0.030507906386212813,-0.030507906386212813
86.471,0.03220526600233087,-0.03220526600233087
86.47200000000001,0.032211075698324154,-0.032211075698324154
86.47300000000001,0.028355756045164493,-0.028355756045164493
86.474,0.019614565165538278,-0.019614565165538278
86.47500000000001,0.00662866184249411,-0.00662866184249411
86.47600000000001,0.008428751109877286,0.008428751109877286
86.477,0.02256611175232437,0.02256611175232437
86.47800000000001,0.03298127836742637,0.03298127836742637
86.47900000000001,0.03797735377835587,0.03797735377835587
86.48,0.037442931685957026,0.037442931685957026
86.48100000000001,0.032720331995082175,0.032720331995082175
86.48200000000001,0.025916244140325784,0.025916244140325784
86.483,0.018921088764430438,0.018921088764430438
86.48400000000001,0.012520639708576864,0.012520639708576864
86.48500000000001,0.0059629933677969316,0.0059629933677969316
86.486,0.0028099234313659904,-0.0028099234313659904
86.48700000000001,0.016294145801299953,-0.016294145801299953
86.488,0.036186881380707914,-0.036186881380707914
86.489,0.062209621409750726,-0.062209621409750726
86.49000000000001,0.09144120478906903,-0.09144120478906903
86.491,0.11847901738440791,-0.11847901738440791
86.492,0.1364966994055924,-0.1364966994055924
86.49300000000001,0.1389745434706925,-0.1389745434706925
86.494,0.12163675804246998,-0.12163675804246998
86.495,0.08401858432655118,-0.08401858432655118
86.49600000000001,0.03014873784737715,-0.03014873784737715
86.497,0.03194088371656134,0.03194088371656134
86.498,0.09183690899489938,0.09183690899489938
86.49900000000001,0.13911951481640306,0.13911951481640306
86.5,0.1658703500031482,0.1658703500031482
86.501,0.16862256018080513,0.16862256018080513
86.50200000000001,0.1491922421598615,0.1491922421598615
86.503,0.11413063577935012,0.11413063577935012
86.504,0.07292336343356687,0.07292336343356687
86.50500000000001,0.03542514244277761,0.03542514244277761
86.506,0.009247276165830431,0.009247276165830431
86.507,0.0021611632825488947,-0.0021611632825488947
86.50800000000001,0.0001919632455148479,-0.0001919632455148479
86.509,0.009670303143404002,0.009670303143404002
86.51,0.019788033803349148,0.019788033803349148
86.51100000000001,0.022909694909142075,0.022909694909142075
86.512,0.014532660654277274,0.014532660654277274
86.513,0.005635236915722874,-0.005635236915722874
86.51400000000001,0.03356657805201302,-0.03356657805201302
86.515,0.06219142229268637,-0.06219142229268637
86.516,0.08366035647786652,-0.08366035647786652
86.51700000000001,0.09187832924609163,-0.09187832924609163
86.518,0.0845001875380087,-0.0845001875380087
86.519,0.06374099693625168,-0.06374099693625168
86.52000000000001,0.03572676963002008,-0.03572676963002008
86.521,0.00857954273694006,-0.00857954273694006
86.522,0.01015424735615622,0.01015424735615622
86.52300000000001,0.015897995078555605,0.015897995078555605
86.524,0.008471354273802634,0.008471354273802634
86.525,0.007935619523966153,-0.007935619523966153
86.52600000000001,0.026250339546143975,-0.026250339546143975
86.527,0.0389864023473816,-0.0389864023473816
86.528,0.0408686098474611,-0.0408686098474611
86.52900000000001,0.030714394274686474,-0.030714394274686474
86.53,0.011899506014709016,-0.011899506014709016
86.531,0.00879892240547675,0.00879892240547675
86.53200000000001,0.023634739137326166,0.023634739137326166
86.533,0.026795542174882447,0.026795542174882447
86.534,0.01676974232113615,0.01676974232113615
86.53500000000001,0.002692251657864908,-0.002692251657864908
86.536,0.02345072706243634,-0.02345072706243634
86.537,0.035499387805256966,-0.035499387805256966
86.53800000000001,0.03037343598403397,-0.03037343598403397
86.539,0.004328167344150535,-0.004328167344150535
86.54,0.039815783871166355,0.039815783871166355
86.54100000000001,0.09287829435658113,0.09287829435658113
86.542,0.14164573803002267,0.14164573803002267
86.543,0.17268134791286416,0.17268134791286416
86.54400000000001,0.1764577648207719,0.1764577648207719
86.545,0.15048585050828867,0.15048585050828867
86.546,0.10038267530437328,0.10038267530437328
86.54700000000001,0.03845043973434392,0.03845043973434392
86.548,0.01986878749578802,-0.01986878749578802
86.549,0.060597578245530026,-0.060597578245530026
86.55000000000001,0.07544943180890162,-0.07544943180890162
86.551,0.06432652314723664,-0.06432652314723664
86.552,0.035268111931231805,-0.035268111931231805
86.55300000000001,0.0018358948740937464,-0.0018358948740937464
86.554,0.021253202790578962,0.021253202790578962
86.555,0.022865724697870293,0.022865724697870293
86.55600000000001,0.0009455872693134859,-0.0009455872693134859
86.557,0.045619432176965735,-0.045619432176965735
86.558,0.09945290801692219,-0.09945290801692219
86.55900000000001,0.1472005256418386,-0.1472005256418386
86.56,0.17473688492141204,-0.17473688492141204
86.561,0.1732925119568529,-0.1732925119568529
86.56200000000001,0.14194218647608114,-0.14194218647608114
86.563,0.08762393285640324,-0.08762393285640324
86.56400000000001,0.022787777612362392,-0.022787777612362392
86.56500000000001,0.03846323626897452,0.03846323626897452
86.566,0.08442741831717226,0.08442741831717226
86.56700000000001,0.1087497851324779,0.1087497851324779
86.56800000000001,0.11140350214225148,0.11140350214225148
86.569,0.09757402414833982,0.09757402414833982
86.57000000000001,0.0750445432410638,0.0750445432410638
86.57100000000001,0.051163894417452394,0.051163894417452394
86.572,0.03054555754817323,0.03054555754817323
86.57300000000001,0.014286392693260819,0.014286392693260819
86.57400000000001,0.0008505769887905412,0.0008505769887905412
86.575,0.011914316512727896,-0.011914316512727896
86.57600000000001,0.024616064974514518,-0.024616064974514518
86.57700000000001,0.035051989380640025,-0.035051989380640025
86.578,0.03850786392692751,-0.03850786392692751
86.57900000000001,0.02963222311047342,-0.02963222311047342
86.58000000000001,0.00520272661906207,-0.00520272661906207
86.581,0.03335452424683938,0.03335452424683938
86.58200000000001,0.07885656931596086,0.07885656931596086
86.58300000000001,0.1193876470979145,0.1193876470979145
86.584,0.14140883362367895,0.14140883362367895
86.58500000000001,0.13408439081835977,0.13408439081835977
86.58600000000001,0.0933893152080334,0.0933893152080334
86.587,0.024483171878979082,0.024483171878979082
86.58800000000001,0.05869169348786174,-0.05869169348786174
86.58900000000001,0.13673822091706733,-0.13673822091706733
86.59,0.19019501010426765,-0.19019501010426765
86.59100000000001,0.20534375855532894,-0.20534375855532894
86.59200000000001,0.17853348732055951,-0.17853348732055951
86.593,0.117513166315946,-0.117513166315946
86.59400000000001,0.03920026806589194,-0.03920026806589194
86.59500000000001,0.03550745903869279,0.03550745903869279
86.596,0.08824596552193675,0.08824596552193675
86.59700000000001,0.10888848971413778,0.10888848971413778
86.59800000000001,0.09851239335783069,0.09851239335783069
86.599,0.06858197403737654,0.06858197403737654
86.60000000000001,0.036568013391925724,0.036568013391925724
86.60100000000001,0.019456091914996865,0.019456091914996865
86.602,0.0273627579032949,0.0273627579032949
86.60300000000001,0.059501120117002815,0.059501120117002815
86.60400000000001,0.10398434791697553,0.10398434791697553
86.605,0.14166380113297805,0.14166380113297805
86.60600000000001,0.15279870758125913,0.15279870758125913
86.60700000000001,0.12432722971341237,0.12432722971341237
86.608,0.05522030793777888,0.05522030793777888
86.60900000000001,0.04202882171276878,-0.04202882171276878
86.61000000000001,0.144466732606237,-0.144466732606237
86.611,0.22544585776963522,-0.22544585776963522
86.61200000000001,0.2629551290091666,-0.2629551290091666
86.613,0.2467756578295599,-0.2467756578295599
86.614,0.18203572150720326,-0.18203572150720326
86.61500000000001,0.08788270743556803,-0.08788270743556803
86.616,0.0084063825590599,0.0084063825590599
86.617,0.08002314010806799,0.08002314010806799
86.61800000000001,0.10914270711448926,0.10914270711448926
86.619,0.09254402482554736,0.09254402482554736
86.62,0.04244621894373979,0.04244621894373979
86.62100000000001,0.017759863654715158,-0.017759863654715158
86.622,0.061509991622764826,-0.061509991622764826
86.623,0.06816376272778457,-0.06816376272778457
86.62400000000001,0.030179608979214456,-0.030179608979214456
86.625,0.04403870386365494,0.04403870386365494
86.626,0.13260826599202646,0.13260826599202646
86.62700000000001,0.20717068226424828,0.20717068226424828
86.628,0.24214724607613847,0.24214724607613847
86.629,0.22320291616877874,0.22320291616877874
86.63000000000001,0.1521280532560434,0.1521280532560434
86.631,0.04652446897235096,0.04652446897235096
86.632,0.06560625764864736,-0.06560625764864736
86.63300000000001,0.15459910268737842,-0.15459910268737842
86.634,0.19833111918176205,-0.19833111918176205
86.635,0.18890760130062134,-0.18890760130062134
86.63600000000001,0.13469420504694107,-0.13469420504694107
86.637,0.057109476787867264,-0.057109476787867264
86.638,0.016684437120702,0.016684437120702
86.63900000000001,0.06273146994881018,0.06273146994881018
86.64,0.06792003701352911,0.06792003701352911
86.641,0.03385149532029619,0.03385149532029619
86.64200000000001,0.02422452634993011,-0.02422452634993011
86.643,0.08291916249329301,-0.08291916249329301
86.644,0.11871784746763026,-0.11871784746763026
86.64500000000001,0.11578758713503345,-0.11578758713503345
86.646,0.07101782406181567,-0.07101782406181567
86.647,0.005266653544923727,0.005266653544923727
86.64800000000001,0.092993065332722,0.092993065332722
86.649,0.16903487700052722,0.16903487700052722
86.65,0.21457074911107465,0.21457074911107465
86.65100000000001,0.22063937607741435,0.22063937607741435
86.652,0.19013445490114234,0.19013445490114234
86.653,0.13576742486846527,0.13576742486846527
86.65400000000001,0.07492216577625199,0.07492216577625199
86.655,0.023352015321913777,0.023352015321913777
86.656,0.01001741634460307,-0.01001741634460307
86.65700000000001,0.025402905940858256,-0.025402905940858256
86.658,0.030912444575856513,-0.030912444575856513
86.659,0.03834527492820916,-0.03834527492820916
86.66000000000001,0.05770489389929334,-0.05770489389929334
86.661,0.09251332058300332,-0.09251332058300332
86.662,0.1376856411140931,-0.1376856411140931
86.66300000000001,0.1807699108487164,-0.1807699108487164
86.664,0.2061280244174546,-0.2061280244174546
86.665,0.20056866571166676,-0.20056866571166676
86.66600000000001,0.15841926035504372,-0.15841926035504372
86.667,0.08421888325742466,-0.08421888325742466
86.668,0.00794936443045402,0.00794936443045402
86.66900000000001,0.09829308470583209,0.09829308470583209
86.67,0.1670241990980177,0.1670241990980177
86.671,0.2000328372661937,0.2000328372661937
86.67200000000001,0.19265154246345206,0.19265154246345206
86.673,0.15033885903071886,0.15033885903071886
86.674,0.086202138119716,0.086202138119716
86.67500000000001,0.016368312017760456,0.016368312017760456
86.676,0.045088240362199494,-0.045088240362199494
86.677,0.08988151807262112,-0.08988151807262112
86.67800000000001,0.11670616567673964,-0.11670616567673964
86.679,0.12967285226077396,-0.12967285226077396
86.68,0.134818551661945,-0.134818551661945
86.68100000000001,0.1362336153339977,-0.1362336153339977
86.682,0.13346125590874058,-0.13346125590874058
86.683,0.12130109137754075,-0.12130109137754075
86.68400000000001,0.09218115109654201,-0.09218115109654201
86.685,0.040212691823070745,-0.040212691823070745
86.686,0.03469454446037035,0.03469454446037035
86.68700000000001,0.12441518048152944,0.12441518048152944
86.688,0.2131119981884917,0.2131119981884917
86.68900000000001,0.2808507184179594,0.2808507184179594
86.69000000000001,0.3093487975555882,0.3093487975555882
86.691,0.2880040005356366,0.2880040005356366
86.69200000000001,0.21809449034500883,0.21809449034500883
86.69300000000001,0.11353211105522609,0.11353211105522609
86.694,0.0023568684523109784,-0.0023568684523109784
86.69500000000001,0.1032145590412542,-0.1032145590412542
86.69600000000001,0.16727034394147977,-0.16727034394147977
86.697,0.18376383870999302,-0.18376383870999302
86.69800000000001,0.1560453354165423,-0.1560453354165423
86.69900000000001,0.1002636890520836,-0.1002636890520836
86.7,0.039986181319103364,-0.039986181319103364
86.70100000000001,0.001550323967494105,0.001550323967494105
86.70200000000001,0.009043755076846738,0.009043755076846738
86.703,0.0199134911718174,-0.0199134911718174
86.70400000000001,0.07417012701567538,-0.07417012701567538
86.70500000000001,0.13288468530434172,-0.13288468530434172
86.706,0.17265760585457401,-0.17265760585457401
86.70700000000001,0.17556004494071908,-0.17556004494071908
86.70800000000001,0.13537886965559298,-0.13537886965559298
86.709,0.059977957052884334,-0.059977957052884334
86.71000000000001,0.03103777421370535,0.03103777421370535
86.71100000000001,0.11260462836383711,0.11260462836383711
86.712,0.16235785236152833,0.16235785236152833
86.71300000000001,0.1679612878623704,0.1679612878623704
86.71400000000001,0.13117284690954967,0.13117284690954967
86.715,0.06728861555218502,0.06728861555218502
86.71600000000001,0.00013846884153800865,0.00013846884153800865
86.71700000000001,0.04572338285618194,-0.04572338285618194
86.718,0.05306782927709919,-0.05306782927709919
86.71900000000001,0.017646322015222315,-0.017646322015222315
86.72000000000001,0.05038005061385986,0.05038005061385986
86.721,0.1296711121023446,0.1296711121023446
86.72200000000001,0.1945037826337439,0.1945037826337439
86.72300000000001,0.22289206643543524,0.22289206643543524
86.724,0.2033955646831762,0.2033955646831762
86.72500000000001,0.1384608536019607,0.1384608536019607
86.72600000000001,0.043318655724295496,0.043318655724295496
86.727,0.05906701351110255,-0.05906701351110255
86.72800000000001,0.14522901760548246,-0.14522901760548246
86.72900000000001,0.1981848140534126,-0.1981848140534126
86.73,0.21192905224861036,-0.21192905224861036
86.73100000000001,0.19209222427462325,-0.19209222427462325
86.73200000000001,0.1527589161425108,-0.1527589161425108
86.733,0.11073027822975812,-0.11073027822975812
86.73400000000001,0.07932974850935404,-0.07932974850935404
86.73500000000001,0.06392495597466108,-0.06392495597466108
86.736,0.06066579515765069,-0.06066579515765069
86.73700000000001,0.05876711726810835,-0.05876711726810835
86.738,0.04540755863389623,-0.04540755863389623
86.739,0.011407930098626728,-0.011407930098626728
86.74000000000001,0.044400033799890215,0.044400033799890215
86.741,0.11372423381880248,0.11372423381880248
86.742,0.18085553335136306,0.18085553335136306
86.74300000000001,0.22754799335545872,0.22754799335545872
86.744,0.23908234290815344,0.23908234290815344
86.745,0.20943281064002872,0.20943281064002872
86.74600000000001,0.14374408853012355,0.14374408853012355
86.747,0.05722221674913541,0.05722221674913541
86.748,0.029257159462753424,-0.029257159462753424
86.74900000000001,0.09542326858200756,-0.09542326858200756
86.75,0.12774019771931666,-0.12774019771931666
86.751,0.12341093424827743,-0.12341093424827743
86.75200000000001,0.09097003932107217,-0.09097003932107217
86.753,0.04728832497766866,-0.04728832497766866
86.754,0.01196586092014662,-0.01196586092014662
86.75500000000001,0.0009117599394731224,-0.0009117599394731224
86.756,0.021142387606806978,-0.021142387606806978
86.757,0.06841357201605425,-0.06841357201605425
86.75800000000001,0.12838759538616873,-0.12838759538616873
86.759,0.18092725614401728,-0.18092725614401728
86.76,0.2061620963677271,-0.2061620963677271
86.76100000000001,0.19047483482952432,-0.19047483482952432
86.762,0.1306427144537683,-0.1306427144537683
86.763,0.03498292010088544,-0.03498292010088544
86.76400000000001,0.0787233123821085,0.0787233123821085
86.765,0.18781580465473446,0.18781580465473446
86.766,0.27046985798326784,0.27046985798326784
86.76700000000001,0.3109394797852558,0.3109394797852558
86.768,0.3029822737625767,0.3029822737625767
86.769,0.2507275289039219,0.2507275289039219
86.77000000000001,0.16700003050488355,0.16700003050488355
86.771,0.06977400305101966,0.06977400305101966
86.772,0.022172008569335322,-0.022172008569335322
86.77300000000001,0.09327178673568859,-0.09327178673568859
86.774,0.13397853233987955,-0.13397853233987955
86.775,0.14191196123046468,-0.14191196123046468
86.77600000000001,0.12135888073054568,-0.12135888073054568
86.777,0.08150758369763011,-0.08150758369763011
86.778,0.033992845756110945,-0.033992845756110945
86.77900000000001,0.009651911220324383,0.009651911220324383
86.78,0.040149754989940556,0.040149754989940556
86.781,0.05193086164895977,0.05193086164895977
86.78200000000001,0.043743229703742115,0.043743229703742115
86.783,0.018434055488400602,0.018434055488400602
86.784,0.017977096439432905,-0.017977096439432905
86.78500000000001,0.05772642900153124,-0.05772642900153124
86.786,0.09295938886038158,-0.09295938886038158
86.787,0.11728808416237146,-0.11728808416237146
86.78800000000001,0.12693148785129504,-0.12693148785129504
86.789,0.1211876489811079,-0.1211876489811079
86.79,0.10213565651718692,-0.10213565651718692
86.79100000000001,0.07366865020310664,-0.07366865020310664
86.792,0.0401622272444937,-0.0401622272444937
86.793,0.005212783210698513,-0.005212783210698513
86.79400000000001,0.029123615475710407,0.029123615475710407
86.795,0.062320218481581646,0.062320218481581646
86.796,0.09460218868954962,0.09460218868954962
86.79700000000001,0.12571454028493956,0.12571454028493956
86.798,0.15376668432298857,0.15376668432298857
86.799,0.174720193203461,0.174720193203461
86.80000000000001,0.18289886946727374,0.18289886946727374
86.801,0.17253374604600813,0.17253374604600813
86.802,0.1399303079174532,0.1399303079174532
86.80300000000001,0.08551962931813195,0.08551962931813195
86.804,0.014969237937929591,0.014969237937929591
86.805,0.061251824491136975,-0.061251824491136975
86.80600000000001,0.1299800076941794,-0.1299800076941794
86.807,0.17867074918377124,-0.17867074918377124
86.808,0.19895572113281523,-0.19895572113281523
86.80900000000001,0.1892731855314146,-0.1892731855314146
86.81,0.15559010020695263,-0.15559010020695263
86.811,0.10979388924684086,-0.10979388924684086
86.81200000000001,0.06609618037884657,-0.06609618037884657
86.813,0.03650591194196884,-0.03650591194196884
86.81400000000001,0.026836100291979026,-0.026836100291979026
86.81500000000001,0.03463722903330879,-0.03463722903330879
86.816,0.0498878070001344,-0.0498878070001344
86.81700000000001,0.05837975160203379,-0.05837975160203379
86.81800000000001,0.046801965054915184,-0.046801965054915184
86.819,0.00787324129238931,-0.00787324129238931
86.82000000000001,0.05624904699033495,0.05624904699033495
86.82100000000001,0.1335791002404627,0.1335791002404627
86.822,0.2052737200557413,0.2052737200557413
86.82300000000001,0.25118188485028314,0.25118188485028314
86.82400000000001,0.2562716923066719,0.2562716923066719
86.825,0.21584517972120065,0.21584517972120065
86.82600000000001,0.1377512169440065,0.1377512169440065
86.82700000000001,0.040722375192655313,0.040722375192655313
86.828,0.05079242064252887,-0.05079242064252887
86.82900000000001,0.11376077587836808,-0.11376077587836808
86.83000000000001,0.13343488635252843,-0.13343488635252843
86.831,0.10775460966565964,-0.10775460966565964
86.83200000000001,0.0478457734988077,-0.0478457734988077
86.83300000000001,0.02557457585520173,0.02557457585520173
86.834,0.08874229679795897,0.08874229679795897
86.83500000000001,0.1222287873906387,0.1222287873906387
86.83600000000001,0.11677753921184375,0.11677753921184375
86.837,0.07572764224734851,0.07572764224734851
86.83800000000001,0.013296974586553212,0.013296974586553212
86.83900000000001,0.05062202414155037,-0.05062202414155037
86.84,0.09734591366206458,-0.09734591366206458
86.84100000000001,0.1156155665801778,-0.1156155665801778
86.84200000000001,0.10505366624045187,-0.10505366624045187
86.843,0.07574022205625974,-0.07574022205625974
86.84400000000001,0.044122915221802894,-0.044122915221802894
86.84500000000001,0.02673580701858491,-0.02673580701858491
86.846,0.03394256397414264,-0.03394256397414264
86.84700000000001,0.06589684354446956,-0.06589684354446956
86.84800000000001,0.11213495802597817,-0.11213495802597817
86.849,0.1549556332921952,-0.1549556332921952
86.85000000000001,0.1754344028266107,-0.1754344028266107
86.85100000000001,0.16001519852156154,-0.16001519852156154
86.852,0.10542677368909348,-0.10542677368909348
86.85300000000001,0.020247887446964596,-0.020247887446964596
86.85400000000001,0.07741169935883119,0.07741169935883119
86.855,0.16533426752340974,0.16533426752340974
86.85600000000001,0.22390830909977177,0.22390830909977177
86.85700000000001,0.24191633900844356,0.24191633900844356
86.858,0.21952946197368828,0.21952946197368828
86.85900000000001,0.16761348576192914,0.16761348576192914
86.86000000000001,0.10369994537966831,0.10369994537966831
86.861,0.04606955698244963,0.04606955698244963
86.86200000000001,0.007967756611343857,0.007967756611343857
86.863,0.006156254352838841,-0.006156254352838841
86.864,0.0012564562509292942,-0.0012564562509292942
86.86500000000001,0.010877244039676492,0.010877244039676492
86.866,0.01631491564630716,0.01631491564630716
86.867,0.0041081428630564965,0.0041081428630564965
86.86800000000001,0.029907550904411884,-0.029907550904411884
86.869,0.08181620530412104,-0.08181620530412104
86.87,0.14108544007155532,-0.14108544007155532
86.87100000000001,0.1940858070305217,-0.1940858070305217
86.872,0.22831266060329625,-0.22831266060329625
86.873,0.23583339938596892,-0.23583339938596892
86.87400000000001,0.2148937190077853,-0.2148937190077853
86.875,0.16937888976005955,-0.16937888976005955
86.876,0.10663649151437049,-0.10663649151437049
86.87700000000001,0.03471907476016978,-0.03471907476016978
86.878,0.039795816122080385,0.039795816122080385
86.879,0.11261820076045237,0.11261820076045237
86.88000000000001,0.1810666952847566,0.1810666952847566
86.881,0.2424585834425197,0.2424585834425197
86.882,0.29255154948236695,0.29255154948236695
86.88300000000001,0.32500619869201164,0.32500619869201164
86.884,0.3323922857293058,0.3323922857293058
86.885,0.3085606907406304,0.3085606907406304
86.88600000000001,0.2515323989532958,0.2515323989532958
86.887,0.16569607949265208,0.16569607949265208
86.888,0.06222394025472333,0.06222394025472333
86.88900000000001,0.042805065134860376,-0.042805065134860376
86.89,0.13224412906789085,-0.13224412906789085
86.891,0.19255728573008368,-0.19255728573008368
86.89200000000001,0.21778277081307562,-0.21778277081307562
86.893,0.21134077896539194,-0.21134077896539194
86.894,0.18490025201914762,-0.18490025201914762
86.89500000000001,0.1545049164668596,-0.1545049164668596
86.896,0.13513367288693146,-0.13513367288693146
86.897,0.1354816843421497,-0.1354816843421497
86.89800000000001,0.1547599983635689,-0.1547599983635689
86.899,0.1826934765026168,-0.1826934765026168
86.9,0.20284291985937608,-0.20284291985937608
86.90100000000001,0.19824191303313832,-0.19824191303313832
86.902,0.1575151375766447,-0.1575151375766447
86.903,0.07942633334411553,-0.07942633334411553
86.90400000000001,0.025720518532797776,0.025720518532797776
86.905,0.13838444731904587,0.13838444731904587
86.906,0.23513123103638445,0.23513123103638445
86.90700000000001,0.29534304070486184,0.29534304070486184
86.908,0.3071635793334224,0.3071635793334224
86.909,0.2708016881094266,0.2708016881094266
86.91000000000001,0.19819044340810787,0.19819044340810787
86.911,0.10919323655822177,0.10919323655822177
86.912,0.02565623435500397,0.02565623435500397
86.91300000000001,0.0347441323156471,-0.0347441323156471
86.914,0.06292826856807887,-0.06292826856807887
86.915,0.0598460179584126,-0.0598460179584126
86.91600000000001,0.03470450005774517,-0.03470450005774517
86.917,0.0008603046613553378,-0.0008603046613553378
86.918,0.02902882259204631,0.02902882259204631
86.91900000000001,0.046864660354025256,0.046864660354025256
86.92,0.0507369924813752,0.0507369924813752
86.921,0.043979228672699655,0.043979228672699655
86.92200000000001,0.03229315182745185,0.03229315182745185
86.923,0.02028457469676015,0.02028457469676015
86.924,0.00891775426024144,0.00891775426024144
86.92500000000001,0.005022118856106705,-0.005022118856106705
86.926,0.02720681362908106,-0.02720681362908106
86.927,0.06246932990624743,-0.06246932990624743
86.92800000000001,0.11130176595062968,-0.11130176595062968
86.929,0.16767662149887985,-0.16767662149887985
86.93,0.21929316807235189,-0.21929316807235189
86.93100000000001,0.2504769164749816,-0.2504769164749816
86.932,0.2469533670022711,-0.2469533670022711
86.933,0.2009447354229974,-0.2009447354229974
86.93400000000001,0.11479133036075362,-0.11479133036075362
86.935,0.0016867934511834992,-0.0016867934511834992
86.936,0.11697611584754508,0.11697611584754508
86.93700000000001,0.2170262237665712,0.2170262237665712
86.938,0.278117546949618,0.278117546949618
86.93900000000001,0.2894720571358014,0.2894720571358014
86.94000000000001,0.2529267905246875,0.2529267905246875
86.941,0.18227143958596748,0.18227143958596748
86.94200000000001,0.09903085969594683,0.09903085969594683
86.94300000000001,0.025979319420375013,0.025979319420375013
86.944,0.01960277084440032,-0.01960277084440032
86.94500000000001,0.030840524766476474,-0.030840524766476474
86.94600000000001,0.012845859730229892,-0.012845859730229892
86.947,0.019467521951581856,0.019467521951581856
86.94800000000001,0.04658390142433655,0.04658390142433655
86.94900000000001,0.05091909614503054,0.05091909614503054
86.95,0.022626749223460862,0.022626749223460862
86.95100000000001,0.037107308380256665,-0.037107308380256665
86.95200000000001,0.11624104066992325,-0.11624104066992325
86.953,0.19538368942662843,-0.19538368942662843
86.95400000000001,0.25348232018216743,-0.25348232018216743
86.95500000000001,0.27391826265246255,-0.27391826265246255
86.956,0.2491973913502975,-0.2491973913502975
86.95700000000001,0.18292554506699588,-0.18292554506699588
86.95800000000001,0.0886331379065588,-0.0886331379065588
86.959,0.014040232278946352,0.014040232278946352
86.96000000000001,0.10456403347042564,0.10456403347042564
86.96100000000001,0.16659834948778962,0.16659834948778962
86.962,0.19157556067126547,0.19157556067126547
86.96300000000001,0.17997534134761262,0.17997534134761262
86.96400000000001,0.14021525794733458,0.14021525794733458
86.965,0.08574214362075416,0.08574214362075416
86.96600000000001,0.031315317086703764,0.031315317086703764
86.96700000000001,0.01046495853677476,-0.01046495853677476
86.968,0.031578329372406566,-0.031578329372406566
86.96900000000001,0.029580346410656877,-0.029580346410656877
86.97000000000001,0.007248227589635281,-0.007248227589635281
86.971,0.028725919863726412,0.028725919863726412
86.97200000000001,0.06947424259845536,0.06947424259845536
86.97300000000001,0.10567345983652388,0.10567345983652388
86.974,0.1289794151713839,0.1289794151713839
86.97500000000001,0.13310479202130865,0.13310479202130865
86.97600000000001,0.11459040939040399,0.11459040939040399
86.977,0.07333190027286607,0.07333190027286607
86.97800000000001,0.012848142517889904,0.012848142517889904
86.97900000000001,0.05981885468756032,-0.05981885468756032
86.98,0.13472637981359692,-0.13472637981359692
86.98100000000001,0.20027204636297957,-0.20027204636297957
86.98200000000001,0.24499290942923313,-0.24499290942923313
86.983,0.25965816924331797,-0.25965816924331797
86.98400000000001,0.2392215907476397,-0.2392215907476397
86.98500000000001,0.18414285492829607,-0.18414285492829607
86.986,0.10068350827977934,-0.10068350827977934
86.98700000000001,1.8121667696657795e-05,-1.8121667696657795e-05
86.988,0.10369312128788155,0.10369312128788155
86.989,0.19584517108717892,0.19584517108717892
86.99000000000001,0.26395599605922415,0.26395599605922415
86.991,0.29968472536076396,0.29968472536076396
86.992,0.2998968766985486,0.2998968766985486
86.99300000000001,0.26665022338408617,0.26665022338408617
86.994,0.20626085584135456,0.20626085584135456
86.995,0.1278126072837138,0.1278126072837138
86.99600000000001,0.041537471076221966,0.041537471076221966
86.997,0.04258316656069072,-0.04258316656069072
86.998,0.11581816394635736,-0.11581816394635736
86.99900000000001,0.1712953365802179,-0.1712953365802179
87.0,0.20435246313972677,-0.20435246313972677
87.001,0.21278331801705885,-0.21278331801705885
87.00200000000001,0.19705055061043797,-0.19705055061043797
87.003,0.16040637366203037,-0.16040637366203037
87.004,0.10875484654730205,-0.10875484654730205
87.00500000000001,0.05007081442542227,-0.05007081442542227
87.006,0.006712723515706509,0.006712723515706509
87.007,0.053249777298040035,0.053249777298040035
87.00800000000001,0.08345205672068845,0.08345205672068845
87.009,0.09483844529244667,0.09483844529244667
87.01,0.08911759161183319,0.08911759161183319
87.01100000000001,0.07172478619235911,0.07172478619235911
87.012,0.05032944331890521,0.05032944331890521
87.013,0.032661706485733966,0.032661706485733966
87.01400000000001,0.024260711614258135,0.024260711614258135
87.015,0.026824770667469577,0.026824770667469577
87.016,0.037701715183654505,0.037701715183654505
87.01700000000001,0.05072685103309715,0.05072685103309715
87.018,0.058195757175869556,0.058195757175869556
87.019,0.05338611700435547,0.05338611700435547
87.02000000000001,0.032844784315323006,0.032844784315323006
87.021,0.0022925398739662706,-0.0022925398739662706
87.022,0.0463890223163288,-0.0463890223163288
87.02300000000001,0.09079772248032947,-0.09079772248032947
87.024,0.12630032920437484,-0.12630032920437484
87.025,0.14572927401106228,-0.14572927401106228
87.02600000000001,0.14594801495794585,-0.14594801495794585
87.027,0.12857432478937258,-0.12857432478937258
87.028,0.09924403791797687,-0.09924403791797687
87.02900000000001,0.06569026397627475,-0.06569026397627475
87.03,0.035294944663730954,-0.035294944663730954
87.031,0.012927153694747062,-0.012927153694747062
87.03200000000001,0.00023647350909028475,0.00023647350909028475
87.033,0.0065665932110463565,0.0065665932110463565
87.034,0.010631941613331808,0.010631941613331808
87.03500000000001,0.01717898047147881,0.01717898047147881
87.036,0.029191329316628156,0.029191329316628156
87.037,0.04672874988626452,0.04672874988626452
87.03800000000001,0.06694525545585561,0.06694525545585561
87.039,0.0852452651128155,0.0852452651128155
87.04,0.09711464049402352,0.09711464049402352
87.04100000000001,0.09991312227290727,0.09991312227290727
87.042,0.09392855170804482,0.09392855170804482
87.043,0.08226895953392788,0.08226895953392788
87.04400000000001,0.06960834573050434,0.06960834573050434
87.045,0.060246140093274114,0.060246140093274114
87.046,0.05622399026188063,0.05622399026188063
87.04700000000001,0.0562561574184004,0.0562561574184004
87.048,0.05595695901724551,0.05595695901724551
87.049,0.04938015074675062,0.04938015074675062
87.05000000000001,0.031385699034742975,0.031385699034742975
87.051,1.7753942769260789e-06,1.7753942769260789e-06
87.052,0.04211087674707603,-0.04211087674707603
87.05300000000001,0.08772194074848116,-0.08772194074848116
87.054,0.12674335637447254,-0.12674335637447254
87.055,0.1491285837553964,-0.1491285837553964
87.05600000000001,0.14804562791324238,-0.14804562791324238
87.057,0.12225632209064585,-0.12225632209064585
87.058,0.07684813186478545,-0.07684813186478545
87.05900000000001,0.02198783242779767,-0.02198783242779767
87.06,0.02997139600674048,0.02997139600674048
87.061,0.06812304615781839,0.06812304615781839
87.06200000000001,0.08619141826727206,0.08619141826727206
87.063,0.08419720977975742,0.08419720977975742
87.06400000000001,0.06802955485393047,0.06802955485393047
87.06500000000001,0.047059222964556335,0.047059222964556335
87.066,0.03061114705885637,0.03061114705885637
87.06700000000001,0.024530897096537885,0.024530897096537885
87.06800000000001,0.02907380001198767,0.02907380001198767
87.069,0.038905001641580395,0.038905001641580395
87.07000000000001,0.045264383725308166,0.045264383725308166
87.07100000000001,0.039571049212683285,0.039571049212683285
87.072,0.017192038417376043,0.017192038417376043
87.07300000000001,0.020017755800446624,-0.020017755800446624
87.07400000000001,0.06342445529828544,-0.06342445529828544
87.075,0.09984119253834567,-0.09984119253834567
87.07600000000001,0.11565873705965868,-0.11565873705965868
87.07700000000001,0.10156209745025002,-0.10156209745025002
87.078,0.05623673524041273,-0.05623673524041273
87.07900000000001,0.012268165090552063,0.012268165090552063
87.08000000000001,0.08811840712210017,0.08811840712210017
87.081,0.15184875171029044,0.15184875171029044
87.08200000000001,0.18585271848071594,0.18585271848071594
87.08300000000001,0.17949136199081517,0.17949136199081517
87.084,0.13219513475432842,0.13219513475432842
87.08500000000001,0.05357267914669883,0.05357267914669883
87.08600000000001,0.03948130925423765,-0.03948130925423765
87.087,0.12770170538541759,-0.12770170538541759
87.08800000000001,0.1947617524618298,-0.1947617524618298
87.08900000000001,0.23125256016091789,-0.23125256016091789
87.09,0.23611398204755263,-0.23611398204755263
87.09100000000001,0.21522103085185773,-0.21522103085185773
87.09200000000001,0.1778473226681715,-0.1778473226681715
87.093,0.1324736498940421,-0.1324736498940421
87.09400000000001,0.08361274527771212,-0.08361274527771212
87.09500000000001,0.030899602023357287,-0.030899602023357287
87.096,0.02920467822195083,0.02920467822195083
87.09700000000001,0.09980394400635761,0.09980394400635761
87.09800000000001,0.17958086605755796,0.17958086605755796
87.099,0.26022525120653284,0.26022525120653284
87.10000000000001,0.3266495751303089,0.3266495751303089
87.10100000000001,0.360382178711931,0.360382178711931
87.102,0.3453151041924878,0.3453151041924878
87.10300000000001,0.27397381486222816,0.27397381486222816
87.10400000000001,0.15205534245325958,0.15205534245325958
87.105,0.000655334444224609,-0.000655334444224609
87.10600000000001,0.153808066526533,-0.153808066526533
87.10700000000001,0.273814995610295,-0.273814995610295
87.108,0.33299972483899665,-0.33299972483899665
87.10900000000001,0.3178124604476509,-0.3178124604476509
87.11000000000001,0.2334560047687506,-0.2334560047687506
87.111,0.1032541052411654,-0.1032541052411654
87.11200000000001,0.03732155289770955,0.03732155289770955
87.113,0.15036729544761185,0.15036729544761185
87.114,0.206179035314348,0.206179035314348
87.11500000000001,0.1916121973837499,0.1916121973837499
87.116,0.11362941299693907,0.11362941299693907
87.117,0.003043205809510341,-0.003043205809510341
87.11800000000001,0.12341703167568752,-0.12341703167568752
87.119,0.21258188793870214,-0.21258188793870214
87.12,0.24572600456773575,-0.24572600456773575
87.12100000000001,0.2148357789121419,-0.2148357789121419
87.122,0.13017918066469492,-0.13017918066469492
87.123,0.01634914853621139,-0.01634914853621139
87.12400000000001,0.09566693280850025,0.09566693280850025
87.125,0.17776481698346114,0.17776481698346114
87.126,0.21244723181194902,0.21244723181194902
87.12700000000001,0.19675979223225482,0.19675979223225482
87.128,0.14155146787575745,0.14155146787575745
87.129,0.06672108488818207,0.06672108488818207
87.13000000000001,0.005662706832624709,-0.005662706832624709
87.131,0.05796936731735913,-0.05796936731735913
87.132,0.08127519096860847,-0.08127519096860847
87.13300000000001,0.07623007221825717,-0.07623007221825717
87.134,0.05074064938109346,-0.05074064938109346
87.135,0.015773270989743127,-0.015773270989743127
87.13600000000001,0.01890751690419057,0.01890751690419057
87.137,0.047458182348722344,0.047458182348722344
87.138,0.06833040355032227,0.06833040355032227
87.13900000000001,0.08255254181425964,0.08255254181425964
87.14,0.09104998821966492,0.09104998821966492
87.141,0.09249447776191722,0.09249447776191722
87.14200000000001,0.08287745563996607,0.08287745563996607
87.143,0.057182795221653704,0.057182795221653704
87.144,0.01252878414289671,0.01252878414289671
87.14500000000001,0.04862386033198707,-0.04862386033198707
87.146,0.11680873863834829,-0.11680873863834829
87.147,0.17657187441962408,-0.17657187441962408
87.14800000000001,0.21030449795900752,-0.21030449795900752
87.149,0.20386233916712015,-0.20386233916712015
87.15,0.15207683660194582,-0.15207683660194582
87.15100000000001,0.06205637315898416,-0.06205637315898416
87.152,0.047241295658231985,0.047241295658231985
87.153,0.14947330246747925,0.14947330246747925
87.15400000000001,0.2182905042514851,0.2182905042514851
87.155,0.23537383875540385,0.23537383875540385
87.156,0.19646491345247719,0.19646491345247719
87.15700000000001,0.1132401491166748,0.1132401491166748
87.158,0.010175988072814501,0.010175988072814501
87.159,0.08278510372140857,-0.08278510372140857
87.16000000000001,0.13950093129539498,-0.13950093129539498
87.161,0.14582724402051417,-0.14582724402051417
87.162,0.10401607320894535,-0.10401607320894535
87.16300000000001,0.03179570829288725,-0.03179570829288725
87.164,0.04362716070255512,0.04362716070255512
87.165,0.09468925396725525,0.09468925396725525
87.16600000000001,0.10268594244117701,0.10268594244117701
87.167,0.06398985858036887,0.06398985858036887
87.168,0.008825430517347965,-0.008825430517347965
87.16900000000001,0.09134063399704573,-0.09134063399704573
87.17,0.1556532082957317,-0.1556532082957317
87.171,0.17991331575123803,-0.17991331575123803
87.17200000000001,0.15579903749637436,-0.15579903749637436
87.173,0.09139685870206637,-0.09139685870206637
87.174,0.008515267021229511,-0.008515267021229511
87.17500000000001,0.06465218551264029,0.06465218551264029
87.176,0.10302837559531275,0.10302837559531275
87.177,0.09311515120993907,0.09311515120993907
87.17800000000001,0.03758579301988374,0.03758579301988374
87.179,0.04549870535509082,-0.04549870535509082
87.18,0.12853932243804,-0.12853932243804
87.18100000000001,0.18331980121463065,-0.18331980121463065
87.182,0.1900188608501565,-0.1900188608501565
87.183,0.14336815939044412,-0.14336815939044412
87.18400000000001,0.05402826774635172,-0.05402826774635172
87.185,0.05511260159677467,0.05511260159677467
87.186,0.156334226583575,0.156334226583575
87.18700000000001,0.22563530476329707,0.22563530476329707
87.188,0.2496375072565007,0.2496375072565007
87.18900000000001,0.22872342553368652,0.22872342553368652
87.19000000000001,0.17564560557324116,0.17564560557324116
87.191,0.1103818309453688,0.1103818309453688
87.19200000000001,0.053199051932983465,0.053199051932983465
87.19300000000001,0.018338907363358192,0.018338907363358192
87.194,0.010340155935406825,0.010340155935406825
87.19500000000001,0.023956852360759395,0.023956852360759395
87.19600000000001,0.0473248486768838,0.0473248486768838
87.197,0.06694642953301799,0.06694642953301799
87.19800000000001,0.0725695003045943,0.0725695003045943
87.19900000000001,0.060267034394656305,0.060267034394656305
87.2,0.03283954304575265,0.03283954304575265
87.20100000000001,0.002271626748770128,-0.002271626748770128
87.20200000000001,0.036468833460167493,-0.036468833460167493
87.203,0.06337183767856469,-0.06337183767856469
87.20400000000001,0.08076440651020089,-0.08076440651020089
87.20500000000001,0.09048608730169239,-0.09048608730169239
87.206,0.09652915192671696,-0.09652915192671696
87.20700000000001,0.10232882374250518,-0.10232882374250518
87.20800000000001,0.10852263629617431,-0.10852263629617431
87.209,0.1122049844877755,-0.1122049844877755
87.21000000000001,0.1080337690019848,-0.1080337690019848
87.21100000000001,0.0907387539882768,-0.0907387539882768
87.212,0.057966103642074995,-0.057966103642074995
87.21300000000001,0.0122190006983659,-0.0122190006983659
87.21400000000001,0.03900972113787882,0.03900972113787882
87.215,0.08510454995133121,0.08510454995133121
87.21600000000001,0.11558061876180648,0.11558061876180648
87.21700000000001,0.12353410782877261,0.12353410782877261
87.218,0.10798526874596903,0.10798526874596903
87.21900000000001,0.07420651779995335,0.07420651779995335
87.22000000000001,0.031886812601190195,0.031886812601190195
87.221,0.008189685685415005,-0.008189685685415005
87.22200000000001,0.037701149820331015,-0.037701149820331015
87.22300000000001,0.05324256061355903,-0.05324256061355903
87.224,0.05677011861619796,-0.05677011861619796
87.22500000000001,0.05391920550693752,-0.05391920550693752
87.22600000000001,0.05092237085759965,-0.05092237085759965
87.227,0.05141795740107813,-0.05141795740107813
87.22800000000001,0.054498232379610045,-0.054498232379610045
87.22900000000001,0.05486516715421663,-0.05486516715421663
87.23,0.04511968970910318,-0.04511968970910318
87.23100000000001,0.01932942302046181,-0.01932942302046181
87.23200000000001,0.023552854471881046,0.023552854471881046
87.233,0.07787629595976853,0.07787629595976853
87.23400000000001,0.131993245522259,0.131993245522259
87.23500000000001,0.17144964184633915,0.17144964184633915
87.236,0.18366513037691146,0.18366513037691146
87.23700000000001,0.16246099064572372,0.16246099064572372
87.238,0.11074254721198518,0.11074254721198518
87.239,0.0402263680001298,0.0402263680001298
87.24000000000001,0.03187229747997744,-0.03187229747997744
87.241,0.08817470546274653,-0.08817470546274653
87.242,0.1167056487654693,-0.1167056487654693
87.24300000000001,0.11475072508449491,-0.11475072508449491
87.244,0.0896076997379901,-0.0896076997379901
87.245,0.05589801480826284,-0.05589801480826284
87.24600000000001,0.030311908293274237,-0.030311908293274237
87.247,0.02558224436305001,-0.02558224436305001
87.248,0.04578350961831712,-0.04578350961831712
87.24900000000001,0.08461786589523734,-0.08461786589523734
87.25,0.12732664413767347,-0.12732664413767347
87.251,0.1556114383110072,-0.1556114383110072
87.25200000000001,0.15390539884797227,-0.15390539884797227
87.253,0.11486871406838117,-0.11486871406838117
87.254,0.04225292648837309,-0.04225292648837309
87.25500000000001,0.049814954858927285,0.049814954858927285
87.256,0.14086032019233263,0.14086032019233263
87.257,0.21003333355701503,0.21003333355701503
87.25800000000001,0.24205553117266132,0.24205553117266132
87.259,0.23125771518376803,0.23125771518376803
87.26,0.18254799163035895,0.18254799163035895
87.26100000000001,0.10922666901891476,0.10922666901891476
87.262,0.028604887519212197,0.028604887519212197
87.263,0.042976650743209444,-0.042976650743209444
87.26400000000001,0.09409490698054324,-0.09409490698054324
87.265,0.12006048463370034,-0.12006048463370034
87.266,0.12237953260768242,-0.12237953260768242
87.26700000000001,0.10650229688868329,-0.10650229688868329
87.268,0.07902780667475462,-0.07902780667475462
87.269,0.04555126777144114,-0.04555126777144114
87.27000000000001,0.009878798731224436,-0.009878798731224436
87.271,0.025385147800915497,0.025385147800915497
87.272,0.057532381056374815,0.057532381056374815
87.27300000000001,0.08270142192996754,0.08270142192996754
87.274,0.09590340236614159,0.09590340236614159
87.275,0.0923856501945588,0.0923856501945588
87.27600000000001,0.06987917664496268,0.06987917664496268
87.277,0.030720635806543717,0.030720635806543717
87.278,0.017294030679618544,-0.017294030679618544
87.27900000000001,0.062084763115942354,-0.062084763115942354
87.28,0.090475247575862,-0.090475247575862
87.281,0.09250284207058057,-0.09250284207058057
87.28200000000001,0.06534699351133999,-0.06534699351133999
87.283,0.015301062867844273,-0.015301062867844273
87.284,0.04323518657658498,0.04323518657658498
87.28500000000001,0.09174953944713593,0.09174953944713593
87.286,0.1134816173501465,0.1134816173501465
87.287,0.09923501602475415,0.09923501602475415
87.28800000000001,0.051058250876079736,0.051058250876079736
87.289,0.017682815830457943,-0.017682815830457943
87.29,0.0861290347612641,-0.0861290347612641
87.29100000000001,0.13256052063394752,-0.13256052063394752
87.292,0.14168084205604692,-0.14168084205604692
87.293,0.11004176868838156,-0.11004176868838156
87.29400000000001,0.04762442350153151,-0.04762442350153151
87.295,0.025145900536901467,0.025145900536901467
87.296,0.0840977997033403,0.0840977997033403
87.29700000000001,0.10953118174580623,0.10953118174580623
87.298,0.09314405366971035,0.09314405366971035
87.299,0.04121144925821674,0.04121144925821674
87.30000000000001,0.027211022252578987,-0.027211022252578987
87.301,0.08658730196354836,-0.08658730196354836
87.302,0.11364987334666932,-0.11364987334666932
87.30300000000001,0.09563548513675768,-0.09563548513675768
87.304,0.03514810282320868,-0.03514810282320868
87.305,0.05011221508973884,0.05011221508973884
87.30600000000001,0.13278630051960616,0.13278630051960616
87.307,0.18472081678719188,0.18472081678719188
87.308,0.18632644572072898,0.18632644572072898
87.30900000000001,0.1332905309308714,0.1332905309308714
87.31,0.038371888373209595,0.038371888373209595
87.311,0.07235082336548304,-0.07235082336548304
87.31200000000001,0.16754823227489724,-0.16754823227489724
87.313,0.22036328871753208,-0.22036328871753208
87.31400000000001,0.2166008713094406,-0.2166008713094406
87.31500000000001,0.15875370878209039,-0.15875370878209039
87.316,0.06466731853181218,-0.06466731853181218
87.31700000000001,0.03854903122851128,0.03854903122851128
87.31800000000001,0.12320692675947997,0.12320692675947997
87.319,0.16938627291767716,0.16938627291767716
87.32000000000001,0.17025839203710103,0.17025839203710103
87.32100000000001,0.1328447398846786,0.1328447398846786
87.322,0.07429107527428513,0.07429107527428513
87.32300000000001,0.015248340107675284,0.015248340107675284
87.32400000000001,0.02716888960001207,-0.02716888960001207
87.325,0.04440895588561422,-0.04440895588561422
87.32600000000001,0.037949330687219396,-0.037949330687219396
87.32700000000001,0.017047370139497198,-0.017047370139497198
87.328,0.006018309127932442,0.006018309127932442
87.32900000000001,0.02117472778164675,0.02117472778164675
87.33000000000001,0.02418562815560077,0.02418562815560077
87.331,0.01738652383072825,0.01738652383072825
87.33200000000001,0.007454902071554859,0.007454902071554859
87.33300000000001,0.0013579345532745979,0.0013579345532745979
87.334,0.0023411098405914377,0.0023411098405914377
87.33500000000001,0.0077774876314988806,0.0077774876314988806
87.33600000000001,0.009911653576240909,0.009911653576240909
87.337,0.0006849648628830529,-0.0006849648628830529
87.33800000000001,0.030301142986506435,-0.030301142986506435
87.33900000000001,0.07792700471287972,-0.07792700471287972
87.34,0.13363264319175194,-0.13363264319175194
87.34100000000001,0.18047696137920444,-0.18047696137920444
87.34200000000001,0.19960447451255658,-0.19960447451255658
87.343,0.1769052986280656,-0.1769052986280656
87.34400000000001,0.1088759239168463,-0.1088759239168463
87.34500000000001,0.00542892335823042,-0.00542892335823042
87.346,0.11164492626469769,0.11164492626469769
87.34700000000001,0.21437488967107798,0.21437488967107798
87.34800000000001,0.27679007339608397,0.27679007339608397
87.349,0.2829419028414957,0.2829419028414957
87.35000000000001,0.2320645592382209,0.2320645592382209
87.35100000000001,0.13904843100099074,0.13904843100099074
87.352,0.029942594125136335,0.029942594125136335
87.35300000000001,0.06612007375802442,-0.06612007375802442
87.35400000000001,0.1259494158160731,-0.1259494158160731
87.355,0.13929841621574957,-0.13929841621574957
87.35600000000001,0.11152057575252183,-0.11152057575252183
87.35700000000001,0.061022633685751226,-0.061022633685751226
87.358,0.012405858936484604,-0.012405858936484604
87.35900000000001,0.012356952575318658,0.012356952575318658
87.36000000000001,0.001706140810211032,0.001706140810211032
87.361,0.041395737284371514,-0.041395737284371514
87.36200000000001,0.10040980741535332,-0.10040980741535332
87.363,0.15088398438893436,-0.15088398438893436
87.364,0.16890555269613794,-0.16890555269613794
87.36500000000001,0.13948999942390372,-0.13948999942390372
87.366,0.06209654770320927,-0.06209654770320927
87.367,0.04855490996437961,0.04855490996437961
87.36800000000001,0.16661246200153967,0.16661246200153967
87.369,0.2627814878177688,0.2627814878177688
87.37,0.3130509027634103,0.3130509027634103
87.37100000000001,0.3056543089668877,0.3056543089668877
87.372,0.24411464738891908,0.24411464738891908
87.373,0.14555548515592887,0.14555548515592887
87.37400000000001,0.03501468071231639,0.03501468071231639
87.375,0.06225514478399663,-0.06225514478399663
87.376,0.12797027244087045,-0.12797027244087045
87.37700000000001,0.1552623509872757,-0.1552623509872757
87.378,0.14918350879103792,-0.14918350879103792
87.379,0.12341964455419152,-0.12341964455419152
87.38000000000001,0.09458503160331,-0.09458503160331
87.381,0.07616646147288597,-0.07616646147288597
87.382,0.07415211771489538,-0.07415211771489538
87.38300000000001,0.08567481892141715,-0.08567481892141715
87.384,0.1008987268125704,-0.1008987268125704
87.385,0.10727573967501736,-0.10727573967501736
87.38600000000001,0.09456079301341791,-0.09456079301341791
87.387,0.05882527283867234,-0.05882527283867234
87.388,0.004153969193380513,-0.004153969193380513
87.38900000000001,0.058437477847205654,0.058437477847205654
87.39,0.11438304837849733,0.11438304837849733
87.391,0.1500444197489217,0.1500444197489217
87.39200000000001,0.15681149787801085,0.15681149787801085
87.393,0.13357137551155085,0.13357137551155085
87.394,0.086892283073436,0.086892283073436
87.39500000000001,0.029019098143802102,0.029019098143802102
87.396,0.025578610896115794,-0.025578610896115794
87.397,0.06401790230349802,-0.06401790230349802
87.39800000000001,0.0781065116402766,-0.0781065116402766
87.399,0.06600505501466392,-0.06600505501466392
87.4,0.032205087737687266,-0.032205087737687266
87.40100000000001,0.01394473751982983,0.01394473751982983
87.402,0.060615415886576374,0.060615415886576374
87.403,0.09612908313835233,0.09612908313835233
87.40400000000001,0.11128890556775595,0.11128890556775595
87.405,0.10104825298950604,0.10104825298950604
87.406,0.0653642687350442,0.0653642687350442
87.40700000000001,0.00922423076843204,0.00922423076843204
87.408,0.05809904302819402,-0.05809904302819402
87.409,0.12448020864134246,-0.12448020864134246
87.41000000000001,0.176941629462253,-0.176941629462253
87.411,0.20401093138530868,-0.20401093138530868
87.412,0.1980925859943029,-0.1980925859943029
87.41300000000001,0.15738440364329476,-0.15738440364329476
87.414,0.08682931110282177,-0.08682931110282177
87.415,0.002297008346398899,0.002297008346398899
87.41600000000001,0.09428549912496509,0.09428549912496509
87.417,0.1721138044641226,0.1721138044641226
87.418,0.2211325736940799,0.2211325736940799
87.41900000000001,0.23241378467282914,0.23241378467282914
87.42,0.20485455855710488,0.20485455855710488
87.421,0.14540967936614702,0.14540967936614702
87.42200000000001,0.06732569474957995,0.06732569474957995
87.423,0.013176714650163568,-0.013176714650163568
87.424,0.08086115598578869,-0.08086115598578869
87.42500000000001,0.12496747072149561,-0.12496747072149561
87.426,0.1412766226877019,-0.1412766226877019
87.427,0.1322386050804809,-0.1322386050804809
87.42800000000001,0.10526399416665133,-0.10526399416665133
87.429,0.06984819145618149,-0.06984819145618149
87.43,0.03453310263490039,-0.03453310263490039
87.43100000000001,0.0047019949412501205,-0.0047019949412501205
87.432,0.01814337268998245,0.01814337268998245
87.433,0.03553363960093514,0.03553363960093514
87.43400000000001,0.050093725429203095,0.050093725429203095
87.435,0.0633810018468497,0.0633810018468497
87.436,0.0744216459132625,0.0744216459132625
87.43700000000001,0.07957940148282061,0.07957940148282061
87.438,0.07386444956515303,0.07386444956515303
87.43900000000001,0.05321678428609711,0.05321678428609711
87.44000000000001,0.016888695397555997,0.016888695397555997
87.441,0.031042181194343876,-0.031042181194343876
87.44200000000001,0.08173356666943543,-0.08173356666943543
87.44300000000001,0.12338295603419691,-0.12338295603419691
87.444,0.14432632549597568,-0.14432632549597568
87.44500000000001,0.1364954572342546,-0.1364954572342546
87.44600000000001,0.0981194563219846,-0.0981194563219846
87.447,0.034753763499270285,-0.034753763499270285
87.44800000000001,0.04176691619668316,0.04176691619668316
87.44900000000001,0.11619721964172514,0.11619721964172514
87.45,0.1737344038348443,0.1737344038348443
87.45100000000001,0.2037081013123867,0.2037081013123867
87.45200000000001,0.2020207118512909,0.2020207118512909
87.453,0.1716644834350205,0.1716644834350205
87.45400000000001,0.12126134081984308,0.12126134081984308
87.45500000000001,0.06219058411130307,0.06219058411130307
87.456,0.005283082038727516,0.005283082038727516
87.45700000000001,0.041862353673015384,-0.041862353673015384
87.45800000000001,0.07615842787103333,-0.07615842787103333
87.459,0.09864274676762874,-0.09864274676762874
87.46000000000001,0.11274496672520873,-0.11274496672520873
87.46100000000001,0.12197085897382809,-0.12197085897382809
87.462,0.1279244356771131,-0.1279244356771131
87.46300000000001,0.12941707961586857,-0.12941707961586857
87.46400000000001,0.12298011769529649,-0.12298011769529649
87.465,0.10456240988220922,-0.10456240988220922
87.46600000000001,0.07174708783855688,-0.07174708783855688
87.46700000000001,0.025617476124534244,-0.025617476124534244
87.468,0.02848928192933431,0.02848928192933431
87.46900000000001,0.08172084015040437,0.08172084015040437
87.47000000000001,0.12379898373397058,0.12379898373397058
87.471,0.14583675691696363,0.14583675691696363
87.47200000000001,0.1429843932029906,0.1429843932029906
87.47300000000001,0.11602924038089135,0.11602924038089135
87.474,0.07139276842981279,0.07139276842981279
87.47500000000001,0.01947464083467354,0.01947464083467354
87.47600000000001,0.0281773295832054,-0.0281773295832054
87.477,0.06201520445364894,-0.06201520445364894
87.47800000000001,0.07699774823965333,-0.07699774823965333
87.47900000000001,0.07370052711186004,-0.07370052711186004
87.48,0.057716632630130826,-0.057716632630130826
87.48100000000001,0.037573392558709506,-0.037573392558709506
87.48200000000001,0.021850380388222734,-0.021850380388222734
87.483,0.0164199818818781,-0.0164199818818781
87.48400000000001,0.022671635050446448,-0.022671635050446448
87.48500000000001,0.03724853818899032,-0.03724853818899032
87.486,0.05333197897208941,-0.05333197897208941
87.48700000000001,0.0630144489982205,-0.0630144489982205
87.488,0.05996701946219907,-0.05996701946219907
87.489,0.04153432913186583,-0.04153432913186583
87.49000000000001,0.00960051162999953,-0.00960051162999953
87.491,0.03001183723923151,0.03001183723923151
87.492,0.06936054144941406,0.06936054144941406
87.49300000000001,0.1007777871181903,0.1007777871181903
87.494,0.11902556025682376,0.11902556025682376
87.495,0.12250607153306725,0.12250607153306725
87.49600000000001,0.11316744502973375,0.11316744502973375
87.497,0.0952123901563966,0.0952123901563966
87.498,0.07314462968392399,0.07314462968392399
87.49900000000001,0.04992510408884998,0.04992510408884998
87.5,0.02597048847423955,0.02597048847423955
87.501,0.0005828486450549786,-0.0005828486450549786
87.50200000000001,0.03240445821267479,-0.03240445821267479
87.503,0.07082253439300445,-0.07082253439300445
87.504,0.11385454230145353,-0.11385454230145353
87.50500000000001,0.1552869827948069,-0.1552869827948069
87.506,0.18537497889356003,-0.18537497889356003
87.507,0.19319318533997343,-0.19319318533997343
87.50800000000001,0.17006297650194901,-0.17006297650194901
87.509,0.11301404485278643,-0.11301404485278643
87.51,0.027085886235838852,-0.027085886235838852
87.51100000000001,0.07448365295810078,0.07448365295810078
87.512,0.1725471959169924,0.1725471959169924
87.513,0.24641144590986785,0.24641144590986785
87.51400000000001,0.279167526901831,0.279167526901831
87.515,0.2624726925980583,0.2624726925980583
87.516,0.19931319046527363,0.19931319046527363
87.51700000000001,0.10379146345016355,0.10379146345016355
87.518,0.002173370522119633,-0.002173370522119633
87.519,0.09441590952778967,-0.09441590952778967
87.52000000000001,0.15283195984932052,-0.15283195984932052
87.521,0.1666166042257422,-0.1666166042257422
87.522,0.13690159588594808,-0.13690159588594808
87.52300000000001,0.07601496667283458,-0.07601496667283458
87.524,0.0035939217171467863,-0.0035939217171467863
87.525,0.059267975327945255,0.059267975327945255
87.52600000000001,0.09606729813889814,0.09606729813889814
87.527,0.0993176857527307,0.0993176857527307
87.528,0.07206925229395611,0.07206925229395611
87.52900000000001,0.026158503521847454,0.026158503521847454
87.53,0.02214316430506591,-0.02214316430506591
87.531,0.05761161903610079,-0.05761161903610079
87.53200000000001,0.07089422064441253,-0.07089422064441253
87.533,0.06115286842945067,-0.06115286842945067
87.534,0.03575722645291324,-0.03575722645291324
87.53500000000001,0.007248628405037039,-0.007248628405037039
87.536,0.011311484232081837,0.011311484232081837
87.537,0.010992121458869075,0.010992121458869075
87.53800000000001,0.009925422546967044,-0.009925422546967044
87.539,0.04542899937605693,-0.04542899937605693
87.54,0.08392088010319032,-0.08392088010319032
87.54100000000001,0.11222207561292852,-0.11222207561292852
87.542,0.12002225599203009,-0.12002225599203009
87.543,0.10325120039445623,-0.10325120039445623
87.54400000000001,0.06526169188151743,-0.06526169188151743
87.545,0.015497504519976668,-0.015497504519976668
87.546,0.03380622459191418,0.03380622459191418
87.54700000000001,0.0716847796536475,0.0716847796536475
87.548,0.09184341338026658,0.09184341338026658
87.549,0.09425551700557189,0.09425551700557189
87.55000000000001,0.08449575484532712,0.08449575484532712
87.551,0.07116085456149768,0.07116085456149768
87.552,0.062394251495264674,0.062394251495264674
87.55300000000001,0.06280900056469307,0.06280900056469307
87.554,0.07190727870656399,0.07190727870656399
87.555,0.08450826116113008,0.08450826116113008
87.55600000000001,0.09294249215750239,0.09294249215750239
87.557,0.09012936224310808,0.09012936224310808
87.558,0.07235737754921723,0.07235737754921723
87.55900000000001,0.04073572657592739,0.04073572657592739
87.56,0.0008148506933882693,0.0008148506933882693
87.561,0.039422143955569866,-0.039422143955569866
87.56200000000001,0.07238385731332742,-0.07238385731332742
87.563,0.09340760555436822,-0.09340760555436822
87.56400000000001,0.10204328510318983,-0.10204328510318983
87.56500000000001,0.10162555782479332,-0.10162555782479332
87.566,0.09735548865228016,-0.09735548865228016
87.56700000000001,0.09370216770356032,-0.09370216770356032
87.56800000000001,0.0922058272736368,-0.0922058272736368
87.569,0.09060982121426508,-0.09060982121426508
87.57000000000001,0.08372571102231896,-0.08372571102231896
87.57100000000001,0.065742488673737,-0.065742488673737
87.572,0.03309481890886723,-0.03309481890886723
87.57300000000001,0.013259723205294005,0.013259723205294005
87.57400000000001,0.0671269616164385,0.0671269616164385
87.575,0.11833514213467655,0.11833514213467655
87.57600000000001,0.15563236767932942,0.15563236767932942
87.57700000000001,0.17024434653161813,0.17024434653161813
87.578,0.15881911722534303,0.15881911722534303
87.57900000000001,0.12466152831959842,0.12466152831959842
87.58000000000001,0.07675490990873102,0.07675490990873102
87.581,0.02686798257109313,0.02686798257109313
87.58200000000001,0.014244280446788715,-0.014244280446788715
87.58300000000001,0.04018593374365065,-0.04018593374365065
87.584,0.05060081195801347,-0.05060081195801347
87.58500000000001,0.05058379841149696,-0.05058379841149696
87.58600000000001,0.04806292067804019,-0.04806292067804019
87.587,0.0501646372850727,-0.0501646372850727
87.58800000000001,0.05998000470990017,-0.05998000470990017
87.58900000000001,0.07502455748694181,-0.07502455748694181
87.59,0.08806132392745336,-0.08806132392745336
87.59100000000001,0.09005491295445833,-0.09005491295445833
87.59200000000001,0.07417738165963639,-0.07417738165963639
87.593,0.03931689150771933,-0.03931689150771933
87.59400000000001,0.008358919664521292,0.008358919664521292
87.59500000000001,0.05657476822510188,0.05657476822510188
87.596,0.090651205753006,0.090651205753006
87.59700000000001,0.0985628415099915,0.0985628415099915
87.59800000000001,0.07558350876826658,0.07558350876826658
87.599,0.026778383483871515,0.026778383483871515
87.60000000000001,0.033731278455688796,-0.033731278455688796
87.60100000000001,0.08671399406899771,-0.08671399406899771
87.602,0.11382574785200705,-0.11382574785200705
87.60300000000001,0.10371482525136866,-0.10371482525136866
87.60400000000001,0.056152894866895675,-0.056152894866895675
87.605,0.017302738936290085,0.017302738936290085
87.60600000000001,0.09648412759045355,0.09648412759045355
87.60700000000001,0.1587025464738414,0.1587025464738414
87.608,0.18581974597937467,0.18581974597937467
87.60900000000001,0.16999164734156258,0.16999164734156258
87.61000000000001,0.11617756545314095,0.11617756545314095
87.611,0.04056208204348777,0.04056208204348777
87.61200000000001,0.03460974592710897,-0.03460974592710897
87.613,0.08808946543113116,-0.08808946543113116
87.614,0.10625407799813424,-0.10625407799813424
87.61500000000001,0.08714194770377004,-0.08714194770377004
87.616,0.0406150289295063,-0.0406150289295063
87.617,0.015324787721255229,0.015324787721255229
87.61800000000001,0.060752583947712546,0.060752583947712546
87.619,0.08043444005399047,0.08043444005399047
87.62,0.06861611903547105,0.06861611903547105
87.62100000000001,0.030434747468242485,0.030434747468242485
87.622,0.020410966881804105,-0.020410966881804105
87.623,0.06680843247431589,-0.06680843247431589
87.62400000000001,0.09432921094662838,-0.09432921094662838
87.625,0.09612947591047682,-0.09612947591047682
87.626,0.07497387018952484,-0.07497387018952484
87.62700000000001,0.041746847950511645,-0.041746847950511645
87.628,0.011061686984199515,-0.011061686984199515
87.629,0.004409471808935361,0.004409471808935361
87.63000000000001,0.0011704021239326012,-0.0011704021239326012
87.631,0.02444818283542849,-0.02444818283542849
87.632,0.053922126653794034,-0.053922126653794034
87.63300000000001,0.07403965612391816,-0.07403965612391816
87.634,0.07093709721883235,-0.07093709721883235
87.635,0.03782524816524424,-0.03782524816524424
87.63600000000001,0.02187083729102146,0.02187083729102146
87.637,0.09476114849891237,0.09476114849891237
87.638,0.16114004250150393,0.16114004250150393
87.63900000000001,0.2009143120217196,0.2009143120217196
87.64,0.19993267885212207,0.19993267885212207
87.641,0.15470183872610876,0.15470183872610876
87.64200000000001,0.07398711919209378,0.07398711919209378
87.643,0.023222317726484976,-0.023222317726484976
87.644,0.11278011003666433,-0.11278011003666433
87.64500000000001,0.1719714946993437,-0.1719714946993437
87.646,0.1856996678747943,-0.1856996678747943
87.647,0.15052530736336478,-0.15052530736336478
87.64800000000001,0.07550175549739702,-0.07550175549739702
87.649,0.020297597274698154,0.020297597274698154
87.65,0.11274524821331111,0.11274524821331111
87.65100000000001,0.17868852394305934,0.17868852394305934
87.652,0.2014464035951704,0.2014464035951704
87.653,0.17446300994475794,0.17446300994475794
87.65400000000001,0.10240411057910803,0.10240411057910803
87.655,0.00031445198089452564,-0.00031445198089452564
87.656,0.11297668447987708,-0.11297668447987708
87.65700000000001,0.21304704490447368,-0.21304704490447368
87.658,0.280662168579088,-0.280662168579088
87.659,0.30228013822663546,-0.30228013822663546
87.66000000000001,0.2729343638880384,-0.2729343638880384
87.661,0.1968647152323656,-0.1968647152323656
87.662,0.08657259034772191,-0.08657259034772191
87.66300000000001,0.03945707288636746,0.03945707288636746
87.664,0.15999009484336413,0.15999009484336413
87.665,0.25475596357117714,0.25475596357117714
87.66600000000001,0.3080782701079525,0.3080782701079525
87.667,0.31181172481697095,0.31181172481697095
87.668,0.26700130567691094,0.26700130567691094
87.66900000000001,0.18382816528048895,0.18382816528048895
87.67,0.07969673797434429,0.07969673797434429
87.671,0.024285828977474666,-0.024285828977474666
87.67200000000001,0.10777256213860198,-0.10777256213860198
87.673,0.1556076194929178,-0.1556076194929178
87.674,0.16116293705892681,-0.16116293705892681
87.67500000000001,0.1277133637879958,-0.1277133637879958
87.676,0.06743971029308393,-0.06743971029308393
87.677,0.0017428755085937553,0.0017428755085937553
87.67800000000001,0.06074456811403062,0.06074456811403062
87.679,0.09406937873294785,0.09406937873294785
87.68,0.09354432677390179,0.09354432677390179
87.68100000000001,0.06004665846628199,0.06004665846628199
87.682,0.002827971069520485,0.002827971069520485
87.683,0.06329447932071486,-0.06329447932071486
87.68400000000001,0.12202851204046594,-0.12202851204046594
87.685,0.1598108786598167,-0.1598108786598167
87.686,0.16898690222567003,-0.16898690222567003
87.68700000000001,0.14918682832394548,-0.14918682832394548
87.688,0.10668174605787872,-0.10668174605787872
87.68900000000001,0.0520873614844648,-0.0520873614844648
87.69000000000001,0.002784521778071536,0.002784521778071536
87.691,0.047967479470915064,0.047967479470915064
87.69200000000001,0.07745335192889957,0.07745335192889957
87.69300000000001,0.08992071443427885,0.08992071443427885
87.694,0.08808253911458364,0.08808253911458364
87.69500000000001,0.07705923479138277,0.07705923479138277
87.69600000000001,0.06241195612707573,0.06241195612707573
87.697,0.04847662508127426,0.04847662508127426
87.69800000000001,0.03744843316191648,0.03744843316191648
87.69900000000001,0.029365182574448312,0.029365182574448312
87.7,0.02283474754198256,0.02283474754198256
87.70100000000001,0.016141428551028847,0.016141428551028847
87.70200000000001,0.00829916387321572,0.00829916387321572
87.703,0.00030527691274584434,-0.00030527691274584434
87.70400000000001,0.007864031918126013,-0.007864031918126013
87.70500000000001,0.011677304421677914,-0.011677304421677914
87.706,0.009071989608754882,-0.009071989608754882
87.70700000000001,0.0015763628244613859,0.0015763628244613859
87.70800000000001,0.020018659259627647,0.020018659259627647
87.709,0.043747100044574605,0.043747100044574605
87.71000000000001,0.06818659697777929,0.06818659697777929
87.71100000000001,0.08747083356869423,0.08747083356869423
87.712,0.09567981233327694,0.09567981233327694
87.71300000000001,0.08829910055854717,0.08829910055854717
87.71400000000001,0.06357688233894554,0.06357688233894554
87.715,0.023425001219946395,0.023425001219946395
87.71600000000001,0.02644340632112141,-0.02644340632112141
87.71700000000001,0.07731154622396674,-0.07731154622396674
87.718,0.11914839368605135,-0.11914839368605135
87.71900000000001,0.1428913642784252,-0.1428913642784252
87.72000000000001,0.1427973165872748,-0.1427973165872748
87.721,0.11821967698970748,-0.11821967698970748
87.72200000000001,0.07422611525618295,-0.07422611525618295
87.72300000000001,0.020721873468848018,-0.020721873468848018
87.724,0.029855032140335247,0.029855032140335247
87.72500000000001,0.06575448494316194,0.06575448494316194
87.72600000000001,0.07918895385181712,0.07918895385181712
87.727,0.06867944832398298,0.06867944832398298
87.72800000000001,0.039671800225372866,0.039671800225372866
87.72900000000001,0.003086761859327547,0.003086761859327547
87.73,0.02790594793586687,-0.02790594793586687
87.73100000000001,0.042002122990895785,-0.042002122990895785
87.73200000000001,0.03351416032251442,-0.03351416032251442
87.733,0.004521457616774138,-0.004521457616774138
87.73400000000001,0.03539248013132368,0.03539248013132368
87.73500000000001,0.07189997560713324,0.07189997560713324
87.736,0.09045582202749669,0.09045582202749669
87.73700000000001,0.08122692055483638,0.08122692055483638
87.738,0.042833747071046924,0.042833747071046924
87.739,0.0164048107849053,-0.0164048107849053
87.74000000000001,0.08029959905768091,-0.08029959905768091
87.741,0.12930280182372778,-0.12930280182372778
87.742,0.1464203010527999,-0.1464203010527999
87.74300000000001,0.12272013995658126,-0.12272013995658126
87.744,0.06067121078768056,-0.06067121078768056
87.745,0.02584244962273674,0.02584244962273674
87.74600000000001,0.1149797957336467,0.1149797957336467
87.747,0.18293327400233106,0.18293327400233106
87.748,0.21069218733967543,0.21069218733967543
87.74900000000001,0.18953988618859752,0.18953988618859752
87.75,0.12360662405323919,0.12360662405323919
87.751,0.028694544005344325,0.028694544005344325
87.75200000000001,0.07226198969510289,-0.07226198969510289
87.753,0.1557042781806709,-0.1557042781806709
87.754,0.2039391997751221,-0.2039391997751221
87.75500000000001,0.20966452879745479,-0.20966452879745479
87.756,0.1772331414728585,-0.1772331414728585
87.757,0.12040420092083992,-0.12040420092083992
87.75800000000001,0.05742804793660572,-0.05742804793660572
87.759,0.005112304876454199,-0.005112304876454199
87.76,0.026228466456275745,0.026228466456275745
87.76100000000001,0.03539389124470027,0.03539389124470027
87.762,0.029778519992263552,0.029778519992263552
87.763,0.02202974058220053,0.02202974058220053
87.76400000000001,0.02508728004591254,0.02508728004591254
87.765,0.0472763103338949,0.0472763103338949
87.766,0.08904365872606701,0.08904365872606701
87.76700000000001,0.1423455977695156,0.1423455977695156
87.768,0.19282458431120686,0.19282458431120686
87.769,0.22404065014385965,0.22404065014385965
87.77000000000001,0.22242343560287625,0.22242343560287625
87.771,0.1814520700458142,0.1814520700458142
87.772,0.10387070535834808,0.10387070535834808
87.77300000000001,0.0013810585561750965,0.0013810585561750965
87.774,0.10799910011381653,-0.10799910011381653
87.775,0.20409428867741897,-0.20409428867741897
87.77600000000001,0.26909257177727863,-0.26909257177727863
87.777,0.29129429304365917,-0.29129429304365917
87.778,0.26727449307408047,-0.26727449307408047
87.77900000000001,0.20213457910363208,-0.20213457910363208
87.78,0.10801221747328982,-0.10801221747328982
87.781,0.0013807204479768798,-0.0013807204479768798
87.78200000000001,0.10016824394868462,0.10016824394868462
87.783,0.18099550220559601,0.18099550220559601
87.784,0.2298374584230034,0.2298374584230034
87.78500000000001,0.24129063433506448,0.24129063433506448
87.786,0.21625906864254252,0.21625906864254252
87.787,0.16140870689367826,0.16140870689367826
87.78800000000001,0.08777130622772766,0.08777130622772766
87.789,0.00871849308795336,0.00871849308795336
87.79,0.06239643166684261,-0.06239643166684261
87.79100000000001,0.11455901782309719,-0.11455901782309719
87.792,0.1409673510349757,-0.1409673510349757
87.793,0.14008285821706656,-0.14008285821706656
87.79400000000001,0.11561415149779497,-0.11561415149779497
87.795,0.07541291345555678,-0.07541291345555678
87.796,0.02952567692820418,-0.02952567692820418
87.79700000000001,0.012127192339468351,0.012127192339468351
87.798,0.041864847121584114,0.041864847121584114
87.799,0.055629644237945586,0.055629644237945586
87.80000000000001,0.053338674048680756,0.053338674048680756
87.801,0.03821501994436294,0.03821501994436294
87.802,0.015414528204205746,0.015414528204205746
87.80300000000001,0.009549110639325287,-0.009549110639325287
87.804,0.03207409112884829,-0.03207409112884829
87.805,0.04910498328405233,-0.04910498328405233
87.80600000000001,0.05908759491177673,-0.05908759491177673
87.807,0.06147850490397633,-0.06147850490397633
87.808,0.05620112855242165,-0.05620112855242165
87.80900000000001,0.04341102241642869,-0.04341102241642869
87.81,0.023729476326593946,-0.023729476326593946
87.811,0.0011852423987321892,0.0011852423987321892
87.81200000000001,0.028104059763601752,0.028104059763601752
87.813,0.05218444914868492,0.05218444914868492
87.81400000000001,0.06772880268814241,0.06772880268814241
87.81500000000001,0.06972380288564684,0.06972380288564684
87.816,0.055748519167884814,0.055748519167884814
87.81700000000001,0.02755082153620214,0.02755082153620214
87.81800000000001,0.008448477050437608,-0.008448477050437608
87.819,0.04219811800269824,-0.04219811800269824
87.82000000000001,0.0625681112544868,-0.0625681112544868
87.82100000000001,0.06078493038953159,-0.06078493038953159
87.822,0.03368133590876099,-0.03368133590876099
87.82300000000001,0.014413493027561675,0.014413493027561675
87.82400000000001,0.07200085563409186,0.07200085563409186
87.825,0.12314119949213875,0.12314119949213875
87.82600000000001,0.1519492567022509,0.1519492567022509
87.82700000000001,0.14753718547802785,0.14753718547802785
87.828,0.10780209592902135,0.10780209592902135
87.82900000000001,0.04070615326140414,0.04070615326140414
87.83000000000001,0.037557998155565264,-0.037557998155565264
87.831,0.10711182135878261,-0.10711182135878261
87.83200000000001,0.1502991975585758,-0.1502991975585758
87.83300000000001,0.15707642721637138,-0.15707642721637138
87.834,0.12808455704106103,-0.12808455704106103
87.83500000000001,0.07431170653798458,-0.07431170653798458
87.83600000000001,0.01337004986385082,-0.01337004986385082
87.837,0.0364310699374546,0.0364310699374546
87.83800000000001,0.062239800999296824,0.062239800999296824
87.83900000000001,0.06092864849352453,0.06092864849352453
87.84,0.03994896083069044,0.03994896083069044
87.84100000000001,0.0143918375783465,0.0143918375783465
87.84200000000001,0.0011913169111015254,0.0011913169111015254
87.843,0.012442740018532294,0.012442740018532294
87.84400000000001,0.050194282320821015,0.050194282320821015
87.84500000000001,0.10464580019034297,0.10464580019034297
87.846,0.1565761536076522,0.1565761536076522
87.84700000000001,0.18338114624692325,0.18338114624692325
87.84800000000001,0.1668260774046082,0.1668260774046082
87.849,0.09994448597899175,0.09994448597899175
87.85000000000001,0.009304261218174625,-0.009304261218174625
87.85100000000001,0.13901054190643836,-0.13901054190643836
87.852,0.2588238827915391,-0.2588238827915391
87.85300000000001,0.3384023759108481,-0.3384023759108481
87.85400000000001,0.356211881662967,-0.356211881662967
87.855,0.30592525383487734,-0.30592525383487734
87.85600000000001,0.1984089529902453,-0.1984089529902453
87.85700000000001,0.05867749516793441,-0.05867749516793441
87.858,0.08121485332828238,0.08121485332828238
87.85900000000001,0.19111426053474712,0.19111426053474712
87.86000000000001,0.25078423058055144,0.25078423058055144
87.861,0.25461589025283726,0.25461589025283726
87.86200000000001,0.2117742793817643,0.2117742793817643
87.863,0.14201341042887483,0.14201341042887483
87.864,0.06874601796326951,0.06874601796326951
87.86500000000001,0.011729644341087253,0.011729644341087253
87.866,0.018303241415874805,-0.018303241415874805
87.867,0.021538566100950174,-0.021538566100950174
87.86800000000001,0.007217947559891469,-0.007217947559891469
87.869,0.010994012060292935,0.010994012060292935
87.87,0.020577774072747745,0.020577774072747745
87.87100000000001,0.01466159930258737,0.01466159930258737
87.872,0.006008046235550291,-0.006008046235550291
87.873,0.034089254704434135,-0.034089254704434135
87.87400000000001,0.059023631218155126,-0.059023631218155126
87.875,0.07133868841626445,-0.07133868841626445
87.876,0.06621345142410195,-0.06621345142410195
87.87700000000001,0.0450372364135162,-0.0450372364135162
87.878,0.014523488328860856,-0.014523488328860856
87.879,0.016114098516296416,0.016114098516296416
87.88000000000001,0.03871247302452607,0.03871247302452607
87.881,0.04901615270049842,0.04901615270049842
87.882,0.04776084810046877,0.04776084810046877
87.88300000000001,0.03964867798248428,0.03964867798248428
87.884,0.03073072225107243,0.03073072225107243
87.885,0.025341485940525654,0.025341485940525654
87.88600000000001,0.023898593069255236,0.023898593069255236
87.887,0.02252951165547712,0.02252951165547712
87.888,0.014752881304495258,0.014752881304495258
87.88900000000001,0.005393244284069509,-0.005393244284069509
87.89,0.040000569868180014,-0.040000569868180014
87.891,0.08510090911146484,-0.08510090911146484
87.89200000000001,0.13065429147736252,-0.13065429147736252
87.893,0.16296286001983795,-0.16296286001983795
87.894,0.16886293963090948,-0.16886293963090948
87.89500000000001,0.14034870887070372,-0.14034870887070372
87.896,0.07803541403910286,-0.07803541403910286
87.897,0.007824083323512143,0.007824083323512143
87.89800000000001,0.09929386298312703,0.09929386298312703
87.899,0.17524193617613149,0.17524193617613149
87.9,0.21708076598853787,0.21708076598853787
87.90100000000001,0.21404657932533344,0.21404657932533344
87.902,0.16641476189329474,0.16641476189329474
87.903,0.08566816675499345,0.08566816675499345
87.90400000000001,0.008443867187881038,-0.008443867187881038
87.905,0.09309390695673647,-0.09309390695673647
87.906,0.14831210344403611,-0.14831210344403611
87.90700000000001,0.16200237310382715,-0.16200237310382715
87.908,0.1327049950409327,-0.1327049950409327
87.909,0.0694739140434717,-0.0694739140434717
87.91000000000001,0.010925846932264172,0.010925846932264172
87.911,0.08858101602774693,0.08858101602774693
87.912,0.14543927123453404,0.14543927123453404
87.91300000000001,0.1694576637121643,0.1694576637121643
87.914,0.15694306549250991,0.15694306549250991
87.915,0.11270473267557057,0.11270473267557057
87.91600000000001,0.04822803491758543,0.04822803491758543
87.917,0.021473443315042196,-0.021473443315042196
87.918,0.0814564389463599,-0.0814564389463599
87.91900000000001,0.12005606109539535,-0.12005606109539535
87.92,0.13107604913897308,-0.13107604913897308
87.921,0.1146380159950523,-0.1146380159950523
87.92200000000001,0.0766713009444353,-0.0766713009444353
87.923,0.027271540632160196,-0.027271540632160196
87.924,0.021677907865030654,0.021677907865030654
87.92500000000001,0.05913803808008855,0.05913803808008855
87.926,0.07729214441411236,0.07729214441411236
87.927,0.07320087184570045,0.07320087184570045
87.92800000000001,0.049375383171614606,0.049375383171614606
87.929,0.01309866631276857,0.01309866631276857
87.93,0.025416304780860988,-0.025416304780860988
87.93100000000001,0.05565549229029931,-0.05565549229029931
87.932,0.06959982510682561,-0.06959982510682561
87.933,0.06395256365587243,-0.06395256365587243
87.93400000000001,0.04114013522002202,-0.04114013522002202
87.935,0.008714223981263758,-0.008714223981263758
87.936,0.02277974408763761,0.02277974408763761
87.93700000000001,0.04293314207325061,0.04293314207325061
87.938,0.044717709782808424,0.044717709782808424
87.93900000000001,0.026852908669710907,0.026852908669710907
87.94000000000001,0.005487054300753136,-0.005487054300753136
87.941,0.04193698287932657,-0.04193698287932657
87.94200000000001,0.06987948671613509,-0.06987948671613509
87.94300000000001,0.07821707280418644,-0.07821707280418644
87.944,0.06083574098611211,-0.06083574098611211
87.94500000000001,0.018677041394020155,-0.018677041394020155
87.94600000000001,0.04025107779598902,0.04025107779598902
87.947,0.10295219503076014,0.10295219503076014
87.94800000000001,0.1549737413228709,0.1549737413228709
87.94900000000001,0.18429946297028765,0.18429946297028765
87.95,0.18440731845434,0.18440731845434
87.95100000000001,0.15559313851865952,0.15559313851865952
87.95200000000001,0.10425029876554426,0.10425029876554426
87.953,0.040476556827271803,0.040476556827271803
87.95400000000001,0.025085222676246466,-0.025085222676246466
87.95500000000001,0.08406050024914491,-0.08406050024914491
87.956,0.13189108360739654,-0.13189108360739654
87.95700000000001,0.1677129853210555,-0.1677129853210555
87.95800000000001,0.19280544141650313,-0.19280544141650313
87.959,0.2083914375042094,-0.2083914375042094
87.96000000000001,0.21380307123691755,-0.21380307123691755
87.96100000000001,0.20586527596172366,-0.20586527596172366
87.962,0.1798568638064244,-0.1798568638064244
87.96300000000001,0.1317612485056311,-0.1317612485056311
87.96400000000001,0.06096220814791542,-0.06096220814791542
87.965,0.027714770401868538,0.027714770401868538
87.96600000000001,0.12356233516539583,0.12356233516539583
87.96700000000001,0.2115807717963032,0.2115807717963032
87.968,0.275817800765469,0.275817800765469
87.96900000000001,0.3035305538373536,0.3035305538373536
87.97000000000001,0.2888849391202135,0.2888849391202135
87.971,0.23497726360483484,0.23497726360483484
87.97200000000001,0.15344625381439325,0.15344625381439325
87.97300000000001,0.06168451304831035,0.06168451304831035
87.974,0.021588172720854115,-0.021588172720854115
87.97500000000001,0.08111083478100856,-0.08111083478100856
87.97600000000001,0.10883657183750362,-0.10883657183750362
87.977,0.10559224954446511,-0.10559224954446511
87.97800000000001,0.08022627607751776,-0.08022627607751776
87.97900000000001,0.046584112466031335,-0.046584112466031335
87.98,0.01927268366446888,-0.01927268366446888
87.98100000000001,0.009474757120899402,-0.009474757120899402
87.98200000000001,0.021979533912654503,-0.021979533912654503
87.983,0.054163918351330276,-0.054163918351330276
87.98400000000001,0.09705026865141564,-0.09705026865141564
87.98500000000001,0.13798207226495185,-0.13798207226495185
87.986,0.16407115570898612,-0.16407115570898612
87.98700000000001,0.1654683650174068,-0.1654683650174068
87.988,0.13768161127964385,-0.13768161127964385
87.989,0.08251432115224366,-0.08251432115224366
87.99000000000001,0.007588850413096537,-0.007588850413096537
87.991,0.07526688715505458,0.07526688715505458
87.992,0.15232152260140386,0.15232152260140386
87.99300000000001,0.2104567427729287,0.2104567427729287
87.994,0.2394908136406022,0.2394908136406022
87.995,0.2339963513022496,0.2339963513022496
87.99600000000001,0.19437700869064178,0.19437700869064178
87.997,0.1270237726910075,0.1270237726910075
87.998,0.04343845665659707,0.04343845665659707
87.99900000000001,0.041667132545663566,-0.041667132545663566
88.0,0.1130928446062428,-0.1130928446062428
88.001,0.15824755113691125,-0.15824755113691125
88.00200000000001,0.16996580129961936,-0.16996580129961936
88.003,0.1483069400280007,-0.1483069400280007
88.004,0.1007309821026291,-0.1007309821026291
88.00500000000001,0.0404045978312203,-0.0404045978312203
88.006,0.017094182995334162,0.017094182995334162
88.007,0.057882298495814055,0.057882298495814055
88.00800000000001,0.07355347026744385,0.07355347026744385
88.009,0.06348055926082474,0.06348055926082474
88.01,0.03484341437138805,0.03484341437138805
88.01100000000001,0.0002497063291329038,0.0002497063291329038
88.012,0.026413490425804098,-0.026413490425804098
88.013,0.03463666892160122,-0.03463666892160122
88.01400000000001,0.02094551890864993,-0.02094551890864993
88.015,0.0097037466334573,0.0097037466334573
88.016,0.04536463951257308,0.04536463951257308
88.01700000000001,0.0710223290991625,0.0710223290991625
88.018,0.0737836808598189,0.0737836808598189
88.019,0.04763033467371258,0.04763033467371258
88.02000000000001,0.0039039082583569584,-0.0039039082583569584
88.021,0.06814083719629371,-0.06814083719629371
88.022,0.12675875488220567,-0.12675875488220567
88.02300000000001,0.16135003064752929,-0.16135003064752929
88.024,0.15926857125630112,-0.15926857125630112
88.025,0.11784653629671282,-0.11784653629671282
88.02600000000001,0.04555266542955838,-0.04555266542955838
88.027,0.04034671008469859,0.04034671008469859
88.028,0.11890568105197064,0.11890568105197064
88.02900000000001,0.17174506051005367,0.17174506051005367
88.03,0.18839206966061028,0.18839206966061028
88.031,0.1689818190737662,0.1689818190737662
88.03200000000001,0.1234825364069363,0.1234825364069363
88.033,0.06778676707415454,0.06778676707415454
88.034,0.018071362983144157,0.018071362983144157
88.03500000000001,0.014598195123661784,-0.014598195123661784
88.036,0.027559051466412687,-0.027559051466412687
88.037,0.026641881664943745,-0.026641881664943745
88.03800000000001,0.023111028513093546,-0.023111028513093546
88.039,0.028627484774762846,-0.028627484774762846
88.04,0.050113849860378146,-0.050113849860378146
88.04100000000001,0.08643623454882088,-0.08643623454882088
88.042,0.12816871153180343,-0.12816871153180343
88.043,0.1605982251739434,-0.1605982251739434
88.04400000000001,0.16895247764973254,-0.16895247764973254
88.045,0.14400736623421995,-0.14400736623421995
88.046,0.08605057441024266,-0.08605057441024266
88.04700000000001,0.005714451576851909,-0.005714451576851909
88.048,0.07873719510842236,0.07873719510842236
88.049,0.14684838920073084,0.14684838920073084
88.05000000000001,0.1823482635218523,0.1823482635218523
88.051,0.17831802058328972,0.17831802058328972
88.052,0.13937760537078003,0.13937760537078003
88.05300000000001,0.0801138706941138,0.0801138706941138
88.054,0.02023940277352776,0.02023940277352776
88.055,0.021919209357280534,-0.021919209357280534
88.05600000000001,0.03543239478524207,-0.03543239478524207
88.057,0.02026641816595487,-0.02026641816595487
88.058,0.012904386769633014,0.012904386769633014
88.05900000000001,0.04651618338500074,0.04651618338500074
88.06,0.06230075758581721,0.06230075758581721
88.061,0.04778941267706549,0.04778941267706549
88.06200000000001,0.0009850643189841524,0.0009850643189841524
88.063,0.06834478809101363,-0.06834478809101363
88.06400000000001,0.14120122876412478,-0.14120122876412478
88.06500000000001,0.19493082025254127,-0.19493082025254127
88.066,0.21010587336833908,-0.21010587336833908
88.06700000000001,0.17658144199305714,-0.17658144199305714
88.06800000000001,0.09689262847977997,-0.09689262847977997
88.069,0.013994039941668035,0.013994039941668035
88.07000000000001,0.13244125217477154,0.13244125217477154
88.07100000000001,0.23225012745460738,0.23225012745460738
88.072,0.29132674679728576,0.29132674679728576
88.07300000000001,0.2970538019080584,0.2970538019080584
88.07400000000001,0.24899805766225658,0.24899805766225658
88.075,0.15842210562879022,0.15842210562879022
88.07600000000001,0.04498104310974904,0.04498104310974904
88.07700000000001,0.06830343578497289,-0.06830343578497289
88.078,0.16037051963404536,-0.16037051963404536
88.07900000000001,0.2164277458381848,-0.2164277458381848
88.08000000000001,0.23035448969639694,-0.23035448969639694
88.081,0.20491658352691033,-0.20491658352691033
88.08200000000001,0.15007341138015684,-0.15007341138015684
88.08300000000001,0.08004493025283854,-0.08004493025283854
88.084,0.009949531354676355,-0.009949531354676355
88.08500000000001,0.047251495346380734,0.047251495346380734
88.08600000000001,0.08297935745148877,0.08297935745148877
88.087,0.09416330689697072,0.09416330689697072
88.08800000000001,0.08322106908052529,0.08322106908052529
88.08900000000001,0.05701597134690739,0.05701597134690739
88.09,0.02503154437767252,0.02503154437767252
88.09100000000001,0.002901591002891224,-0.002901591002891224
88.09200000000001,0.018911852109809613,-0.018911852109809613
88.093,0.018962075433488823,-0.018962075433488823
88.09400000000001,0.003851518981483948,-0.003851518981483948
88.09500000000001,0.02096740427843158,0.02096740427843158
88.096,0.04681916063186686,0.04681916063186686
88.09700000000001,0.06421346142082052,0.06421346142082052
88.09800000000001,0.06564378659696324,0.06564378659696324
88.099,0.04799221041437818,0.04799221041437818
88.10000000000001,0.013780149271642728,0.013780149271642728
88.10100000000001,0.029220022099136767,-0.029220022099136767
88.102,0.07002544839561686,-0.07002544839561686
88.10300000000001,0.0976159081143434,-0.0976159081143434
88.10400000000001,0.10430521372549972,-0.10430521372549972
88.105,0.08823692230140345,-0.08823692230140345
88.10600000000001,0.054142432933033,-0.054142432933033
88.10700000000001,0.01202135375643898,-0.01202135375643898
88.108,0.025920820487950857,0.025920820487950857
88.10900000000001,0.04913816469063903,0.04913816469063903
88.11000000000001,0.05215526373089152,0.05215526373089152
88.111,0.036363299251005676,0.036363299251005676
88.11200000000001,0.009543517307008198,0.009543517307008198
88.113,0.01678618426451406,-0.01678618426451406
88.114,0.03135291366087378,-0.03135291366087378
88.11500000000001,0.027101763683443636,-0.027101763683443636
88.116,0.003782309966868569,-0.003782309966868569
88.117,0.03179001179395202,0.03179001179395202
88.11800000000001,0.06795287329992172,0.06795287329992172
88.119,0.09218679439433264,0.09218679439433264
88.12,0.09552150088146782,0.09552150088146782
88.12100000000001,0.07581512234134435,0.07581512234134435
88.122,0.03871017583307168,0.03871017583307168
88.123,0.004148966431297363,-0.004148966431297363
88.12400000000001,0.0390989086486232,-0.0390989086486232
88.125,0.05530523435238366,-0.05530523435238366
88.126,0.048784996111605694,-0.048784996111605694
88.12700000000001,0.02413775953098596,-0.02413775953098596
88.128,0.006735146335179021,0.006735146335179021
88.129,0.028619519252095937,0.028619519252095937
88.13000000000001,0.028424961568504603,0.028424961568504603
88.131,0.0002513777086627922,0.0002513777086627922
88.132,0.05168804880064948,-0.05168804880064948
88.13300000000001,0.11341169648941463,-0.11341169648941463
88.134,0.1648562555196743,-0.1648562555196743
88.135,0.18587099221363546,-0.18587099221363546
88.13600000000001,0.16268681095747717,-0.16268681095747717
88.137,0.09280946580606697,-0.09280946580606697
88.138,0.013270553545381425,0.013270553545381425
88.13900000000001,0.13419135834300722,0.13419135834300722
88.14,0.24311331890884924,0.24311331890884924
88.141,0.31483150760389145,0.31483150760389145
88.14200000000001,0.3325155370679629,0.3325155370679629
88.143,0.29210858289292907,0.29210858289292907
88.144,0.2031461365970728,0.2031461365970728
88.14500000000001,0.08584931178513555,0.08584931178513555
88.146,0.03454355527553743,-0.03454355527553743
88.147,0.1344654456295027,-0.1344654456295027
88.14800000000001,0.1977706508499878,-0.1977706508499878
88.149,0.21897495167068726,-0.21897495167068726
88.15,0.20325792803345777,-0.20325792803345777
88.15100000000001,0.16351289849362116,-0.16351289849362116
88.152,0.11558941886325302,-0.11558941886325302
88.153,0.07332082748191027,-0.07332082748191027
88.15400000000001,0.044852715701931944,-0.044852715701931944
88.155,0.031248049189035676,-0.031248049189035676
88.156,0.027544469238623415,-0.027544469238623415
88.15700000000001,0.025651033799222178,-0.025651033799222178
88.158,0.01794395185197528,-0.01794395185197528
88.159,0.0003008943777780271,-0.0003008943777780271
88.16000000000001,0.026392943964125948,0.026392943964125948
88.161,0.05665352290413961,0.05665352290413961
88.162,0.08244932548939254,0.08244932548939254
88.16300000000001,0.0961035367297598,0.0961035367297598
88.164,0.09302914788390781,0.09302914788390781
88.165,0.07339582123335764,0.07339582123335764
88.16600000000001,0.0422229401042411,0.0422229401042411
88.167,0.007921280309473477,0.007921280309473477
88.168,0.02020919375667074,-0.02020919375667074
88.16900000000001,0.03472237286913038,-0.03472237286913038
88.17,0.0321758290410844,-0.0321758290410844
88.171,0.014074280934373906,-0.014074280934373906
88.17200000000001,0.013620717966754459,0.013620717966754459
88.173,0.04221899787685546,0.04221899787685546
88.174,0.06273611948907187,0.06273611948907187
88.17500000000001,0.0683398921793128,0.0683398921793128
88.176,0.05615450823526569,0.05615450823526569
88.177,0.02797804722372521,0.02797804722372521
88.17800000000001,0.01022224386462478,-0.01022224386462478
88.179,0.04985445751329809,-0.04985445751329809
88.18,0.08185641776478969,-0.08185641776478969
88.18100000000001,0.09890577964368952,-0.09890577964368952
88.182,0.09714792290717966,-0.09714792290717966
88.183,0.07704446424465505,-0.07704446424465505
88.18400000000001,0.04316946803655475,-0.04316946803655475
88.185,0.0030338174192329204,-0.0030338174192329204
88.186,0.03475568524638417,0.03475568524638417
88.18700000000001,0.06254553248087746,0.06254553248087746
88.188,0.07539378871032643,0.07539378871032643
88.18900000000001,0.07211416130001602,0.07211416130001602
88.19000000000001,0.055361519710256824,0.055361519710256824
88.191,0.030756383554989553,0.030756383554989553
88.19200000000001,0.005292563644819115,0.005292563644819115
88.19300000000001,0.014540281321055781,-0.014540281321055781
88.194,0.024412079224324534,-0.024412079224324534
88.19500000000001,0.023141698686315992,-0.023141698686315992
88.19600000000001,0.012765761063470271,-0.012765761063470271
88.197,0.002301488957485276,0.002301488957485276
88.19800000000001,0.016739827550799724,0.016739827550799724
88.19900000000001,0.025964456440182415,0.025964456440182415
88.2,0.027432505592882794,0.027432505592882794
88.20100000000001,0.021225804988002528,0.021225804988002528
88.20200000000001,0.009761773305992705,0.009761773305992705
88.203,0.003227021116067652,-0.003227021116067652
88.20400000000001,0.014063257344024804,-0.014063257344024804
88.20500000000001,0.020353872498896863,-0.020353872498896863
88.206,0.02164764326473323,-0.02164764326473323
88.20700000000001,0.019305586574867584,-0.019305586574867584
88.20800000000001,0.015662496886354127,-0.015662496886354127
88.209,0.012827320229764183,-0.012827320229764183
88.21000000000001,0.011615197313204595,-0.011615197313204595
88.21100000000001,0.011066474910569779,-0.011066474910569779
88.212,0.008793734725969782,-0.008793734725969782
88.21300000000001,0.0020782921816869804,-0.0020782921816869804
88.21400000000001,0.010673174355614101,0.010673174355614101
88.215,0.02868562076733272,0.02868562076733272
88.21600000000001,0.048339768167580344,0.048339768167580344
88.21700000000001,0.06378372216636286,0.06378372216636286
88.218,0.06857537646713263,0.06857537646713263
88.21900000000001,0.057903996054215146,0.057903996054215146
88.22000000000001,0.030668110338978316,0.030668110338978316
88.221,0.009353246465578002,-0.009353246465578002
88.22200000000001,0.05377421764103085,-0.05377421764103085
88.22300000000001,0.0914259597541991,-0.0914259597541991
88.224,0.11132659051923854,-0.11132659051923854
88.22500000000001,0.10597432103807902,-0.10597432103807902
88.22600000000001,0.0739586445909507,-0.0739586445909507
88.227,0.021014679879703846,-0.021014679879703846
88.22800000000001,0.04093486297376847,0.04093486297376847
88.22900000000001,0.09661584899604692,0.09661584899604692
88.23,0.13140152701252883,0.13140152701252883
88.23100000000001,0.13536890693750658,0.13536890693750658
88.23200000000001,0.10623832606936023,0.10623832606936023
88.233,0.05030461349941562,0.05030461349941562
