Czas,AbsSum,Sum
191.11100000000002,0.001358463173905642,0.001358463173905642
191.112,0.002156651436149697,-0.002156651436149697
191.113,0.006419889085646101,-0.006419889085646101
191.114,0.010708572694087643,-0.010708572694087643
191.115,0.01422900821269071,-0.01422900821269071
191.116,0.0162974222708205,-0.0162974222708205
191.11700000000002,0.01648870438858607,-0.01648870438858607
191.118,0.014718318656649701,-0.014718318656649701
191.119,0.01124334065513202,-0.01124334065513202
191.12,0.006590692516818661,-0.006590692516818661
191.121,0.0014378301987712679,-0.0014378301987712679
191.122,0.0035208272779934163,0.0035208272779934163
191.12300000000002,0.007690482968494404,0.007690482968494404
191.124,0.010654244947052291,0.010654244947052291
191.125,0.012205379317830799,0.012205379317830799
191.126,0.012338439077290705,0.012338439077290705
191.127,0.011212364604623484,0.011212364604623484
191.12800000000001,0.009100976080027396,0.009100976080027396
191.12900000000002,0.0063434924159286666,0.0063434924159286666
191.13,0.0033021065607945588,0.0033021065607945588
191.131,0.0003279821768372783,0.0003279821768372783
191.132,0.0022665246448440946,-0.0022665246448440946
191.133,0.004232186779772811,-0.004232186779772811
191.13400000000001,0.005404624021003117,-0.005404624021003117
191.13500000000002,0.00572134214006051,-0.00572134214006051
191.136,0.005229793311951609,-0.005229793311951609
191.137,0.004081886882111118,-0.004081886882111118
191.138,0.0025123949402871366,-0.0025123949402871366
191.139,0.0008023763122891489,-0.0008023763122891489
191.14000000000001,0.0007671725202084422,0.0007671725202084422
191.14100000000002,0.0019631164429208064,0.0019631164429208064
191.142,0.0026399649196617437,0.0026399649196617437
191.143,0.002763339229209311,0.002763339229209311
191.144,0.002411950587563759,0.002411950587563759
191.145,0.001757185509717867,0.001757185509717867
191.14600000000002,0.0010238290915619219,0.0010238290915619219
191.14700000000002,0.00043919513654061917,0.00043919513654061917
191.148,0.00018037533959647822,0.00018037533959647822
191.149,0.0003301364667065738,0.0003301364667065738
191.15,0.0008510486573565804,0.0008510486573565804
191.151,0.0015847232120491533,0.0015847232120491533
191.15200000000002,0.0022787426147319223,0.0022787426147319223
191.15300000000002,0.0026384159273598992,0.0026384159273598992
191.154,0.0023947048241834425,0.0023947048241834425
191.155,0.0013747406070296422,0.0013747406070296422
191.156,0.00044130614330493853,-0.00044130614330493853
191.157,0.002892409027632595,-0.002892409027632595
191.15800000000002,0.005648437976330013,-0.005648437976330013
191.15900000000002,0.008263542654388072,-0.008263542654388072
191.16,0.010262899011224924,-0.010262899011224924
191.161,0.01124494755505909,-0.01124494755505909
191.162,0.010975239589585415,-0.010975239589585415
191.163,0.009447822586002717,-0.009447822586002717
191.16400000000002,0.0068965198671759,-0.0068965198671759
191.16500000000002,0.003750358054850484,-0.003750358054850484
191.166,0.0005418359718407589,-0.0005418359718407589
191.167,0.0022102857116438226,0.0022102857116438226
191.168,0.004114360292476658,0.004114360292476658
191.169,0.004986353623500166,0.004986353623500166
191.17000000000002,0.004876906483193759,0.004876906483193759
191.17100000000002,0.004038918542943245,0.004038918542943245
191.172,0.002846048856127472,0.002846048856127472
191.173,0.0016860468340252341,0.0016860468340252341
191.174,0.0008593603387257983,0.0008593603387257983
191.175,0.0005110175534109124,0.0005110175534109124
191.17600000000002,0.0006130954111030398,0.0006130954111030398
191.17700000000002,0.0009994680964642386,0.0009994680964642386
191.178,0.0014388040859165225,0.0014388040859165225
191.179,0.0017207878189068031,0.0017207878189068031
191.18,0.001727596356554061,0.001727596356554061
191.181,0.001468508279512256,0.001468508279512256
191.18200000000002,0.0010681272259327544,0.0010681272259327544
191.18300000000002,0.0007139359106980346,0.0007139359106980346
191.184,0.0005818839175310073,0.0005818839175310073
191.185,0.0007654044131348597,0.0007654044131348597
191.186,0.0012316983951926588,0.0012316983951926588
191.187,0.0018200316296975536,0.0018200316296975536
191.18800000000002,0.0022832306567295304,0.0022832306567295304
191.18900000000002,0.002359919993401393,0.002359919993401393
191.19,0.001855567135270443,0.001855567135270443
191.191,0.0007078861438997481,0.0007078861438997481
191.192,0.0009828907969254101,-0.0009828907969254101
191.193,0.0029677438550471725,-0.0029677438550471725
191.19400000000002,0.004902636165455032,-0.004902636165455032
191.19500000000002,0.00642724349008959,-0.00642724349008959
191.196,0.007247313772496358,-0.007247313772496358
191.197,0.0071994324968098255,-0.0071994324968098255
191.198,0.006282916208210951,-0.006282916208210951
191.199,0.004653168381320991,-0.004653168381320991
191.20000000000002,0.00258108242019623,-0.00258108242019623
191.20100000000002,0.00039108121239429404,-0.00039108121239429404
191.202,0.0016057642322702046,0.0016057642322702046
191.203,0.003167885342888578,0.003167885342888578
191.204,0.004157554549652586,0.004157554549652586
191.205,0.004548921966603918,0.004548921966603918
191.20600000000002,0.004411877780286517,0.004411877780286517
191.20700000000002,0.0038788927910212876,0.0038788927910212876
191.208,0.0031045532883663776,0.0031045532883663776
191.209,0.0022275515384534376,0.0022275515384534376
191.21,0.0013429684005361732,0.0013429684005361732
191.211,0.0004896097008548532,0.0004896097008548532
191.21200000000002,0.0003462864684123273,-0.0003462864684123273
191.21300000000002,0.001212900389189798,-0.001212900389189798
191.214,0.0021648687317622588,-0.0021648687317622588
191.215,0.0032320659239890863,-0.0032320659239890863
191.216,0.004392613576172419,-0.004392613576172419
191.217,0.0055572811207776395,-0.0055572811207776395
191.21800000000002,0.006570671905502854,-0.006570671905502854
191.21900000000002,0.0072313964372869525,-0.0072313964372869525
191.22,0.007329218576838158,-0.007329218576838158
191.221,0.006692740629764945,-0.006692740629764945
191.222,0.00523767457668924,-0.00523767457668924
191.223,0.003004222917861847,-0.003004222917861847
191.22400000000002,0.0001732768192188542,-0.0001732768192188542
191.22500000000002,0.002944940246960731,0.002944940246960731
191.226,0.005950263651527648,0.005950263651527648
191.227,0.008414037726788713,0.008414037726788713
191.228,0.009951291765046222,0.009951291765046222
191.229,0.010289475211939327,0.010289475211939327
191.23000000000002,0.00932002370472374,0.00932002370472374
191.23100000000002,0.007122583725808434,0.007122583725808434
191.232,0.003957407722519186,0.003957407722519186
191.233,0.00022775163769054728,0.00022775163769054728
191.234,0.0035804538446430286,-0.0035804538446430286
191.235,0.006970922163103611,-0.006970922163103611
191.23600000000002,0.009509502356117881,-0.009509502356117881
191.237,0.010886056052413369,-0.010886056052413369
191.238,0.010957364301349215,-0.010957364301349215
191.239,0.00976575140114891,-0.00976575140114891
191.24,0.007531214375537253,-0.007531214375537253
191.241,0.0046178279128283525,-0.0046178279128283525
191.24200000000002,0.001478158144072957,-0.001478158144072957
191.243,0.001417514584715032,0.001417514584715032
191.244,0.0036573488763939287,0.0036573488763939287
191.245,0.004957284305148247,0.004957284305148247
191.246,0.005210596111326483,0.005210596111326483
191.247,0.004506429455560494,0.004506429455560494
191.24800000000002,0.003110837411198912,0.003110837411198912
191.249,0.0014112189218380563,0.0014112189218380563
191.25,0.0001663880946451331,-0.0001663880946451331
191.251,0.0012501700964503957,-0.0012501700964503957
191.252,0.0016044469225992587,-0.0016044469225992587
191.25300000000001,0.001180556832042078,-0.001180556832042078
191.25400000000002,0.00012325528451078593,-0.00012325528451078593
191.255,0.0012699559967316424,0.0012699559967316424
191.256,0.002626791847244557,0.002626791847244557
191.257,0.003595353305398879,0.003595353305398879
191.258,0.003931365375324583,0.003931365375324583
191.25900000000001,0.0035543339059155702,0.0035543339059155702
191.26000000000002,0.002558200185847876,0.002558200185847876
191.261,0.0011751062604309392,0.0011751062604309392
191.262,0.0002956520234033184,-0.0002956520234033184
191.263,0.0015716381970593976,-0.0015716381970593976
191.264,0.002459371586286832,-0.002459371586286832
191.26500000000001,0.0028942479195671164,-0.0028942479195671164
191.26600000000002,0.0029387838515742165,-0.0029387838515742165
191.267,0.0027430661481937556,-0.0027430661481937556
191.268,0.0024829361682416795,-0.0024829361682416795
191.269,0.0022976111764402775,-0.0022976111764402775
191.27,0.0022472501083007908,-0.0022472501083007908
191.27100000000002,0.0023030202563759034,-0.0023030202563759034
191.27200000000002,0.0023703945284102444,-0.0023703945284102444
191.273,0.0023348594909949386,-0.0023348594909949386
191.274,0.0021119238436519763,-0.0021119238436519763
191.275,0.0016827127910628036,-0.0016827127910628036
191.276,0.001102552852561305,-0.001102552852561305
191.27700000000002,0.00048044618790849875,-0.00048044618790849875
191.27800000000002,6.167875883338598e-05,6.167875883338598e-05
191.279,0.00043359333258217444,0.00043359333258217444
191.28,0.000607704010429001,0.000607704010429001
191.281,0.0006241713400186526,0.0006241713400186526
191.282,0.0005681640295528816,0.0005681640295528816
191.28300000000002,0.0005281614700646358,0.0005281614700646358
191.28400000000002,0.0005519460464402833,0.0005519460464402833
191.285,0.000618441260815145,0.000618441260815145
191.286,0.0006381231737001401,0.0006381231737001401
191.287,0.00048419113504790984,0.00048419113504790984
191.288,4.4803098324698086e-05,4.4803098324698086e-05
191.28900000000002,0.0007221566616191752,-0.0007221566616191752
191.29000000000002,0.001752697739171749,-0.001752697739171749
191.291,0.002874427914507283,-0.002874427914507283
191.292,0.0038427681853796174,-0.0038427681853796174
191.293,0.00440660058874982,-0.00440660058874982
191.294,0.004383281837609486,-0.004383281837609486
191.29500000000002,0.0037184984354380964,-0.0037184984354380964
191.29600000000002,0.0025103415121905098,-0.0025103415121905098
191.297,0.0009881712957328984,-0.0009881712957328984
191.298,0.0005483476949380462,0.0005483476949380462
191.299,0.0018112700798762742,0.0018112700798762742
191.3,0.0026013860007579694,0.0026013860007579694
191.30100000000002,0.0028556201928043763,0.0028556201928043763
191.30200000000002,0.00265007250465256,0.00265007250465256
191.303,0.0021589659323080867,0.0021589659323080867
191.304,0.0015847852505739316,0.0015847852505739316
191.305,0.001084690431564859,0.001084690431564859
191.306,0.0007193771343381028,0.0007193771343381028
191.30700000000002,0.00044242121517217123,0.00044242121517217123
191.30800000000002,0.0001335020399220997,0.0001335020399220997
191.309,0.0003371877085735881,-0.0003371877085735881
191.31,0.0010378824601262927,-0.0010378824601262927
191.311,0.0019253368539699646,-0.0019253368539699646
191.312,0.0028371300943335906,-0.0028371300943335906
191.31300000000002,0.0035325432898428073,-0.0035325432898428073
191.31400000000002,0.0037706515960021837,-0.0037706515960021837
191.315,0.0033997064394784542,-0.0033997064394784542
191.316,0.0024257869482493316,-0.0024257869482493316
191.317,0.0010336573668044506,-0.0010336573668044506
191.318,0.0004523665270377823,0.0004523665270377823
191.31900000000002,0.0016595901723113296,0.0016595901723113296
191.32000000000002,0.0022834335678886815,0.0022834335678886815
191.321,0.0021916617616953037,0.0021916617616953037
191.322,0.0014799692724874317,0.0014799692724874317
191.323,0.00045610746854375444,0.00045610746854375444
191.324,0.0004481278259158895,-0.0004481278259158895
191.32500000000002,0.0008138939902794018,-0.0008138939902794018
191.32600000000002,0.0003803314730416492,-0.0003803314730416492
191.327,0.0008489389977943555,0.0008489389977943555
191.328,0.002575358150875626,0.002575358150875626
191.329,0.004266914127574933,0.004266914127574933
191.33,0.005299567056278213,0.005299567056278213
191.33100000000002,0.005140886732303176,0.005140886732303176
191.33200000000002,0.0035228046936062506,0.0035228046936062506
191.333,0.0005505872603138503,0.0005505872603138503
191.334,0.0032885012300542644,-0.0032885012300542644
191.335,0.007225246575194106,-0.007225246575194106
191.336,0.010393888160741022,-0.010393888160741022
191.33700000000002,0.012053610608263089,-0.012053610608263089
191.33800000000002,0.011784733920099688,-0.011784733920099688
191.339,0.009603835086292317,-0.009603835086292317
191.34,0.005964101333424637,-0.005964101333424637
191.341,0.0016394797195818473,-0.0016394797195818473
191.342,0.0024757276016230093,0.0024757276016230093
191.34300000000002,0.005595993139190708,0.005595993139190708
191.34400000000002,0.007238476084656002,0.007238476084656002
191.345,0.007328168954337664,0.007328168954337664
191.346,0.006186608801518569,0.006186608801518569
191.347,0.004410238855651037,0.004410238855651037
191.348,0.002676220660015906,0.002676220660015906
191.34900000000002,0.001533886383037015,0.001533886383037015
191.35000000000002,0.0012431950382750018,0.0012431950382750018
191.351,0.001706746043128389,0.001706746043128389
191.352,0.00251365331266712,0.00251365331266712
191.353,0.0030803552156412075,0.0030803552156412075
191.354,0.002845059306261188,0.002845059306261188
191.35500000000002,0.0014572606595668895,0.0014572606595668895
191.35600000000002,0.0010940984887712697,-0.0010940984887712697
191.357,0.004451665064239476,-0.004451665064239476
191.358,0.007968436498272563,-0.007968436498272563
191.359,0.010871538794076041,-0.010871538794076041
191.36,0.012464294064377024,-0.012464294064377024
191.36100000000002,0.012309843807643299,-0.012309843807643299
191.362,0.010346092442380314,-0.010346092442380314
191.363,0.006902318367468278,-0.006902318367468278
191.364,0.0026160107675086597,-0.0026160107675086597
191.365,0.0017241057036349939,0.0017241057036349939
191.366,0.005364134512858062,0.005364134512858062
191.36700000000002,0.007750249630319263,0.007750249630319263
191.368,0.008632297153139075,0.008632297153139075
191.369,0.008084772088623023,0.008084772088623023
191.37,0.006448294560727094,0.006448294560727094
191.371,0.004215793030790534,0.004215793030790534
191.372,0.001899792895797324,0.001899792895797324
191.37300000000002,8.224343600055755e-05,-8.224343600055755e-05
191.374,0.0014776873358870696,-0.0014776873358870696
191.375,0.0022134122288424572,-0.0022134122288424572
191.376,0.0023625281766816056,-0.0023625281766816056
191.377,0.0020830596019640983,-0.0020830596019640983
191.37800000000001,0.001553072184575204,-0.001553072184575204
191.37900000000002,0.0009228514955853389,-0.0009228514955853389
191.38,0.0002946873749432158,-0.0002946873749432158
191.381,0.0002711879210857566,0.0002711879210857566
191.382,0.0007355032726080273,0.0007355032726080273
191.383,0.001058651720100938,0.001058651720100938
191.38400000000001,0.0011916934510212843,0.0011916934510212843
191.38500000000002,0.0010848453192563853,0.0010848453192563853
191.386,0.0007097070099777482,0.0007097070099777482
191.387,8.454094314794197e-05,8.454094314794197e-05
191.388,0.000710337267329795,-0.000710337267329795
191.389,0.001536810926611556,-0.001536810926611556
191.39000000000001,0.0022252897311046457,-0.0022252897311046457
191.39100000000002,0.002616946138683054,-0.002616946138683054
191.392,0.0026090951902717026,-0.0026090951902717026
191.393,0.002188839276172807,-0.002188839276172807
191.394,0.001443272565757368,-0.001443272565757368
191.395,0.0005418650273260842,-0.0005418650273260842
191.39600000000002,0.00030448321251603193,0.00030448321251603193
191.39700000000002,0.0008959056906551148,0.0008959056906551148
191.398,0.001092427219803963,0.001092427219803963
191.399,0.0008457501620522918,0.0008457501620522918
191.4,0.00020632648253210374,0.00020632648253210374
191.401,0.000694148374946854,-0.000694148374946854
191.40200000000002,0.0016776831292675733,-0.0016776831292675733
191.40300000000002,0.002561266273102913,-0.002561266273102913
191.404,0.0031933777159002838,-0.0031933777159002838
191.405,0.0034781088701673433,-0.0034781088701673433
191.406,0.0033844217391979744,-0.0033844217391979744
191.407,0.0029427652437078525,-0.0029427652437078525
191.40800000000002,0.002233799201847576,-0.002233799201847576
191.40900000000002,0.0013737968015789834,-0.0013737968015789834
191.41,0.0004991257480413299,-0.0004991257480413299
191.411,0.0002503590207928662,0.0002503590207928662
191.412,0.0007504518148561345,0.0007504518148561345
191.413,0.0009147166927105545,0.0009147166927105545
191.41400000000002,0.0007170665519797279,0.0007170665519797279
191.41500000000002,0.00020875844437299383,0.00020875844437299383
191.416,0.0004782361736563511,-0.0004782361736563511
191.417,0.0011482835695963642,-0.0011482835695963642
191.418,0.0015813573965429845,-0.0015813573965429845
191.419,0.001588702430191748,-0.001588702430191748
191.42000000000002,0.0010714131143834962,-0.0010714131143834962
191.42100000000002,6.390672854032265e-05,-6.390672854032265e-05
191.422,0.0012546521860448078,0.0012546521860448078
191.423,0.0025904922419587827,0.0025904922419587827
191.424,0.0036042756120117925,0.0036042756120117925
191.425,0.0040030811932848095,0.0040030811932848095
191.42600000000002,0.003629551260682827,0.003629551260682827
191.42700000000002,0.0025200034076027097,0.0025200034076027097
191.428,0.0009100593529635754,0.0009100593529635754
191.429,0.0008190152082615871,-0.0008190152082615871
191.43,0.0022416980103127956,-0.0022416980103127956
191.431,0.0030095254657050187,-0.0030095254657050187
191.43200000000002,0.0029560617009385753,-0.0029560617009385753
191.43300000000002,0.002151968829396566,-0.002151968829396566
191.434,0.0008904280626347279,-0.0008904280626347279
191.435,0.0003958192012733234,0.0003958192012733234
191.436,0.001262824697076402,0.001262824697076402
191.437,0.0013908881785335788,0.0013908881785335788
191.43800000000002,0.0006852335205843076,0.0006852335205843076
191.43900000000002,0.0006902065491415246,-0.0006902065491415246
191.44,0.0023576297738625795,-0.0023576297738625795
191.441,0.0038359274955458936,-0.0038359274955458936
191.442,0.004683139068884786,-0.004683139068884786
191.443,0.0046266537786234406,-0.0046266537786234406
191.44400000000002,0.0036408619481224525,-0.0036408619481224525
191.44500000000002,0.0019488494813512476,-0.0019488494813512476
191.446,5.0796628965052634e-05,5.0796628965052634e-05
191.447,0.001906999589557135,0.001906999589557135
191.448,0.003248363963367581,0.003248363963367581
191.449,0.0038818525850462453,0.0038818525850462453
191.45000000000002,0.003827517585333802,0.003827517585333802
191.45100000000002,0.003281055258929025,0.003281055258929025
191.452,0.002520617327421118,0.002520617327421118
191.453,0.0017930088146249712,0.0017930088146249712
191.454,0.0012207680284923906,0.0012207680284923906
191.455,0.0007635152776346648,0.0007635152776346648
191.45600000000002,0.00024720522239718104,0.00024720522239718104
191.45700000000002,0.0005496294673311397,-0.0005496294673311397
191.458,0.0017843760780411918,-0.0017843760780411918
191.459,0.003455137858342245,-0.003455137858342245
191.46,0.005358698763598392,-0.005358698763598392
191.461,0.0071208024169698535,-0.0071208024169698535
191.46200000000002,0.008293093519904132,-0.008293093519904132
191.46300000000002,0.008487637768175845,-0.008487637768175845
191.464,0.007505898319679393,-0.007505898319679393
191.465,0.005419283810861417,-0.005419283810861417
191.466,0.0025729625371518614,-0.0025729625371518614
191.467,0.0004912082025271122,0.0004912082025271122
191.46800000000002,0.0031710417906668344,0.0031710417906668344
191.46900000000002,0.004959229540306229,0.004959229540306229
191.47,0.005571157235327453,0.005571157235327453
191.471,0.00500810870486965,0.00500810870486965
191.472,0.003539308147140215,0.003539308147140215
191.473,0.001611641212452789,0.001611641212452789
191.47400000000002,0.00028234776537075566,-0.00028234776537075566
191.47500000000002,0.0017363920021424837,-0.0017363920021424837
191.476,0.0025231973211295336,-0.0025231973211295336
191.477,0.002623721198162449,-0.002623721198162449
191.478,0.0021907713145736117,-0.0021907713145736117
191.479,0.001465927550207665,-0.001465927550207665
191.48000000000002,0.0006823994234581872,-0.0006823994234581872
191.48100000000002,1.1757895338790024e-05,1.1757895338790024e-05
191.482,0.0005855979504207061,0.0005855979504207061
191.483,0.0011056261515073422,0.0011056261515073422
191.484,0.001676695718298236,0.001676695718298236
191.485,0.0023692073455908094,0.0023692073455908094
191.48600000000002,0.0031621236828417664,0.0031621236828417664
191.487,0.00392437517008511,0.00392437517008511
191.488,0.004442489541963426,0.004442489541963426
191.489,0.004485208021293942,0.004485208021293942
191.49,0.0038825300584926065,0.0038825300584926065
191.491,0.0025915806811612784,0.0025915806811612784
191.49200000000002,0.0007263853682394268,0.0007263853682394268
191.493,0.001458911112214837,-0.001458911112214837
191.494,0.0036282190716835205,-0.0036282190716835205
191.495,0.005444588885744967,-0.005444588885744967
191.496,0.00664913700998326,-0.00664913700998326
191.497,0.007114767667613775,-0.007114767667613775
191.49800000000002,0.006861085156584119,-0.006861085156584119
191.499,0.00603006383636315,-0.00603006383636315
191.5,0.004834210126652653,-0.004834210126652653
191.501,0.0034960604603019724,-0.0034960604603019724
191.502,0.002197939550598913,-0.002197939550598913
191.50300000000001,0.001054633413930426,-0.001054633413930426
191.50400000000002,0.00011191281365649378,-0.00011191281365649378
191.505,0.0006354220152839494,0.0006354220152839494
191.506,0.0012177375326994546,0.0012177375326994546
191.507,0.001668761541627005,0.001668761541627005
191.508,0.0020147647148897586,0.0020147647148897586
191.50900000000001,0.002274734484623531,0.002274734484623531
191.51000000000002,0.0024656523830017016,0.0024656523830017016
191.511,0.0026048385906652176,0.0026048385906652176
191.512,0.002703833635793303,0.002703833635793303
191.513,0.002754219489840673,0.002754219489840673
191.514,0.0027122806907498406,0.0027122806907498406
191.51500000000001,0.002493173001967145,0.002493173001967145
191.51600000000002,0.0019839906033013843,0.0019839906033013843
191.517,0.0010785606094660788,0.0010785606094660788
191.518,0.00027293549257067276,-0.00027293549257067276
191.519,0.0020154923243410087,-0.0020154923243410087
191.52,0.003962264061081331,-0.003962264061081331
191.52100000000002,0.005806130235881439,-0.005806130235881439
191.52200000000002,0.0071762081542263104,-0.0071762081542263104
191.523,0.007730219033964192,-0.007730219033964192
191.524,0.007258611149148424,-0.007258611149148424
191.525,0.005767495658854962,-0.005767495658854962
191.526,0.0035089545591692885,-0.0035089545591692885
191.52700000000002,0.000940105815241164,-0.000940105815241164
191.52800000000002,0.0013865101231737998,0.0013865101231737998
191.529,0.0029754036941334423,0.0029754036941334423
191.53,0.0035400491904748837,0.0035400491904748837
191.531,0.003105510615372431,0.003105510615372431
191.532,0.0020232137134791463,0.0020232137134791463
191.53300000000002,0.0008832230577602608,0.0008832230577602608
191.53400000000002,0.00034063444636479607,0.00034063444636479607
191.535,0.0009018236794512226,0.0009018236794512226
191.536,0.0027337131546713656,0.0027337131546713656
191.537,0.0055583128878096315,0.0055583128878096315
191.538,0.00867428684853863,0.00867428684853863
191.53900000000002,0.011112042746748813,0.011112042746748813
191.54000000000002,0.011888695413729519,0.011888695413729519
191.541,0.010296264386503905,0.010296264386503905
191.542,0.0061412375329080735,0.0061412375329080735
191.543,0.00013807505047868884,-0.00013807505047868884
191.544,0.00751928275533833,-0.00751928275533833
191.54500000000002,0.014606549068754164,-0.014606549068754164
191.54600000000002,0.019955160481381243,-0.019955160481381243
191.547,0.022426422684122864,-0.022426422684122864
191.548,0.021477408562826095,-0.021477408562826095
191.549,0.01730523142630122,-0.01730523142630122
191.55,0.010804017936845826,-0.010804017936845826
191.55100000000002,0.0033439393934503758,-0.0033439393934503758
191.55200000000002,0.0035690988139589356,0.0035690988139589356
191.553,0.008661489358346637,0.008661489358346637
191.554,0.011188915745636732,0.011188915745636732
191.555,0.011084393666081382,0.011084393666081382
191.556,0.008922171068056555,0.008922171068056555
191.55700000000002,0.005714352467550993,0.005714352467550993
191.55800000000002,0.0026032888973624496,0.0026032888973624496
191.559,0.0005397470195526371,0.0005397470195526371
191.56,3.7180853743975444e-05,3.7180853743975444e-05
191.561,0.0010666605399837282,0.0010666605399837282
191.562,0.003113501183609608,0.003113501183609608
191.56300000000002,0.005368820778673678,0.005368820778673678
191.56400000000002,0.006991505148498533,0.006991505148498533
191.565,0.007359265011828612,0.007359265011828612
191.566,0.006235812165844588,0.006235812165844588
191.567,0.003811012804192898,0.003811012804192898
191.568,0.0006120829290224685,0.0006120829290224685
191.56900000000002,0.0026767619592182584,-0.0026767619592182584
191.57000000000002,0.005423417547268797,-0.005423417547268797
191.571,0.007218792289167955,-0.007218792289167955
191.572,0.007959733844563286,-0.007959733844563286
191.573,0.00782617473669908,-0.00782617473669908
191.574,0.007170329198132808,-0.007170329198132808
191.57500000000002,0.006363310356226766,-0.006363310356226766
191.57600000000002,0.005655365497695075,-0.005655365497695075
191.577,0.00509732065564288,-0.00509732065564288
191.578,0.004546628831776586,-0.004546628831776586
191.579,0.003750529902186466,-0.003750529902186466
191.58,0.002472050329536378,-0.002472050329536378
191.58100000000002,0.0006108778950041535,-0.0006108778950041535
191.58200000000002,0.0017252855255285838,0.0017252855255285838
191.583,0.004224368446813295,0.004224368446813295
191.584,0.006446915101718411,0.006446915101718411
191.585,0.007949166309915481,0.007949166309915481
191.586,0.008409837423599053,0.008409837423599053
191.58700000000002,0.007718421314324227,0.007718421314324227
191.58800000000002,0.005997809860489797,0.005997809860489797
191.589,0.0035578771866122574,0.0035578771866122574
191.59,0.0008005488323613325,0.0008005488323613325
191.591,0.0018878087358856002,-0.0018878087358856002
191.592,0.004219345356164134,-0.004219345356164134
191.59300000000002,0.006038040597532496,-0.006038040597532496
191.59400000000002,0.0072994529164290296,-0.0072994529164290296
191.595,0.008014484798932239,-0.008014484798932239
191.596,0.008188324007941365,-0.008188324007941365
191.597,0.0077861267357244735,-0.0077861267357244735
191.598,0.006744095305565406,-0.006744095305565406
191.59900000000002,0.005023445309179085,-0.005023445309179085
191.60000000000002,0.0026837893053039516,-0.0026837893053039516
191.601,5.968842757180582e-05,5.968842757180582e-05
191.602,0.0028287385302415446,0.0028287385302415446
191.603,0.0051411320891380065,0.0051411320891380065
191.604,0.00652776723449174,0.00652776723449174
191.60500000000002,0.006674257777558489,0.006674257777558489
191.60600000000002,0.005538762801739012,0.005538762801739012
191.607,0.0033999614022527025,0.0033999614022527025
191.608,0.0008087429539360422,0.0008087429539360422
191.609,0.00155145172364927,-0.00155145172364927
191.61,0.003058189603542311,-0.003058189603542311
191.61100000000002,0.0033380801154491825,-0.0033380801154491825
191.612,0.0023870515092092224,-0.0023870515092092224
191.613,0.0005792788928824746,-0.0005792788928824746
191.614,0.0014439519868048617,0.0014439519868048617
191.615,0.002974307613702647,0.002974307613702647
191.616,0.0034630064709835757,0.0034630064709835757
191.61700000000002,0.002700136609623923,0.002700136609623923
191.618,0.0008860774584808043,0.0008860774584808043
191.619,0.0014312939925981956,-0.0014312939925981956
191.62,0.003535539758419209,-0.003535539758419209
191.621,0.00477904802886734,-0.00477904802886734
191.622,0.004800051898177811,-0.004800051898177811
191.62300000000002,0.003645596717591098,-0.003645596717591098
191.624,0.0017571280919890869,-0.0017571280919890869
191.625,0.00017879593033253623,0.00017879593033253623
191.626,0.001466159507693055,0.001466159507693055
191.627,0.0016425445038356682,0.0016425445038356682
191.62800000000001,0.0006464508721449713,0.0006464508721449713
191.62900000000002,0.0011501780207655982,-0.0011501780207655982
191.63,0.0030586255713791256,-0.0030586255713791256
191.631,0.004303251608435744,-0.004303251608435744
191.632,0.004289361422546214,-0.004289361422546214
191.633,0.00281950462892488,-0.00281950462892488
191.63400000000001,0.00018412277344324976,-0.00018412277344324976
191.63500000000002,0.0029069523698118673,0.0029069523698118673
191.636,0.0055333730771963165,0.0055333730771963165
191.637,0.006848193785443291,0.006848193785443291
191.638,0.006346236458973717,0.006346236458973717
191.639,0.004030763336380056,0.004030763336380056
191.64000000000001,0.0004249731391352122,0.0004249731391352122
191.64100000000002,0.0035752470943046424,-0.0035752470943046424
191.642,0.0069603101900629965,-0.0069603101900629965
191.643,0.00889604741835666,-0.00889604741835666
191.644,0.008953757128308962,-0.008953757128308962
191.645,0.0072132524949667,-0.0072132524949667
191.64600000000002,0.004213311666274498,-0.004213311666274498
191.64700000000002,0.0007727494498687914,-0.0007727494498687914
191.648,0.0022556362069670534,0.0022556362069670534
191.649,0.004219122239820358,0.004219122239820358
191.65,0.004817729548938583,0.004817729548938583
191.651,0.004137684503651197,0.004137684503651197
191.65200000000002,0.0025693486659395396,0.0025693486659395396
191.65300000000002,0.0006500229908767464,0.0006500229908767464
191.654,0.0011082059585000505,-0.0011082059585000505
191.655,0.00234817343103249,-0.00234817343103249
191.656,0.002920028374909843,-0.002920028374909843
191.657,0.002854063562249714,-0.002854063562249714
191.65800000000002,0.0022816612933110056,-0.0022816612933110056
191.65900000000002,0.001348194393107221,-0.001348194393107221
191.66,0.00015882772375152245,-0.00015882772375152245
191.661,0.0012215273878485521,0.0012215273878485521
191.662,0.0027206119645731817,0.0027206119645731817
191.663,0.004194193660303679,0.004194193660303679
191.66400000000002,0.005385406733207827,0.005385406733207827
191.66500000000002,0.00594109582789521,0.00594109582789521
191.666,0.005494698131625851,0.005494698131625851
191.667,0.003795255545106746,0.003795255545106746
191.668,0.0008377852377459894,0.0008377852377459894
191.669,0.003058219435400178,-0.003058219435400178
191.67000000000002,0.0072633428193614,-0.0072633428193614
191.67100000000002,0.010957602894642352,-0.010957602894642352
191.672,0.013329436377144812,-0.013329436377144812
191.673,0.013797999880352511,-0.013797999880352511
191.674,0.012188925642680547,-0.012188925642680547
191.675,0.008803677197836137,-0.008803677197836137
191.67600000000002,0.004353949639688016,-0.004353949639688016
191.67700000000002,0.0002247910541951474,0.0002247910541951474
191.678,0.004026828602782912,0.004026828602782912
191.679,0.006419903930509908,0.006419903930509908
191.68,0.007204058255972336,0.007204058255972336
191.681,0.006637120020892692,0.006637120020892692
191.68200000000002,0.005321014471627951,0.005321014471627951
191.68300000000002,0.003987667542925098,0.003987667542925098
191.684,0.0032549057369728016,0.0032549057369728016
191.685,0.003430954583863152,0.003430954583863152
191.686,0.004428434976320623,0.004428434976320623
191.687,0.005811452259832806,0.005811452259832806
191.68800000000002,0.006955293528715696,0.006955293528715696
191.68900000000002,0.007262261559928868,0.007262261559928868
191.69,0.0063610686106180606,0.0063610686106180606
191.691,0.004225737211869967,0.004225737211869967
191.692,0.00117936545394903,0.00117936545394903
191.693,0.0022122987943501943,-0.0022122987943501943
191.69400000000002,0.005316548388061682,-0.005316548388061682
191.69500000000002,0.007617373672341784,-0.007617373672341784
191.696,0.008847173090085734,-0.008847173090085734
191.697,0.009028139321692202,-0.009028139321692202
191.698,0.008418133471703445,-0.008418133471703445
191.699,0.0073885921135934595,-0.0073885921135934595
191.70000000000002,0.0062829528205577455,-0.0062829528205577455
191.70100000000002,0.005306635200520867,-0.005306635200520867
191.702,0.004484023547641387,-0.004484023547641387
191.703,0.003690839346558318,-0.003690839346558318
191.704,0.0027421722882238248,-0.0027421722882238248
191.705,0.0014974712333591497,-0.0014974712333591497
191.70600000000002,5.967619147734705e-05,5.967619147734705e-05
191.70700000000002,0.0017967703873632084,0.0017967703873632084
191.708,0.0034696776095934044,0.0034696776095934044
191.709,0.004804898492268226,0.004804898492268226
191.71,0.005593380213295436,0.005593380213295436
191.711,0.005759517919870785,0.005759517919870785
191.71200000000002,0.005380013253924767,0.005380013253924767
191.71300000000002,0.004647406945979448,0.004647406945979448
191.714,0.003794342733404077,0.003794342733404077
191.715,0.0030088389830268047,0.0030088389830268047
191.716,0.002372923067096497,0.002372923067096497
191.717,0.0018466247119014421,0.0018466247119014421
191.71800000000002,0.0013009905850782377,0.0013009905850782377
191.71900000000002,0.0005848225795750095,0.0005848225795750095
191.72,0.0004024229780463722,-0.0004024229780463722
191.721,0.001660232616527243,-0.001660232616527243
191.722,0.0030777182277831835,-0.0030777182277831835
191.723,0.004467093261385092,-0.004467093261385092
191.72400000000002,0.005624834965465778,-0.005624834965465778
191.72500000000002,0.0063953121518362434,-0.0063953121518362434
191.726,0.006712042651575618,-0.006712042651575618
191.727,0.006602136504579487,-0.006602136504579487
191.728,0.00615538012509359,-0.00615538012509359
191.729,0.005474175635383101,-0.005474175635383101
191.73000000000002,0.004628072578484078,-0.004628072578484078
191.73100000000002,0.0036338366335804894,-0.0036338366335804894
191.732,0.0024700790995852134,-0.0024700790995852134
191.733,0.0011194141875325748,-0.0011194141875325748
191.734,0.0003822843252727292,0.0003822843252727292
191.735,0.0019148432902257278,0.0019148432902257278
191.73600000000002,0.0032801882623000036,0.0032801882623000036
191.737,0.00425033279372736,0.00425033279372736
191.738,0.004642904907473095,0.004642904907473095
191.739,0.00439624473460639,0.00439624473460639
191.74,0.003612589473373809,0.003612589473373809
191.741,0.0025469841491476395,0.0025469841491476395
191.74200000000002,0.0015386231640601865,0.0015386231640601865
191.743,0.0009035143416067387,0.0009035143416067387
191.744,0.0008241789240582911,0.0008241789240582911
191.745,0.0012766330894338949,0.0012766330894338949
191.746,0.0020245342468945015,0.0020245342468945015
191.747,0.0026880530047265396,0.0026880530047265396
191.74800000000002,0.0028683786929158414,0.0028683786929158414
191.749,0.0022874455728505777,0.0022874455728505777
191.75,0.0008946381071250138,0.0008946381071250138
191.751,0.0010985570189449506,-0.0010985570189449506
191.752,0.0032713088789821333,-0.0032713088789821333
191.75300000000001,0.005118800309151588,-0.005118800309151588
191.75400000000002,0.006209359887778598,-0.006209359887778598
191.755,0.006320180387823821,-0.006320180387823821
191.756,0.0055045951429788745,-0.0055045951429788745
191.757,0.004066888445775504,-0.004066888445775504
191.758,0.002452682216961928,-0.002452682216961928
191.75900000000001,0.0010928346719843076,-0.0010928346719843076
191.76000000000002,0.00025579195529402976,-0.00025579195529402976
191.761,3.8883743461138065e-05,3.8883743461138065e-05
191.762,1.4121674866675758e-05,1.4121674866675758e-05
191.763,3.7129919129726034e-05,3.7129919129726034e-05
191.764,0.0004634261768882224,0.0004634261768882224
191.76500000000001,0.00147877895416092,0.00147877895416092
191.76600000000002,0.0029970671554754003,0.0029970671554754003
191.767,0.004653976820634717,0.004653976820634717
191.768,0.005903927167643119,0.005903927167643119
191.769,0.006191764367735163,0.006191764367735163
191.77,0.0051439531457189176,0.0051439531457189176
191.77100000000002,0.002715561523971514,0.002715561523971514
191.77200000000002,0.0007576850447741102,-0.0007576850447741102
191.773,0.004622892407318875,-0.004622892407318875
191.774,0.008072501470156038,-0.008072501470156038
191.775,0.010357518332607287,-0.010357518332607287
191.776,0.010987251400600263,-0.010987251400600263
191.77700000000002,0.009856210063254777,-0.009856210063254777
191.77800000000002,0.007262430232022482,-0.007262430232022482
191.779,0.003815615678510749,-0.003815615678510749
191.78,0.00026670972640348463,-0.00026670972640348463
191.781,0.0026877989191996976,0.0026877989191996976
191.782,0.004569701194436244,0.004569701194436244
191.78300000000002,0.005208005915406515,0.005208005915406515
191.78400000000002,0.004736212565825087,0.004736212565825087
191.785,0.0035100862238361666,0.0035100862238361666
191.786,0.0019801868116870055,0.0019801868116870055
191.787,0.0005621751778994244,0.0005621751778994244
191.788,0.0004579975891393228,-0.0004579975891393228
191.78900000000002,0.0009637669466658086,-0.0009637669466658086
191.79000000000002,0.0009929550534102832,-0.0009929550534102832
191.791,0.0006855166808829506,-0.0006855166808829506
191.792,0.0002193551870020926,-0.0002193551870020926
191.793,0.000242965236899791,0.000242965236899791
191.794,0.0005839638505487301,0.0005839638505487301
191.79500000000002,0.000737359483561502,0.000737359483561502
191.79600000000002,0.0006798984025238762,0.0006798984025238762
191.797,0.00042103047849500065,0.00042103047849500065
191.798,1.4529622793738496e-06,-1.4529622793738496e-06
191.799,0.0005196225467879514,-0.0005196225467879514
191.8,0.0010345110495920543,-0.0010345110495920543
191.80100000000002,0.0014257009727397284,-0.0014257009727397284
191.80200000000002,0.0015771240682727551,-0.0015771240682727551
191.803,0.0014160287802048926,-0.0014160287802048926
191.804,0.0009524903612801187,-0.0009524903612801187
191.805,0.00030136549400502867,-0.00030136549400502867
191.806,0.0003292263082412961,0.0003292263082412961
191.80700000000002,0.0006885389816701782,0.0006885389816701782
191.80800000000002,0.0005633981162921708,0.0005633981162921708
191.809,0.00013595422743591874,-0.00013595422743591874
191.81,0.0013156091662573889,-0.0013156091662573889
191.811,0.0026907775938172255,-0.0026907775938172255
191.812,0.003844023682906601,-0.003844023682906601
191.81300000000002,0.004339396619428158,-0.004339396619428158
191.81400000000002,0.003861483329044285,-0.003861483329044285
191.815,0.0023355246015070654,-0.0023355246015070654
191.816,1.4001633391435846e-05,1.4001633391435846e-05
191.817,0.0026926276094658254,0.0026926276094658254
191.818,0.005052403673718392,0.005052403673718392
191.81900000000002,0.006466219489272324,0.006466219489272324
191.82000000000002,0.006509423126497816,0.006509423126497816
191.821,0.005092620986644291,0.005092620986644291
191.822,0.0025021048715165545,0.0025021048715165545
191.823,0.0006683200426553166,-0.0006683200426553166
191.824,0.0036767731464038304,-0.0036767731464038304
191.82500000000002,0.005837752945710773,-0.005837752945710773
191.82600000000002,0.006710643760725866,-0.006710643760725866
191.827,0.006215772940184805,-0.006215772940184805
191.828,0.0046438316887313594,-0.0046438316887313594
191.829,0.0025574356053981217,-0.0025574356053981217
191.83,0.0006165584701193448,-0.0006165584701193448
191.83100000000002,0.0006179965476533052,0.0006179965476533052
191.83200000000002,0.0008439148944721075,0.0008439148944721075
191.833,9.377874910672347e-05,9.377874910672347e-05
191.834,0.001290133027472424,-0.001290133027472424
191.835,0.002769951891810514,-0.002769951891810514
191.836,0.003776844960611552,-0.003776844960611552
191.83700000000002,0.00387550050400174,-0.00387550050400174
191.83800000000002,0.0028818488031626525,-0.0028818488031626525
191.839,0.0009051402773820348,-0.0009051402773820348
191.84,0.001689856625913033,0.001689856625913033
191.841,0.004381681352742662,0.004381681352742662
191.842,0.0066187092543837115,0.0066187092543837115
191.84300000000002,0.007937667756207707,0.007937667756207707
191.84400000000002,0.00804709770153273,0.00804709770153273
191.845,0.006863820907427918,0.006863820907427918
191.846,0.004505822618359599,0.004505822618359599
191.847,0.0012552372069881191,0.0012552372069881191
191.848,0.0024922213309409454,-0.0024922213309409454
191.84900000000002,0.006279176848252021,-0.006279176848252021
191.85000000000002,0.009635080666767121,-0.009635080666767121
191.851,0.012122832646636945,-0.012122832646636945
191.852,0.013387024873221616,-0.013387024873221616
191.853,0.013204015369262075,-0.013204015369262075
191.854,0.011527491418330892,-0.011527491418330892
191.85500000000002,0.008517138043949312,-0.008517138043949312
191.85600000000002,0.004536327212697867,-0.004536327212697867
191.857,0.00010950270285977931,-0.00010950270285977931
191.858,0.004159545309155388,0.004159545309155388
191.859,0.007694467854180433,0.007694467854180433
191.86,0.010053858903750285,0.010053858903750285
191.86100000000002,0.011011786283667757,0.011011786283667757
191.862,0.010589371214091526,0.010589371214091526
191.863,0.009028928311401913,0.009028928311401913
191.864,0.006719157601213378,0.006719157601213378
191.865,0.004094501072324521,0.004094501072324521
191.866,0.0015388154597011019,0.0015388154597011019
191.86700000000002,0.0006796237486631163,-0.0006796237486631163
191.868,0.0024269919067449633,-0.0024269919067449633
191.869,0.0036787127838138057,-0.0036787127838138057
191.87,0.00446752157140398,-0.00446752157140398
191.871,0.004830224096873917,-0.004830224096873917
191.872,0.00477657433278572,-0.00477657433278572
191.87300000000002,0.0042925170290772485,-0.0042925170290772485
191.874,0.0033741647070259545,-0.0033741647070259545
191.875,0.002074614340371164,-0.002074614340371164
191.876,0.0005388115497474308,-0.0005388115497474308
191.877,0.000994910257253293,0.000994910257253293
191.87800000000001,0.002235303166417368,0.002235303166417368
191.87900000000002,0.002912162610691964,0.002912162610691964
191.88,0.002860172856073912,0.002860172856073912
191.881,0.0020822073135989315,0.0020822073135989315
191.882,0.0007661817333163335,0.0007661817333163335
191.883,0.0007556582412061988,-0.0007556582412061988
191.88400000000001,0.002096167961420624,-0.002096167961420624
191.88500000000002,0.0029246843749349436,-0.0029246843749349436
191.886,0.003064434514071915,-0.003064434514071915
191.887,0.002543355817102096,-0.002543355817102096
191.888,0.001580682735805973,-0.001580682735805973
191.889,0.0005132036254273806,-0.0005132036254273806
191.89000000000001,0.00031436548444698073,0.00031436548444698073
191.89100000000002,0.0006582487960830536,0.0006582487960830536
191.892,0.0004476365010856796,0.0004476365010856796
191.893,0.00020307396271732937,-0.00020307396271732937
191.894,0.001043747099828073,-0.001043747099828073
191.895,0.001780269686978162,-0.001780269686978162
191.89600000000002,0.002175139692483943,-0.002175139692483943
191.89700000000002,0.002121608084382332,-0.002121608084382332
191.898,0.0016669489225443273,-0.0016669489225443273
191.899,0.0009797578529970354,-0.0009797578529970354
191.9,0.0002767396128422241,-0.0002767396128422241
191.901,0.00026134559314507544,0.00026134559314507544
191.90200000000002,0.0005521717654038107,0.0005521717654038107
191.90300000000002,0.0006298845317416712,0.0006298845317416712
191.904,0.000613750897107521,0.000613750897107521
191.905,0.0006419357231008233,0.0006419357231008233
191.906,0.0007984377713449932,0.0007984377713449932
191.907,0.0010636931910361026,0.0010636931910361026
191.90800000000002,0.0013099116476171318,0.0013099116476171318
191.90900000000002,0.0013445277475943082,0.0013445277475943082
191.91,0.000986048769412197,0.000986048769412197
191.911,0.0001434225582787713,0.0001434225582787713
191.912,0.0011320639109688516,-0.0011320639109688516
191.913,0.002643529726607834,-0.002643529726607834
191.91400000000002,0.0040970012379070485,-0.0040970012379070485
191.91500000000002,0.00518533260090274,-0.00518533260090274
191.916,0.005677807114612069,-0.005677807114612069
191.917,0.005483493123757338,-0.005483493123757338
191.918,0.0046663609714715035,-0.0046663609714715035
191.919,0.0034084824707681844,-0.0034084824707681844
191.92000000000002,0.0019373376910224722,-0.0019373376910224722
191.92100000000002,0.0004467441676544722,-0.0004467441676544722
191.922,0.0009570948091809891,0.0009570948091809891
191.923,0.0022633728679561102,0.0022633728679561102
191.924,0.003516234659191872,0.003516234659191872
191.925,0.004744290338842639,0.004744290338842639
191.92600000000002,0.005891828651469989,0.005891828651469989
191.92700000000002,0.00678473036203093,0.00678473036203093
191.928,0.007152052345110413,0.007152052345110413
191.929,0.006703012863438285,0.006703012863438285
191.93,0.005236442560172232,0.005236442560172232
191.931,0.002744318230117381,0.002744318230117381
191.93200000000002,0.0005309574955534928,-0.0005309574955534928
191.93300000000002,0.004112853503702516,-0.004112853503702516
191.934,0.007383957200384229,-0.007383957200384229
191.935,0.009732874468555232,-0.009732874468555232
191.936,0.010711603527705007,-0.010711603527705007
191.937,0.010154464491026789,-0.010154464491026789
191.93800000000002,0.00822055216756419,-0.00822055216756419
191.93900000000002,0.005345795396816189,-0.005345795396816189
191.94,0.002119893639580315,-0.002119893639580315
191.941,0.0008724087978374479,0.0008724087978374479
191.942,0.0031954629273211015,0.0031954629273211015
191.943,0.004648362780781717,0.004648362780781717
191.94400000000002,0.0052693583552482215,0.0052693583552482215
191.94500000000002,0.005264745829923091,0.005264745829923091
191.946,0.004893611785125644,0.004893611785125644
191.947,0.0043536594446792545,0.0043536594446792545
191.948,0.003710639222246969,0.003710639222246969
191.949,0.002895865335353004,0.002895865335353004
191.95000000000002,0.001769652264409923,0.001769652264409923
191.95100000000002,0.0002230411937966309,0.0002230411937966309
191.952,0.0017247757249258355,-0.0017247757249258355
191.953,0.0038749061845709067,-0.0038749061845709067
191.954,0.005867986637458925,-0.005867986637458925
191.955,0.007272792759180794,-0.007272792759180794
191.95600000000002,0.007716447228382414,-0.007716447228382414
191.95700000000002,0.007011593545547745,-0.007011593545547745
191.958,0.005234850729923576,-0.005234850729923576
191.959,0.0027262269745423296,-0.0027262269745423296
191.96,5.706559789008404e-06,-5.706559789008404e-06
191.961,0.0023683264577325867,0.0023683264577325867
191.96200000000002,0.003953800767441668,0.003953800767441668
191.96300000000002,0.004542706559641107,0.004542706559641107
191.964,0.004203872164819788,0.004203872164819788
191.965,0.003237907242713924,0.003237907242713924
191.966,0.0020610082500005828,0.0020610082500005828
191.967,0.0010581290384799476,0.0010581290384799476
191.96800000000002,0.00045592696512803673,0.00045592696512803673
191.96900000000002,0.00025856019523925745,0.00025856019523925745
191.97,0.00026740858437610026,0.00026740858437610026
191.971,0.00017667323794439075,0.00017667323794439075
191.972,0.0002895095815871021,-0.0002895095815871021
191.973,0.0012474399133721263,-0.0012474399133721263
191.97400000000002,0.0025787767016525708,-0.0025787767016525708
191.97500000000002,0.003939260630447745,-0.003939260630447745
191.976,0.004852720932346506,-0.004852720932346506
191.977,0.0048632625894689885,-0.0048632625894689885
191.978,0.0036983935828313456,-0.0036983935828313456
191.979,0.0013905856080718834,-0.0013905856080718834
191.98000000000002,0.0016840389464152863,0.0016840389464152863
191.98100000000002,0.004867119095907027,0.004867119095907027
191.982,0.007367290643445149,0.007367290643445149
191.983,0.008458946265419808,0.008458946265419808
191.984,0.007677254518686691,0.007677254518686691
191.985,0.004956329674059281,0.004956329674059281
191.98600000000002,0.0006722945299888309,0.0006722945299888309
191.987,0.004422011817688402,-0.004422011817688402
191.988,0.00935584527624347,-0.00935584527624347
191.989,0.013154402290458746,-0.013154402290458746
191.99,0.015055896803328915,-0.015055896803328915
191.991,0.014679969303758067,-0.014679969303758067
191.99200000000002,0.012108081144766926,-0.012108081144766926
191.993,0.007858171374936381,-0.007858171374936381
191.994,0.002761079946377417,-0.002761079946377417
191.995,0.0022308936240724602,0.0022308936240724602
191.996,0.006257557370442484,0.006257557370442484
191.997,0.008736205744711619,0.008736205744711619
191.99800000000002,0.009475611832588372,0.009475611832588372
191.999,0.008692625454040545,0.008692625454040545
192.0,0.006928827652762104,0.006928827652762104
192.001,0.004889120006489266,0.004889120006489266
192.002,0.0032437653313505854,0.0032437653313505854
192.00300000000001,0.0024452561191975444,0.0024452561191975444
192.00400000000002,0.0026084912412301896,0.0026084912412301896
192.005,0.0034870823163141713,0.0034870823163141713
192.006,0.004553507201167888,0.004553507201167888
192.007,0.005162438481155057,0.005162438481155057
192.008,0.0047525302176579355,0.0047525302176579355
192.00900000000001,0.0030293361581160017,0.0030293361581160017
192.01000000000002,7.526226324949094e-05,7.526226324949094e-05
192.011,0.0036483658541199998,-0.0036483658541199998
192.012,0.007411579006370494,-0.007411579006370494
192.013,0.01040955946585135,-0.01040955946585135
192.014,0.011984984444787081,-0.011984984444787081
192.01500000000001,0.011813378074969924,-0.011813378074969924
192.01600000000002,0.009995048147345916,-0.009995048147345916
192.017,0.007024121133094989,-0.007024121133094989
192.018,0.0036422945054337364,-0.0036422945054337364
192.019,0.000620869131039279,-0.000620869131039279
192.02,0.0014621209417543376,0.0014621209417543376
192.02100000000002,0.0023802494903040405,0.0023802494903040405
192.02200000000002,0.002302667967834381,0.002302667967834381
192.023,0.0017100037537741942,0.0017100037537741942
192.024,0.0012098599435094249,0.0012098599435094249
192.025,0.001312743652947482,0.001312743652947482
192.026,0.0022430160430834413,0.0022430160430834413
192.02700000000002,0.003848783639364171,0.003848783639364171
192.02800000000002,0.005642510805759752,0.005642510805759752
192.029,0.006960782152617382,0.006960782152617382
192.03,0.00719136873188103,0.00719136873188103
192.031,0.005992146763517677,0.005992146763517677
192.032,0.0034277513815794934,0.0034277513815794934
192.03300000000002,2.387426816009659e-05,-2.387426816009659e-05
192.03400000000002,0.003600097585981617,-0.003600097585981617
192.035,0.006477362078793274,-0.006477362078793274
192.036,0.00801789288760119,-0.00801789288760119
192.037,0.007958886008127691,-0.007958886008127691
192.038,0.006482447463113286,-0.006482447463113286
192.03900000000002,0.00414412122924982,-0.00414412122924982
192.04000000000002,0.0016849737825149233,-0.0016849737825149233
192.041,0.00020909235553014642,0.00020909235553014642
192.042,0.0011200455502037936,0.0011200455502037936
192.043,0.001012106133240493,0.001012106133240493
192.044,0.00021178121338187721,0.00021178121338187721
192.04500000000002,0.0007360248279969842,-0.0007360248279969842
192.04600000000002,0.001282854593022591,-0.001282854593022591
192.047,0.0010855659145988551,-0.0010855659145988551
192.048,0.00013519071985940558,-0.00013519071985940558
192.049,0.0012395344680323497,0.0012395344680323497
192.05,0.0024947750641165513,0.0024947750641165513
192.05100000000002,0.0030763814007468047,0.0030763814007468047
192.05200000000002,0.0026335129882680704,0.0026335129882680704
192.053,0.0011641020889486167,0.0011641020889486167
192.054,0.0009614414677740696,-0.0009614414677740696
192.055,0.0031094903547828055,-0.0031094903547828055
192.056,0.004589979928177142,-0.004589979928177142
192.05700000000002,0.004890607502243395,-0.004890607502243395
192.05800000000002,0.0038578072951157187,-0.0038578072951157187
192.059,0.001761192783701264,-0.001761192783701264
192.06,0.000782531703416552,0.000782531703416552
192.061,0.0030024190697920208,0.0030024190697920208
192.062,0.0042193209066425505,0.0042193209066425505
192.06300000000002,0.0040633897215897425,0.0040633897215897425
192.06400000000002,0.0025909382937132205,0.0025909382937132205
192.065,0.00026256277300699656,0.00026256277300699656
192.066,0.0022089280594791965,-0.0022089280594791965
192.067,0.004088955954698377,-0.004088955954698377
192.068,0.00485291338991933,-0.00485291338991933
192.06900000000002,0.004343219756716464,-0.004343219756716464
192.07000000000002,0.0028023517565372077,-0.0028023517565372077
192.071,0.0007751656070420124,-0.0007751656070420124
192.072,0.0010823264498765089,0.0010823264498765089
192.073,0.002220483617507644,0.002220483617507644
192.074,0.002366231858050619,0.002366231858050619
192.07500000000002,0.0015911490243737557,0.0015911490243737557
192.07600000000002,0.0002596185116043833,0.0002596185116043833
192.077,0.0011189346238461644,-0.0011189346238461644
192.078,0.0020775799617346164,-0.0020775799617346164
192.079,0.0023514831222892444,-0.0023514831222892444
192.08,0.0019543336121451526,-0.0019543336121451526
192.08100000000002,0.0011478800577137498,-0.0011478800577137498
192.08200000000002,0.0003199170819613821,-0.0003199170819613821
192.083,0.0001812186553160814,0.0001812186553160814
192.084,0.00019261996604210711,0.00019261996604210711
192.085,0.0001920068181568731,-0.0001920068181568731
192.086,0.0006537328647235978,-0.0006537328647235978
192.08700000000002,0.0007728503255114924,-0.0007728503255114924
192.08800000000002,0.00020283791700781057,-0.00020283791700781057
192.089,0.0011685453995486136,0.0011685453995486136
192.09,0.0031306607547483896,0.0031306607547483896
192.091,0.005170083692097198,0.005170083692097198
192.092,0.0065995102784006925,0.0065995102784006925
192.09300000000002,0.006759008836006936,0.006759008836006936
192.09400000000002,0.005228221487710135,0.005228221487710135
192.095,0.0019829473048134593,0.0019829473048134593
192.096,0.0025543993054672636,-0.0025543993054672636
192.097,0.007589100755553914,-0.007589100755553914
192.098,0.012134550168687365,-0.012134550168687365
192.09900000000002,0.015249055799462194,-0.015249055799462194
192.10000000000002,0.016263848981241048,-0.016263848981241048
192.101,0.014941232917146063,-0.014941232917146063
192.102,0.011523332261106646,-0.011523332261106646
192.103,0.006663469370344031,-0.006663469370344031
192.104,0.0012639402707191386,-0.0012639402707191386
192.10500000000002,0.0037332416601531184,0.0037332416601531184
192.10600000000002,0.007547896975016667,0.007547896975016667
192.107,0.009708068783789214,0.009708068783789214
192.108,0.010112763463300084,0.010112763463300084
192.109,0.009006558199283643,0.009006558199283643
192.11,0.006883419173881232,0.006883419173881232
192.11100000000002,0.004351226136551954,0.004351226136551954
192.112,0.001992535111368013,0.001992535111368013
192.113,0.0002518570354580768,0.0002518570354580768
192.114,0.0006315869110527124,-0.0006315869110527124
192.115,0.0006398862556165804,-0.0006398862556165804
192.116,5.304429913599065e-05,5.304429913599065e-05
192.11700000000002,0.00114319355662765,0.00114319355662765
192.118,0.0022740027662975742,0.0022740027662975742
192.119,0.003113734399255148,0.003113734399255148
192.12,0.0034193453160278322,0.0034193453160278322
192.121,0.003077358152937513,0.003077358152937513
192.122,0.0021165447567988434,0.0021165447567988434
192.12300000000002,0.0006918888231441625,0.0006918888231441625
192.124,0.0009558377137611167,-0.0009558377137611167
192.125,0.0025559223892800665,-0.0025559223892800665
192.126,0.003866565506878777,-0.003866565506878777
192.127,0.004723213956639311,-0.004723213956639311
192.12800000000001,0.005064993970288586,-0.005064993970288586
192.12900000000002,0.004933303472076679,-0.004933303472076679
192.13,0.004444244047472324,-0.004444244047472324
192.131,0.00374422740309797,-0.00374422740309797
192.132,0.002963257337738473,-0.002963257337738473
192.133,0.0021810783320782637,-0.0021810783320782637
192.13400000000001,0.0014169900559061327,-0.0014169900559061327
192.13500000000002,0.0006458333382284418,-0.0006458333382284418
192.136,0.00016683135178023321,0.00016683135178023321
192.137,0.0010246447157369605,0.0010246447157369605
192.138,0.001872102360238777,0.001872102360238777
192.139,0.002590808020937101,0.002590808020937101
192.14000000000001,0.0030243851595611,0.0030243851595611
192.14100000000002,0.0030252719292732226,0.0030252719292732226
192.142,0.002507707599005435,0.002507707599005435
192.143,0.001487659957253699,0.001487659957253699
192.144,9.386175515886039e-05,9.386175515886039e-05
192.145,0.0014563860478390507,-0.0014563860478390507
192.14600000000002,0.002910642091334826,-0.002910642091334826
192.14700000000002,0.004047215879533389,-0.004047215879533389
192.148,0.004731618783598464,-0.004731618783598464
192.149,0.004944304095319522,-0.004944304095319522
192.15,0.004770178696606887,-0.004770178696606887
192.151,0.0043539302580735345,-0.0043539302580735345
192.15200000000002,0.0038377295380908273,-0.0038377295380908273
192.15300000000002,0.003304678982738902,-0.003304678982738902
192.154,0.002749753586232789,-0.002749753586232789
192.155,0.002090192569139734,-0.002090192569139734
192.156,0.0012126454894208565,-0.0012126454894208565
192.157,4.0071129075281655e-05,-4.0071129075281655e-05
192.15800000000002,0.001407268236380474,0.001407268236380474
192.15900000000002,0.0029819308088653595,0.0029819308088653595
192.16,0.004425931142747588,0.004425931142747588
192.161,0.0054331977912883325,0.0054331977912883325
192.162,0.00574031543941886,0.00574031543941886
192.163,0.0052164029823968195,0.0052164029823968195
192.16400000000002,0.003920979366519676,0.003920979366519676
192.16500000000002,0.0021074304959137645,0.0021074304959137645
192.166,0.0001666347171841004,0.0001666347171841004
192.167,0.0014750762548242406,-0.0014750762548242406
192.168,0.0024737452176555818,-0.0024737452176555818
192.169,0.0026651813761706675,-0.0026651813761706675
192.17000000000002,0.0021110692997593624,-0.0021110692997593624
192.17100000000002,0.0010785183996243127,-0.0010785183996243127
192.172,4.14330620870713e-05,4.14330620870713e-05
192.173,0.00085159616957282,0.00085159616957282
192.174,0.0010665091114765417,0.0010665091114765417
192.175,0.0005943562990963869,0.0005943562990963869
192.17600000000002,0.00044154902925635587,-0.00044154902925635587
192.17700000000002,0.0017469937201909163,-0.0017469937201909163
192.178,0.002951525952448308,-0.002951525952448308
192.179,0.0037229725509980082,-0.0037229725509980082
192.18,0.00386596668100447,-0.00386596668100447
192.181,0.0033748115780456154,-0.0033748115780456154
192.18200000000002,0.0024263011275302776,-0.0024263011275302776
192.18300000000002,0.0013173573922594807,-0.0013173573922594807
192.184,0.00036926709579095427,-0.00036926709579095427
192.185,0.00017036700091434612,0.00017036700091434612
192.186,0.0001977102672291007,0.0001977102672291007
192.187,0.000225140222126095,-0.000225140222126095
192.18800000000002,0.0008998956055298658,-0.0008998956055298658
192.18900000000002,0.0015614084728544687,-0.0015614084728544687
192.19,0.001962833889307136,-0.001962833889307136
192.191,0.0019495419410957087,-0.0019495419410957087
192.192,0.0015000459664189691,-0.0015000459664189691
192.193,0.0007239264416121035,-0.0007239264416121035
192.19400000000002,0.0001793176702871519,0.0001793176702871519
192.19500000000002,0.0009849144598840696,0.0009849144598840696
192.196,0.0015095140542394467,0.0015095140542394467
192.197,0.0016597459401080014,0.0016597459401080014
192.198,0.00144983558312864,0.00144983558312864
192.199,0.000986128735733453,0.000986128735733453
192.20000000000002,0.00042665801985409407,0.00042665801985409407
192.20100000000002,6.937427481391738e-05,-6.937427481391738e-05
192.202,0.000385890034787227,-0.000385890034787227
192.203,0.0004754842132573486,-0.0004754842132573486
192.204,0.00036098477793552786,-0.00036098477793552786
192.205,0.0001158939877306801,-0.0001158939877306801
192.20600000000002,0.00016711712582624503,0.00016711712582624503
192.20700000000002,0.0004078065578389766,0.0004078065578389766
192.208,0.0005596134196031755,0.0005596134196031755
192.209,0.0006147810215350851,0.0006147810215350851
192.21,0.0005936638435992085,0.0005936638435992085
192.211,0.0005239886598197038,0.0005239886598197038
192.21200000000002,0.0004189638963931023,0.0004189638963931023
192.21300000000002,0.00026309336477876654,0.00026309336477876654
192.214,1.15603678045869e-05,1.15603678045869e-05
192.215,0.00039579868968406864,-0.00039579868968406864
192.216,0.0010100267522304498,-0.0010100267522304498
192.217,0.0018459751991408825,-0.0018459751991408825
192.21800000000002,0.0028618598162233146,-0.0028618598162233146
192.21900000000002,0.003953166830771144,-0.003953166830771144
192.22,0.00496470669226056,-0.00496470669226056
192.221,0.005719376871266242,-0.005719376871266242
192.222,0.006057126592195512,-0.006057126592195512
192.223,0.0058741719919796695,-0.0058741719919796695
192.22400000000002,0.005151734506420354,-0.005151734506420354
192.22500000000002,0.0039658109981107435,-0.0039658109981107435
192.226,0.002474250187044109,-0.002474250187044109
192.227,0.0008834894858766341,-0.0008834894858766341
192.228,0.0005969609309818697,0.0005969609309818697
192.229,0.0018004790247638518,0.0018004790247638518
192.23000000000002,0.0026374099336170004,0.0026374099336170004
192.23100000000002,0.0031079484891883094,0.0031079484891883094
192.232,0.003290355433815923,0.003290355433815923
192.233,0.0033081190876196424,0.0033081190876196424
192.234,0.0032859190399022425,0.0032859190399022425
192.235,0.0033077152707944655,0.0033077152707944655
192.23600000000002,0.0033897864684036784,0.0033897864684036784
192.237,0.003477069279953499,0.003477069279953499
192.238,0.0034639605344672403,0.0034639605344672403
192.239,0.003233021511260693,0.003233021511260693
192.24,0.002699219174658744,0.002699219174658744
192.241,0.0018453800089016726,0.0018453800089016726
192.24200000000002,0.0007371542336475222,0.0007371542336475222
192.243,0.00048775807695348875,-0.00048775807695348875
192.244,0.001653124265117959,-0.001653124265117959
192.245,0.002590102228143371,-0.002590102228143371
192.246,0.0031812337105522116,-0.0031812337105522116
192.247,0.003388876588265855,-0.003388876588265855
192.24800000000002,0.0032596337763776267,-0.0032596337763776267
192.249,0.002904259922439245,-0.002904259922439245
192.25,0.0024604883216055194,-0.0024604883216055194
192.251,0.0020515049048613412,-0.0020515049048613412
192.252,0.001753624679087403,-0.001753624679087403
192.25300000000001,0.0015828899506998072,-0.0015828899506998072
192.25400000000002,0.0015032511167548035,-0.0015032511167548035
192.255,0.0014512886760016115,-0.0014512886760016115
192.256,0.0013668735888030083,-0.0013668735888030083
192.257,0.0012177167681789135,-0.0012177167681789135
192.258,0.001008866383604259,-0.001008866383604259
192.25900000000001,0.0007746134518562822,-0.0007746134518562822
192.26000000000002,0.0005574694370599469,-0.0005574694370599469
192.261,0.00038409323932592774,-0.00038409323932592774
192.262,0.00024923589397302196,-0.00024923589397302196
192.263,0.00011544776272888097,-0.00011544776272888097
192.264,7.02861969106592e-05,7.02861969106592e-05
192.26500000000001,0.00034909800976145423,0.00034909800976145423
192.26600000000002,0.00072318166747683,0.00072318166747683
192.267,0.0011411241404350521,0.0011411241404350521
192.268,0.0015035916142804202,0.0015035916142804202
192.269,0.0016898585650824438,0.0016898585650824438
192.27,0.0015974724965484163,0.0015974724965484163
192.27100000000002,0.001181570270070548,0.001181570270070548
192.27200000000002,0.00047933666676394524,0.00047933666676394524
192.273,0.0003905555270138924,-0.0003905555270138924
192.274,0.0012553415284307496,-0.0012553415284307496
192.275,0.0019347996416666014,-0.0019347996416666014
192.276,0.0022924567337122706,-0.0022924567337122706
192.27700000000002,0.002274611567489169,-0.002274611567489169
192.27800000000002,0.0019242025950340438,-0.0019242025950340438
192.279,0.0013649369919598315,-0.0013649369919598315
192.28,0.0007611500727573905,-0.0007611500727573905
192.281,0.00026700099272957437,-0.00026700099272957437
192.282,1.8061990531821383e-05,1.8061990531821383e-05
192.28300000000002,7.325794426604179e-05,7.325794426604179e-05
192.28400000000002,4.690867090758889e-05,-4.690867090758889e-05
192.285,0.0002404625579203079,-0.0002404625579203079
192.286,0.00039904692596497143,-0.00039904692596497143
192.287,0.0004472234786650279,-0.0004472234786650279
192.288,0.00036660533582050014,-0.00036660533582050014
192.28900000000002,0.0001978491395791018,-0.0001978491395791018
192.29000000000002,2.2035227057259796e-05,-2.2035227057259796e-05
192.291,6.975151172369569e-05,6.975151172369569e-05
192.292,6.475693018285899e-06,6.475693018285899e-06
192.293,0.00024368566450276764,-0.00024368566450276764
192.294,0.0006699490342886164,-0.0006699490342886164
192.29500000000002,0.0012290985931625426,-0.0012290985931625426
192.29600000000002,0.0018616152960808205,-0.0018616152960808205
192.297,0.002504708442620029,-0.002504708442620029
192.298,0.0030962705883517357,-0.0030962705883517357
192.299,0.003569872244352873,-0.003569872244352873
192.3,0.003847111193571585,-0.003847111193571585
192.30100000000002,0.0038368167158941155,-0.0038368167158941155
192.30200000000002,0.003448849055250543,-0.003448849055250543
192.303,0.0026237324444030007,-0.0026237324444030007
192.304,0.0013705549180869183,-0.0013705549180869183
192.305,0.00020171775414948228,0.00020171775414948228
192.306,0.0018764464790679033,0.0018764464790679033
192.30700000000002,0.0033569028958441893,0.0033569028958441893
192.30800000000002,0.004329708941956031,0.004329708941956031
192.309,0.00455052386726589,0.00455052386726589
192.31,0.003926846569389523,0.003926846569389523
192.311,0.0025688204876318523,0.0025688204876318523
192.312,0.000785192227749886,0.000785192227749886
192.31300000000002,0.0009828147989580443,-0.0009828147989580443
192.31400000000002,0.002276545268909674,-0.002276545268909674
192.315,0.0027523722137590364,-0.0027523722137590364
192.316,0.0022906380728963402,-0.0022906380728963402
192.317,0.0010438918235597654,-0.0010438918235597654
192.318,0.0005959098374205268,0.0005959098374205268
192.31900000000002,0.0021063780013200165,0.0021063780013200165
192.32000000000002,0.0029895474214593765,0.0029895474214593765
192.321,0.0029253950461095423,0.0029253950461095423
192.322,0.001874753337525924,0.001874753337525924
192.323,9.672345003491052e-05,9.672345003491052e-05
192.324,0.0019275791677198398,-0.0019275791677198398
192.32500000000002,0.003642580534402061,-0.003642580534402061
192.32600000000002,0.004590642752492859,-0.004590642752492859
192.327,0.0045536062258234354,-0.0045536062258234354
192.328,0.0036170315235427458,-0.0036170315235427458
192.329,0.002135760968952052,-0.002135760968952052
192.33,0.0006121370220431954,-0.0006121370220431954
192.33100000000002,0.00047243605764527605,0.00047243605764527605
192.33200000000002,0.000816015349825109,0.000816015349825109
192.333,0.0003913755439278277,0.0003913755439278277
192.334,0.0005538947155370241,-0.0005538947155370241
192.335,0.0015918436092252062,-0.0015918436092252062
192.336,0.0022700971513812105,-0.0022700971513812105
192.33700000000002,0.002275058579951761,-0.002275058579951761
192.33800000000002,0.001545624818334492,-0.001545624818334492
192.339,0.00029779829568543945,-0.00029779829568543945
192.34,0.0010485403891376801,0.0010485403891376801
192.341,0.002015464321519338,0.002015464321519338
192.342,0.0022349497498610807,0.0022349497498610807
192.34300000000002,0.0015807081726277946,0.0015807081726277946
192.34400000000002,0.0002181129373947051,0.0002181129373947051
192.345,0.0014452808101133047,-0.0014452808101133047
192.346,0.0028918695564008807,-0.0028918695564008807
192.347,0.0036637321435506404,-0.0036637321435506404
192.348,0.00351233006230615,-0.00351233006230615
192.34900000000002,0.0024779305517652396,-0.0024779305517652396
192.35000000000002,0.0008730608483536878,-0.0008730608483536878
192.351,0.0008227086770320701,0.0008227086770320701
192.352,0.0021194959817019427,0.0021194959817019427
192.353,0.0026717538831427853,0.0026717538831427853
192.354,0.002379606103078874,0.002379606103078874
192.35500000000002,0.0014055322425773232,0.0014055322425773232
192.35600000000002,0.00010503274430690381,0.00010503274430690381
192.357,0.001100819248999911,-0.001100819248999911
192.358,0.0018646812819503498,-0.0018646812819503498
192.359,0.0020164541182802046,-0.0020164541182802046
192.36,0.0015987228851034084,-0.0015987228851034084
192.36100000000002,0.0008277562143875416,-0.0008277562143875416
192.362,3.5647110887656354e-07,-3.5647110887656354e-07
192.363,0.0006154277399928226,0.0006154277399928226
192.364,0.0008649946124304472,0.0008649946124304472
192.365,0.0007391031012008496,0.0007391031012008496
192.366,0.00034719001298308205,0.00034719001298308205
192.36700000000002,0.00015051493549501305,-0.00015051493549501305
192.368,0.0006196369645365662,-0.0006196369645365662
192.369,0.001003361201270806,-0.001003361201270806
192.37,0.0013280985909091367,-0.0013280985909091367
192.371,0.0016631158539842353,-0.0016631158539842353
192.372,0.002054989940364979,-0.002054989940364979
192.37300000000002,0.00246972205310183,-0.00246972205310183
192.374,0.002773305166378106,-0.002773305166378106
192.375,0.002765938918791389,-0.002765938918791389
192.376,0.0022619029087265793,-0.0022619029087265793
192.377,0.0011856000574500393,-0.0011856000574500393
192.37800000000001,0.0003565453355781971,0.0003565453355781971
192.37900000000002,0.0020636544083810692,0.0020636544083810692
192.38,0.003502797708108281,0.003502797708108281
192.381,0.004233533035909283,0.004233533035909283
192.382,0.003956079684672209,0.003956079684672209
192.383,0.0026312819913714737,0.0026312819913714737
192.38400000000001,0.0005256314526880605,0.0005256314526880605
192.38500000000002,0.0018424107997579103,-0.0018424107997579103
192.386,0.003845059607783772,-0.003845059607783772
192.387,0.004934736218136765,-0.004934736218136765
192.388,0.00481904422132848,-0.00481904422132848
192.389,0.0035611010192389673,-0.0035611010192389673
192.39000000000001,0.0015677594901987522,-0.0015677594901987522
192.39100000000002,0.0005349087614762916,0.0005349087614762916
192.392,0.002100882400433323,0.002100882400433323
192.393,0.002673360318143138,0.002673360318143138
192.394,0.0021336873454542455,0.0021336873454542455
192.395,0.0007386767527961917,0.0007386767527961917
192.39600000000002,0.000968054861801288,-0.000968054861801288
192.39700000000002,0.0023423785347328418,-0.0023423785347328418
192.398,0.0028614000009828684,-0.0028614000009828684
192.399,0.0023055002030034745,-0.0023055002030034745
192.4,0.00083815732016198,-0.00083815732016198
192.401,0.0010446852744574174,0.0010446852744574174
192.40200000000002,0.002679616786285617,0.002679616786285617
192.40300000000002,0.0034598470341911537,0.0034598470341911537
192.404,0.003042595042443732,0.003042595042443732
192.405,0.0014693150143715247,0.0014693150143715247
192.406,0.0008422617821101212,-0.0008422617821101212
192.407,0.0032317883763941456,-0.0032317883763941456
192.40800000000002,0.005010540040018076,-0.005010540040018076
192.40900000000002,0.005683930988179917,-0.005683930988179917
192.41,0.005107579999624993,-0.005107579999624993
192.411,0.003525227080400261,-0.003525227080400261
192.412,0.0014772708431845466,-0.0014772708431845466
192.413,0.0003873630523543173,0.0003873630523543173
192.41400000000002,0.0015309415509336159,0.0015309415509336159
192.41500000000002,0.0017032883267671193,0.0017032883267671193
192.416,0.00101560743367921,0.00101560743367921
192.417,0.00011172602983079183,-0.00011172602983079183
192.418,0.0011076964985628583,-0.0011076964985628583
192.419,0.0014598741124298026,-0.0014598741124298026
192.42000000000002,0.0009021682689733348,-0.0009021682689733348
192.42100000000002,0.0004829470255993992,0.0004829470255993992
192.422,0.0022822034193529955,0.0022822034193529955
192.423,0.0038830858153443043,0.0038830858153443043
192.424,0.004675038946914803,0.004675038946914803
192.425,0.004253696617131059,0.004253696617131059
192.42600000000002,0.002561454497238641,0.002561454497238641
192.42700000000002,8.048668727959759e-05,-8.048668727959759e-05
192.428,0.003057695106715206,-0.003057695106715206
192.429,0.005637222462459936,-0.005637222462459936
192.43,0.0071759185154721405,-0.0071759185154721405
192.431,0.007298501204019746,-0.007298501204019746
192.43200000000002,0.005993696889006379,-0.005993696889006379
192.43300000000002,0.003604326291976339,-0.003604326291976339
192.434,0.0007204365885084814,-0.0007204365885084814
192.435,0.0019874199045966903,0.0019874199045966903
192.436,0.003943246294916748,0.003943246294916748
192.437,0.004799933857132399,0.004799933857132399
192.43800000000002,0.004500654110692562,0.004500654110692562
192.43900000000002,0.0032595295052556413,0.0032595295052556413
192.44,0.0014773241797922333,0.0014773241797922333
192.441,0.00037662027714915625,-0.00037662027714915625
192.442,0.0018810738250046018,-0.0018810738250046018
192.443,0.002749996936517411,-0.002749996936517411
192.44400000000002,0.002875262047991674,-0.002875262047991674
192.44500000000002,0.0023247143528969025,-0.0023247143528969025
192.446,0.0013058694317259845,-0.0013058694317259845
192.447,0.00010996535668908714,-0.00010996535668908714
192.448,0.0009501090339525639,0.0009501090339525639
192.449,0.0015986340253065499,0.0015986340253065499
192.45000000000002,0.0016471588444792972,0.0016471588444792972
192.45100000000002,0.0010319841738361058,0.0010319841738361058
192.452,0.00016570656862966113,-0.00016570656862966113
192.453,0.0017232176555248236,-0.0017232176555248236
192.454,0.0033087301539845133,-0.0033087301539845133
192.455,0.004543653928773725,-0.004543653928773725
192.45600000000002,0.005087488056799281,-0.005087488056799281
192.45700000000002,0.004727989494105273,-0.004727989494105273
192.458,0.0034524273677573186,-0.0034524273677573186
192.459,0.0014754049259474138,-0.0014754049259474138
192.46,0.0007927781830658761,0.0007927781830658761
192.461,0.00283715241289492,0.00283715241289492
192.46200000000002,0.004169214393909606,0.004169214393909606
192.46300000000002,0.004463094774906343,0.004463094774906343
192.464,0.0036555441840338833,0.0036555441840338833
192.465,0.0019755771749706045,0.0019755771749706045
192.466,0.00011101504375027007,-0.00011101504375027007
192.467,0.002030814097814129,-0.002030814097814129
192.46800000000002,0.0032694142617564577,-0.0032694142617564577
192.46900000000002,0.0035248840992928247,-0.0035248840992928247
192.47,0.0027988438959595137,-0.0027988438959595137
192.471,0.0013939514100181137,-0.0013939514100181137
192.472,0.00018403206783150285,0.00018403206783150285
192.473,0.0013900784020763244,0.0013900784020763244
192.47400000000002,0.0018174003321653033,0.0018174003321653033
192.47500000000002,0.0013304294064351095,0.0013304294064351095
192.476,0.00010851976104296599,0.00010851976104296599
192.477,0.0014154043901200872,-0.0014154043901200872
192.478,0.0027019774573679746,-0.0027019774573679746
192.479,0.0032896659621973537,-0.0032896659621973537
192.48000000000002,0.002954104789078196,-0.002954104789078196
192.48100000000002,0.0017878507601222294,-0.0017878507601222294
192.482,0.00017214906452652949,-0.00017214906452652949
192.483,0.0013512492681400168,0.0013512492681400168
192.484,0.0022658290658586445,0.0022658290658586445
192.485,0.0022607732544266917,0.0022607732544266917
192.48600000000002,0.001344007410910303,0.001344007410910303
192.487,0.0001523548446699604,-0.0001523548446699604
192.488,0.0016783123299184174,-0.0016783123299184174
192.489,0.002650153839835397,-0.002650153839835397
192.49,0.0026515734269101734,-0.0026515734269101734
192.491,0.0015839945498849221,-0.0015839945498849221
192.49200000000002,0.0002856128063133358,0.0002856128063133358
192.493,0.0023975265262425505,0.0023975265262425505
192.494,0.0040707747374461025,0.0040707747374461025
192.495,0.004718453765027272,0.004718453765027272
192.496,0.004037082579699748,0.004037082579699748
192.497,0.002108426653126566,0.002108426653126566
192.49800000000002,0.0006192339501876259,-0.0006192339501876259
192.499,0.0034641169946094535,-0.0034641169946094535
192.5,0.00571500742748941,-0.00571500742748941
192.501,0.006840775241994946,-0.006840775241994946
192.502,0.006639129739376551,-0.006639129739376551
192.50300000000001,0.005279436190404406,-0.005279436190404406
192.50400000000002,0.003229754318738163,-0.003229754318738163
192.505,0.0010959121887504542,-0.0010959121887504542
192.506,0.0005721006612428973,0.0005721006612428973
192.507,0.0014426813957821596,0.0014426813957821596
192.508,0.0014831955301553557,0.0014831955301553557
192.50900000000001,0.000936903914544919,0.000936903914544919
192.51000000000002,0.00020990250006460128,0.00020990250006460128
192.511,0.0002887892575046149,-0.0002887892575046149
192.512,0.00029697485309927957,-0.00029697485309927957
192.513,0.00021227577534783116,0.00021227577534783116
192.514,0.0010315993309750041,0.0010315993309750041
192.51500000000001,0.0018060023975544543,0.0018060023975544543
192.51600000000002,0.0021719057296218126,0.0021719057296218126
192.517,0.0018979331424947182,0.0018979331424947182
192.518,0.0009773091209550418,0.0009773091209550418
192.519,0.0003605575986207084,-0.0003605575986207084
192.52,0.001723229546010447,-0.001723229546010447
192.52100000000002,0.0026876942665567177,-0.0026876942665567177
192.52200000000002,0.002946412795241417,-0.002946412795241417
192.523,0.002416773689609414,-0.002416773689609414
192.524,0.0012762805693786628,-0.0012762805693786628
192.525,8.91653741568103e-05,8.91653741568103e-05
192.526,0.001207526251228791,0.001207526251228791
192.52700000000002,0.0016737677893464654,0.0016737677893464654
192.52800000000002,0.0012841666200671409,0.0012841666200671409
192.529,0.00010830370373449748,0.00010830370373449748
192.53,0.0015245768670072264,-0.0015245768670072264
192.531,0.0031208644519205254,-0.0031208644519205254
192.532,0.004169990130582866,-0.004169990130582866
192.53300000000002,0.004298605440761047,-0.004298605440761047
192.53400000000002,0.0033848143450867256,-0.0033848143450867256
192.535,0.0015987301021539902,-0.0015987301021539902
192.536,0.0006415508867144024,0.0006415508867144024
192.537,0.002784181727054491,0.002784181727054491
192.538,0.004293633842854188,0.004293633842854188
192.53900000000002,0.004793247368926743,0.004793247368926743
192.54000000000002,0.0041609838029703855,0.0041609838029703855
192.541,0.0025542356968477303,0.0025542356968477303
192.542,0.000360588902015457,0.000360588902015457
192.543,0.001908124025842187,-0.001908124025842187
192.544,0.003747087145484632,-0.003747087145484632
192.54500000000002,0.0047794407078210754,-0.0047794407078210754
192.54600000000002,0.004837068267239499,-0.004837068267239499
192.547,0.003984620437170431,-0.003984620437170431
192.548,0.0024863275743178797,-0.0024863275743178797
192.549,0.0007295131831091611,-0.0007295131831091611
192.55,0.0008723436113707005,0.0008723436113707005
192.55100000000002,0.001972231408265084,0.001972231408265084
192.55200000000002,0.0023576668218152916,0.0023576668218152916
192.553,0.0019826396198990336,0.0019826396198990336
192.554,0.0009617852134388866,0.0009617852134388866
192.555,0.00046649846184575406,-0.00046649846184575406
192.556,0.0019961401363160244,-0.0019961401363160244
192.55700000000002,0.0033153960527149604,-0.0033153960527149604
192.55800000000002,0.00416305717728423,-0.00416305717728423
192.559,0.004370514964955689,-0.004370514964955689
192.56,0.0038851547414304644,-0.0038851547414304644
192.561,0.0027739040330039483,-0.0027739040330039483
192.562,0.0012083069636462218,-0.0012083069636462218
192.56300000000002,0.0005656681307566117,0.0005656681307566117
192.56400000000002,0.0022684552044061803,0.0022684552044061803
192.565,0.0036325089983610306,0.0036325089983610306
192.566,0.004445964680179355,0.004445964680179355
192.567,0.004587331337012748,0.004587331337012748
192.568,0.004045043053496232,0.004045043053496232
192.56900000000002,0.0029178660646567703,0.0029178660646567703
192.57000000000002,0.0013955386751250778,0.0013955386751250778
192.571,0.00027700356411474917,-0.00027700356411474917
192.572,0.0018448406045491151,-0.0018448406045491151
192.573,0.0030884821134425995,-0.0030884821134425995
192.574,0.0038600905820044325,-0.0038600905820044325
192.57500000000002,0.004103257798654182,-0.004103257798654182
192.57600000000002,0.0038530414027666674,-0.0038530414027666674
192.577,0.003217734221382122,-0.003217734221382122
192.578,0.0023481228117960985,-0.0023481228117960985
192.579,0.0014026256991141062,-0.0014026256991141062
192.58,0.0005169919240887007,-0.0005169919240887007
192.58100000000002,0.0002148225369874952,0.0002148225369874952
192.58200000000002,0.0007457216935748606,0.0007457216935748606
192.583,0.0010678605415276924,0.0010678605415276924
192.584,0.0011972429423777022,0.0011972429423777022
192.585,0.001157141354159421,0.001157141354159421
192.586,0.0009664728854831024,0.0009664728854831024
192.58700000000002,0.0006368259130431112,0.0006368259130431112
192.58800000000002,0.00017829121171706284,0.00017829121171706284
192.589,0.0003891979681552307,-0.0003891979681552307
192.59,0.001024526024283776,-0.001024526024283776
192.591,0.0016598047150083244,-0.0016598047150083244
192.592,0.0022044544496195146,-0.0022044544496195146
192.59300000000002,0.002559567600296654,-0.002559567600296654
192.59400000000002,0.0026394506182963666,-0.0026394506182963666
192.595,0.0023943658780260905,-0.0023943658780260905
192.596,0.0018274556899845725,-0.0018274556899845725
192.597,0.001000057775349589,-0.001000057775349589
192.598,2.281310499815685e-05,-2.281310499815685e-05
192.59900000000002,0.0009658323052838487,0.0009658323052838487
192.60000000000002,0.0018282425288498835,0.0018282425288498835
192.601,0.002455530425571201,0.002455530425571201
192.602,0.0027871054730296352,0.0027871054730296352
192.603,0.0028166275277064757,0.0028166275277064757
192.604,0.00258336031598223,0.00258336031598223
192.60500000000002,0.0021524756976119,0.0021524756976119
192.60600000000002,0.0015912907531219862,0.0015912907531219862
192.607,0.0009495665028141759,0.0009495665028141759
192.608,0.0002504298327836052,0.0002504298327836052
192.609,0.0005053311362200424,-0.0005053311362200424
192.61,0.001323659692800404,-0.001323659692800404
192.61100000000002,0.0021965607750117225,-0.0021965607750117225
192.612,0.0030847183573882117,-0.0030847183573882117
192.613,0.003910963060896036,-0.003910963060896036
192.614,0.004568647024361662,-0.004568647024361662
192.615,0.004943868232323011,-0.004943868232323011
192.616,0.004945469901604327,-0.004945469901604327
192.61700000000002,0.004533558673323443,-0.004533558673323443
192.618,0.003737106034342571,-0.003737106034342571
192.619,0.0026541971788440538,-0.0026541971788440538
192.62,0.0014337625638015314,-0.0014337625638015314
192.621,0.0002434577380356673,-0.0002434577380356673
192.622,0.0007672010328164531,0.0007672010328164531
192.62300000000002,0.0014978009294314898,0.0014978009294314898
192.624,0.0019133719072545585,0.0019133719072545585
192.625,0.0020421297697687194,0.0020421297697687194
192.626,0.0019566367800387422,0.0019566367800387422
192.627,0.0017455754159027585,0.0017455754159027585
192.62800000000001,0.0014859467226245996,0.0014859467226245996
192.62900000000002,0.0012246871013265,0.0012246871013265
192.63,0.0009747879996252599,0.0009747879996252599
192.631,0.00072544040710097,0.00072544040710097
192.632,0.0004605388727132683,0.0004605388727132683
192.633,0.00017696000344865883,0.00017696000344865883
192.63400000000001,0.00010555448873509211,-0.00010555448873509211
192.63500000000002,0.00034748696214114083,-0.00034748696214114083
192.636,0.0005047520103006882,-0.0005047520103006882
192.637,0.0005499550928165757,-0.0005499550928165757
192.638,0.000490649605182814,-0.000490649605182814
192.639,0.0003760217194847773,-0.0003760217194847773
192.64000000000001,0.0002873475397245415,-0.0002873475397245415
192.64100000000002,0.0003135930167199658,-0.0003135930167199658
192.642,0.0005194944284319541,-0.0005194944284319541
192.643,0.0009171207738373956,-0.0009171207738373956
192.644,0.0014517797001312076,-0.0014517797001312076
192.645,0.0020090078885415122,-0.0020090078885415122
192.64600000000002,0.0024425433319184395,-0.0024425433319184395
192.64700000000002,0.002615903258427891,-0.002615903258427891
192.648,0.0024450292011750476,-0.0024450292011750476
192.649,0.0019283040716194962,-0.0019283040716194962
192.65,0.0011536531792317114,-0.0011536531792317114
192.651,0.00027940346677572377,-0.00027940346677572377
192.65200000000002,0.0005061640382956229,0.0005061640382956229
192.65300000000002,0.0010348167503577254,0.0010348167503577254
192.654,0.0012030879408609463,0.0012030879408609463
192.655,0.000998544011585786,0.000998544011585786
192.656,0.0005002999238133643,0.0005002999238133643
192.657,0.00014545143863273165,-0.00014545143863273165
192.65800000000002,0.0007665597805428482,-0.0007665597805428482
192.65900000000002,0.0012097581573991063,-0.0012097581573991063
192.66,0.0013760840501022633,-0.0013760840501022633
192.661,0.0012377805171053455,-0.0012377805171053455
192.662,0.0008342780321032889,-0.0008342780321032889
192.663,0.0002517719923724069,-0.0002517719923724069
192.66400000000002,0.00040437616455855674,0.00040437616455855674
192.66500000000002,0.0010341949426747549,0.0010341949426747549
192.666,0.0015572298779950899,0.0015572298779950899
192.667,0.0019142023240242272,0.0019142023240242272
192.668,0.0020598152858350384,0.0020598152858350384
192.669,0.001954028973774105,0.001954028973774105
192.67000000000002,0.001559435336143787,0.001559435336143787
192.67100000000002,0.0008491634545050749,0.0008491634545050749
192.672,0.0001756667006920097,-0.0001756667006920097
192.673,0.0014653618472431768,-0.0014653618472431768
192.674,0.002907551513142683,-0.002907551513142683
192.675,0.004328626851017421,-0.004328626851017421
192.67600000000002,0.005515411938542964,-0.005515411938542964
192.67700000000002,0.006254917379088276,-0.006254917379088276
192.678,0.006383096878842716,-0.006383096878842716
192.679,0.005829057216143688,-0.005829057216143688
192.68,0.004640956563002361,-0.004640956563002361
192.681,0.0029842341201787074,-0.0029842341201787074
192.68200000000002,0.0011106070785686583,-0.0011106070785686583
192.68300000000002,0.0006950091702102505,0.0006950091702102505
192.684,0.0021757084411041755,0.0021757084411041755
192.685,0.0031553863890488717,0.0031553863890488717
192.686,0.0035690893981424696,0.0035690893981424696
192.687,0.0034637294924419588,0.0034637294924419588
192.68800000000002,0.0029709255965183765,0.0029709255965183765
192.68900000000002,0.002261893352179795,0.002261893352179795
192.69,0.0014990678556620618,0.0014990678556620618
192.691,0.0007990563647200747,0.0007990563647200747
192.692,0.00021676284375425782,0.00021676284375425782
192.693,0.00024717127302687245,-0.00024717127302687245
192.69400000000002,0.0006214435767582876,-0.0006214435767582876
192.69500000000002,0.000933091094531316,-0.000933091094531316
192.696,0.0011831856707514854,-0.0011831856707514854
192.697,0.001338816877636912,-0.001338816877636912
192.698,0.001344451003838822,-0.001344451003838822
192.699,0.0011482513252752723,-0.0011482513252752723
192.70000000000002,0.0007330707182849293,-0.0007330707182849293
192.70100000000002,0.0001396221014694746,-0.0001396221014694746
192.702,0.0005284314339413061,0.0005284314339413061
192.703,0.0011217813554921607,0.0011217813554921607
192.704,0.0014818177026619608,0.0014818177026619608
192.705,0.0014858190797237486,0.0014858190797237486
192.70600000000002,0.0010870825850001697,0.0010870825850001697
192.70700000000002,0.0003367831009228819,0.0003367831009228819
192.708,0.0006206760150320868,-0.0006206760150320868
192.709,0.0015793015692737594,-0.0015793015692737594
192.71,0.0023224507010433633,-0.0023224507010433633
192.711,0.0026793135071399264,-0.0026793135071399264
192.71200000000002,0.0025710771299568,-0.0025710771299568
192.71300000000002,0.002033452129433548,-0.002033452129433548
192.714,0.0012087157504013883,-0.0012087157504013883
192.715,0.00030896254063933666,-0.00030896254063933666
192.716,0.0004396145278588005,0.0004396145278588005
192.717,0.0008561974486175422,0.0008561974486175422
192.71800000000002,0.0008522454669876408,0.0008522454669876408
192.71900000000002,0.00045298516599367674,0.00045298516599367674
192.72,0.00021226101631142117,-0.00021226101631142117
192.721,0.0009479589115797012,-0.0009479589115797012
192.722,0.0015476530494944398,-0.0015476530494944398
192.723,0.001851051106673256,-0.001851051106673256
192.72400000000002,0.0017868940965457113,-0.0017868940965457113
192.72500000000002,0.001389742719875579,-0.001389742719875579
192.726,0.0007863297512566371,-0.0007863297512566371
192.727,0.00015590312189084222,-0.00015590312189084222
192.728,0.00032349983942736094,0.00032349983942736094
192.729,0.0005268467091593698,0.0005268467091593698
192.73000000000002,0.0004166092313000891,0.0004166092313000891
192.73100000000002,4.98312652196339e-05,4.98312652196339e-05
192.732,0.00044402330258576394,-0.00044402330258576394
192.733,0.0009072176284704613,-0.0009072176284704613
192.734,0.001205723824046308,-0.001205723824046308
192.735,0.001272239223417115,-0.001272239223417115
192.73600000000002,0.0011260696719479055,-0.0011260696719479055
192.737,0.0008629886042793363,-0.0008629886042793363
192.738,0.0006179651384714702,-0.0006179651384714702
192.739,0.000512895307278102,-0.000512895307278102
192.74,0.0006071185320173555,-0.0006071185320173555
192.741,0.000868494588031583,-0.000868494588031583
192.74200000000002,0.0011768166474689496,-0.0011768166474689496
192.743,0.0013609580072264846,-0.0013609580072264846
192.744,0.0012595658519129918,-0.0012595658519129918
192.745,0.000786117083813777,-0.000786117083813777
192.746,2.4060449888992986e-05,2.4060449888992986e-05
192.747,0.0010031184083393399,0.0010031184083393399
192.74800000000002,0.0018841284616625388,0.0018841284616625388
192.749,0.0023723764674347418,0.0023723764674347418
192.75,0.002235166933872279,0.002235166933872279
192.751,0.0013830176789507735,0.0013830176789507735
192.752,8.44132164208257e-05,-8.44132164208257e-05
192.75300000000001,0.0018852130100220565,-0.0018852130100220565
192.75400000000002,0.0036170900160249603,-0.0036170900160249603
192.755,0.004859377239440803,-0.004859377239440803
192.756,0.005286972697186806,-0.005286972697186806
192.757,0.004762867903262174,-0.004762867903262174
192.758,0.0033809632375439913,-0.0033809632375439913
192.75900000000001,0.001444949787091306,-0.001444949787091306
192.76000000000002,0.0006119758250824384,0.0006119758250824384
192.761,0.0023437571486435572,0.0023437571486435572
192.762,0.0034103181307402414,0.0034103181307402414
192.763,0.0036634984101289866,0.0036634984101289866
192.764,0.003174963165040075,0.003174963165040075
192.76500000000001,0.0021988497836740923,0.0021988497836740923
192.76600000000002,0.0010821041864824492,0.0010821041864824492
192.767,0.00015155026729893838,0.00015155026729893838
192.768,0.00038641885376330596,-0.00038641885376330596
192.769,0.0005022333200627408,-0.0005022333200627408
192.77,0.00033886615451715694,-0.00033886615451715694
192.77100000000002,0.00014988775206289668,-0.00014988775206289668
192.77200000000002,0.00020144770976580808,-0.00020144770976580808
192.773,0.0006711801092727865,-0.0006711801092727865
192.774,0.0015776173117449564,-0.0015776173117449564
192.775,0.0027633854434128153,-0.0027633854434128153
192.776,0.003937708727351264,-0.003937708727351264
192.77700000000002,0.004764422083239049,-0.004764422083239049
192.77800000000002,0.004967075508695076,-0.004967075508695076
192.779,0.004417475128286769,-0.004417475128286769
192.78,0.0031796775160257366,-0.0031796775160257366
192.781,0.0014959900116156147,-0.0014959900116156147
192.782,0.00027995189234543806,0.00027995189234543806
192.78300000000002,0.0017815135642671172,0.0017815135642671172
192.78400000000002,0.00272812485937461,0.00272812485937461
192.785,0.002995239620476023,0.002995239620476023
192.786,0.002635551401831976,0.002635551401831976
192.787,0.001847767424168508,0.001847767424168508
192.788,0.0009055991814279584,0.0009055991814279584
192.78900000000002,7.117489017159871e-05,7.117489017159871e-05
192.79000000000002,0.0004796078011713598,-0.0004796078011713598
192.791,0.0006977881192920827,-0.0006977881192920827
192.792,0.0006581820344144877,-0.0006581820344144877
192.793,0.0005168224709417279,-0.0005168224709417279
192.794,0.0004454668609642445,-0.0004454668609642445
192.79500000000002,0.0005656294771701895,-0.0005656294771701895
192.79600000000002,0.0009031454520624661,-0.0009031454520624661
192.797,0.0013764329575898884,-0.0013764329575898884
192.798,0.0018203772396120396,-0.0018203772396120396
192.799,0.002036900195885456,-0.002036900195885456
192.8,0.00185608541624595,-0.00185608541624595
192.80100000000002,0.0011899770626198716,-0.0011899770626198716
192.80200000000002,6.473168706701578e-05,-6.473168706701578e-05
192.803,0.0013760778627462714,0.0013760778627462714
192.804,0.0028961116546291723,0.0028961116546291723
192.805,0.004211347960171648,0.004211347960171648
192.806,0.005044476713083676,0.005044476713083676
192.80700000000002,0.005177167105563872,0.005177167105563872
192.80800000000002,0.004490991588514855,0.004490991588514855
192.809,0.002991202437916615,0.002991202437916615
192.81,0.0008109348002847566,0.0008109348002847566
192.811,0.0018039302618442085,-0.0018039302618442085
192.812,0.004527081269110374,-0.004527081269110374
192.81300000000002,0.006997490776252545,-0.006997490776252545
192.81400000000002,0.00887301589988864,-0.00887301589988864
192.815,0.009884494516346527,-0.009884494516346527
192.816,0.009881448531665601,-0.009881448531665601
192.817,0.008860286874166005,-0.008860286874166005
192.818,0.0069677968517535905,-0.0069677968517535905
192.81900000000002,0.004476986352163276,-0.004476986352163276
192.82000000000002,0.001738352963716635,-0.001738352963716635
192.821,0.0008840978662197426,0.0008840978662197426
192.822,0.003078232816131403,0.003078232816131403
192.823,0.004635599035644018,0.004635599035644018
192.824,0.005477746912040339,0.005477746912040339
192.82500000000002,0.005651796153671165,0.005651796153671165
192.82600000000002,0.005298343538608941,0.005298343538608941
192.827,0.004602332084675591,0.004602332084675591
192.828,0.0037417560692743763,0.0037417560692743763
192.829,0.0028486686688851915,0.0028486686688851915
192.83,0.0019920510003915066,0.0019920510003915066
192.83100000000002,0.0011843971478801435,0.0011843971478801435
192.83200000000002,0.00040603445597637346,0.00040603445597637346
192.833,0.0003640887517951659,-0.0003640887517951659
192.834,0.0011234280118616095,-0.0011234280118616095
192.835,0.0018355465543029275,-0.0018355465543029275
192.836,0.00243699068905934,-0.00243699068905934
192.83700000000002,0.0028570102464416576,-0.0028570102464416576
192.83800000000002,0.0030411351680408373,-0.0030411351680408373
192.839,0.002968807361125503,-0.002968807361125503
192.84,0.0026584479598639604,-0.0026584479598639604
192.841,0.0021590667536769623,-0.0021590667536769623
192.842,0.0015333420444644463,-0.0015333420444644463
192.84300000000002,0.0008405506939737847,-0.0008405506939737847
192.84400000000002,0.00012733631343789522,-0.00012733631343789522
192.845,0.0005697913931186017,0.0005697913931186017
192.846,0.0012123976617220754,0.0012123976617220754
192.847,0.0017460551852985634,0.0017460551852985634
192.848,0.0020940135281996407,0.0020940135281996407
192.84900000000002,0.0021660735928852254,0.0021660735928852254
192.85000000000002,0.001883930140129647,0.001883930140129647
192.851,0.00121638872280592,0.00121638872280592
192.852,0.0002115560035447669,0.0002115560035447669
192.853,0.0009887664018112985,-0.0009887664018112985
192.854,0.0021633035070900714,-0.0021633035070900714
192.85500000000002,0.003056002073266696,-0.003056002073266696
192.85600000000002,0.003441957577479783,-0.003441957577479783
192.857,0.003196083618016985,-0.003196083618016985
192.858,0.0023423115249405165,-0.0023423115249405165
192.859,0.0010648507688803318,-0.0010648507688803318
192.86,0.00032639396902551696,0.00032639396902551696
192.86100000000002,0.0014699309621868638,0.0014699309621868638
192.862,0.002046806657784599,0.002046806657784599
