Czas,AbsSum,Sum
198.944,0.1248232636187333,-0.1248232636187333
198.945,0.13465037456232198,-0.13465037456232198
198.946,0.14998375782147122,-0.14998375782147122
198.947,0.1660023930308986,-0.1660023930308986
198.948,0.1784483934554406,-0.1784483934554406
198.949,0.18472926159922454,-0.18472926159922454
198.95,0.18435248933752113,-0.18435248933752113
198.951,0.1786510743772569,-0.1786510743772569
198.952,0.17000316304001106,-0.17000316304001106
198.953,0.16089576754816404,-0.16089576754816404
198.954,0.1531866915241631,-0.1531866915241631
198.955,0.14779142691045788,-0.14779142691045788
198.956,0.14482240287618586,-0.14482240287618586
198.957,0.14401966674527533,-0.14401966674527533
198.958,0.14520860752962328,-0.14520860752962328
198.959,0.14853800438223486,-0.14853800438223486
198.96,0.15437663951881553,-0.15437663951881553
198.961,0.1629220553544236,-0.1629220553544236
198.962,0.1737245823192528,-0.1737245823192528
198.963,0.1853889734975478,-0.1853889734975478
198.964,0.19565786134002294,-0.19565786134002294
198.965,0.20192722680533715,-0.20192722680533715
198.966,0.20205565488537924,-0.20205565488537924
198.967,0.19518369678376435,-0.19518369678376435
198.968,0.18223965260484953,-0.18223965260484953
198.969,0.1658959129872255,-0.1658959129872255
198.97,0.14992804933576198,-0.14992804933576198
198.971,0.13814897950049587,-0.13814897950049587
198.972,0.13325945308811482,-0.13325945308811482
198.973,0.13600706105573668,-0.13600706105573668
198.974,0.14495482764329148,-0.14495482764329148
198.975,0.15695591037223988,-0.15695591037223988
198.976,0.16818502238781485,-0.16818502238781485
198.977,0.1753790867985009,-0.1753790867985009
198.978,0.17686270154304673,-0.17686270154304673
198.979,0.173008210372249,-0.173008210372249
198.98,0.1659803724193012,-0.1659803724193012
198.981,0.15887011777219395,-0.15887011777219395
198.982,0.15453846219444856,-0.15453846219444856
198.983,0.1545914246643627,-0.1545914246643627
198.984,0.15885330550991084,-0.15885330550991084
198.985,0.16551862001393236,-0.16551862001393236
198.986,0.17191114258391915,-0.17191114258391915
198.987,0.1755546481313599,-0.1755546481313599
198.988,0.1751466128027951,-0.1751466128027951
198.989,0.1710652467509588,-0.1710652467509588
198.99,0.1652173768307834,-0.1652173768307834
198.991,0.16028428958662033,-0.16028428958662033
198.992,0.15865192831749608,-0.15865192831749608
198.993,0.16143504383697993,-0.16143504383697993
198.994,0.16797500751335703,-0.16797500751335703
198.995,0.17601740837787072,-0.17601740837787072
198.996,0.18252111332595033,-0.18252111332595033
198.997,0.18480879885804213,-0.18480879885804213
198.998,0.18163034557504998,-0.18163034557504998
198.999,0.17372864403105015,-0.17372864403105015
199.0,0.1636692805075688,-0.1636692805075688
199.001,0.15496179653584707,-0.15496179653584707
199.002,0.15076562537318006,-0.15076562537318006
199.003,0.15264151772976953,-0.15264151772976953
199.004,0.15981552947140631,-0.15981552947140631
199.005,0.16926023319421568,-0.16926023319421568
199.006,0.17661950308231433,-0.17661950308231433
199.007,0.17770398799880593,-0.17770398799880593
199.008,0.17006860108942523,-0.17006860108942523
199.009,0.15412842807964777,-0.15412842807964777
199.01,0.13339868867282034,-0.13339868867282034
199.011,0.1137184320160064,-0.1137184320160064
199.012,0.10164752154376822,-0.10164752154376822
199.013,0.10250347602399612,-0.10250347602399612
199.014,0.11863699221653812,-0.11863699221653812
199.015,0.1484879794545121,-0.1484879794545121
199.016,0.18673499294443086,-0.18673499294443086
199.017,0.2255228515353862,-0.2255228515353862
199.018,0.25642973018699855,-0.25642973018699855
199.019,0.2726167482258497,-0.2726167482258497
199.02,0.27055534007375315,-0.27055534007375315
199.021,0.25086077005979657,-0.25086077005979657
199.022,0.21802798369772736,-0.21802798369772736
199.023,0.1791829675743657,-0.1791829675743657
199.024,0.1422323214311383,-0.1422323214311383
199.025,0.11393877457298329,-0.11393877457298329
199.026,0.0984359882557928,-0.0984359882557928
199.027,0.09653733670538966,-0.09653733670538966
199.028,0.10594744767539876,-0.10594744767539876
199.029,0.12223033488816082,-0.12223033488816082
199.03,0.1401979625400095,-0.1401979625400095
199.031,0.1553059300112305,-0.1553059300112305
199.032,0.16468867717796698,-0.16468867717796698
199.033,0.16760840218280848,-0.16760840218280848
199.034,0.16527831842661755,-0.16527831842661755
199.035,0.1601940806208978,-0.1601940806208978
199.036,0.15522072848148372,-0.15522072848148372
199.037,0.152713314380596,-0.152713314380596
199.038,0.15390116796449693,-0.15390116796449693
199.039,0.15866363965560804,-0.15866363965560804
199.04,0.16570500341156658,-0.16570500341156658
199.041,0.17303251626207405,-0.17303251626207405
199.042,0.17857825390606885,-0.17857825390606885
199.043,0.18079101496397865,-0.18079101496397865
199.044,0.1790538957465434,-0.1790538957465434
199.045,0.1738412185084065,-0.1738412185084065
199.046,0.16659715279419118,-0.16659715279419118
199.047,0.15938133093271345,-0.15938133093271345
199.048,0.1543727312425427,-0.1543727312425427
199.049,0.1533464488368429,-0.1533464488368429
199.05,0.15723778384485776,-0.15723778384485776
199.051,0.1658867411247783,-0.1658867411247783
199.052,0.17801818383671153,-0.17801818383671153
199.053,0.19146493956835187,-0.19146493956835187
199.054,0.20359117087543654,-0.20359117087543654
199.055,0.21183045794416866,-0.21183045794416866
199.056,0.2142262912721763,-0.2142262912721763
199.057,0.20985882860137817,-0.20985882860137817
199.058,0.19906325732990493,-0.19906325732990493
199.059,0.1833885607556851,-0.1833885607556851
199.06,0.16530187120539452,-0.16530187120539452
199.061,0.147700064698296,-0.147700064698296
199.062,0.13333340996739085,-0.13333340996739085
199.063,0.12426557510771263,-0.12426557510771263
199.064,0.12148560825484378,-0.12148560825484378
199.065,0.12475307004607905,-0.12475307004607905
199.066,0.13270576362207165,-0.13270576362207165
199.067,0.14320249477550262,-0.14320249477550262
199.068,0.15382342034511376,-0.15382342034511376
199.069,0.16241783271962984,-0.16241783271962984
199.07,0.1675795701263797,-0.1675795701263797
199.071,0.16894488889537806,-0.16894488889537806
199.072,0.1672436494470504,-0.1672436494470504
199.073,0.16408578701626542,-0.16408578701626542
199.074,0.161522517290135,-0.161522517290135
199.075,0.1614751213985698,-0.1614751213985698
199.076,0.1651623142065065,-0.1651623142065065
199.077,0.17266989244594388,-0.17266989244594388
199.078,0.1827866742292631,-0.1827866742292631
199.079,0.19317787918032936,-0.19317787918032936
199.08,0.2008885669097198,-0.2008885669097198
199.081,0.2030817185958559,-0.2030817185958559
199.082,0.19784038305793394,-0.19784038305793394
199.083,0.18482423919071156,-0.18482423919071156
199.084,0.16558490365269563,-0.16558490365269563
199.085,0.14341529300761457,-0.14341529300761457
199.086,0.12272354644639383,-0.12272354644639383
199.087,0.10805313476666423,-0.10805313476666423
199.088,0.1029807547616779,-0.1029807547616779
199.089,0.10917736163058811,-0.10917736163058811
199.09,0.12589375565144734,-0.12589375565144734
199.091,0.1500311215722001,-0.1500311215722001
199.092,0.17680348813716207,-0.17680348813716207
199.093,0.20083604298957491,-0.20083604298957491
199.094,0.2174190382961234,-0.2174190382961234
199.095,0.22359036358004736,-0.22359036358004736
199.096,0.2187666728246478,-0.2187666728246478
199.097,0.20477029382096934,-0.20477029382096934
199.098,0.18526859199357681,-0.18526859199357681
199.099,0.16480220007589286,-0.16480220007589286
199.1,0.1476803037752874,-0.1476803037752874
199.101,0.137036258395686,-0.137036258395686
199.102,0.13426534132834678,-0.13426534132834678
199.103,0.1389367447849944,-0.1389367447849944
199.104,0.14912992165995265,-0.14912992165995265
199.105,0.16203800386422473,-0.16203800386422473
199.106,0.17463939946812435,-0.17463939946812435
199.107,0.18426785574251503,-0.18426785574251503
199.108,0.18898973506920536,-0.18898973506920536
199.109,0.18778678120330372,-0.18778678120330372
199.11,0.18060451544555056,-0.18060451544555056
199.111,0.1683374104776143,-0.1683374104776143
199.112,0.1527840155581609,-0.1527840155581609
199.113,0.1365440870502711,-0.1365440870502711
199.114,0.12278379663077366,-0.12278379663077366
199.115,0.11479749303132525,-0.11479749303132525
199.116,0.11535718432364495,-0.11535718432364495
199.117,0.12594637332965075,-0.12594637332965075
199.118,0.14608044684492805,-0.14608044684492805
199.119,0.17296950690811141,-0.17296950690811141
199.12,0.2017418767901784,-0.2017418767901784
199.121,0.2263098330618284,-0.2263098330618284
199.122,0.2407559170066993,-0.2407559170066993
199.123,0.2409140901443727,-0.2409140901443727
199.124,0.22569235998106296,-0.22569235998106296
199.125,0.19769261621298317,-0.19769261621298317
199.126,0.16284699648492384,-0.16284699648492384
199.127,0.1290711914375715,-0.1290711914375715
199.128,0.1042494880046202,-0.1042494880046202
199.129,0.09410850068757037,-0.09410850068757037
199.13,0.10061597183817539,-0.10061597183817539
199.131,0.12141642871984026,-0.12141642871984026
199.132,0.1505137373549854,-0.1505137373549854
199.133,0.1800224254487185,-0.1800224254487185
199.134,0.2024619121620823,-0.2024619121620823
199.135,0.21288079854040942,-0.21288079854040942
199.136,0.21014292794445044,-0.21014292794445044
199.137,0.19697654663540443,-0.19697654663540443
199.138,0.17879729525453703,-0.17879729525453703
199.139,0.16172746101732371,-0.16172746101732371
199.14,0.15050483286600735,-0.15050483286600735
199.141,0.14700662948115673,-0.14700662948115673
199.142,0.14989105150233584,-0.14989105150233584
199.143,0.15545525039536223,-0.15545525039536223
199.144,0.1593650449508427,-0.1593650449508427
199.145,0.1585880200223755,-0.1585880200223755
199.146,0.15277845920807032,-0.15277845920807032
199.147,0.14455680315973973,-0.14455680315973973
199.148,0.13853472314850457,-0.13853472314850457
199.149,0.1394155107595736,-0.1394155107595736
199.15,0.1498732875187001,-0.1498732875187001
199.151,0.16904024318248456,-0.16904024318248456
199.152,0.1922508200906189,-0.1922508200906189
199.153,0.21225759989501158,-0.21225759989501158
199.154,0.22159330307254033,-0.22159330307254033
199.155,0.2153002122255654,-0.2153002122255654
199.156,0.19305322033508354,-0.19305322033508354
199.157,0.15985067380498785,-0.15985067380498785
199.158,0.12490315649499972,-0.12490315649499972
199.159,0.09896660100918442,-0.09896660100918442
199.16,0.09093053737441226,-0.09093053737441226
199.161,0.10478177225789753,-0.10478177225789753
199.162,0.13799700082009914,-0.13799700082009914
199.163,0.18198154059000826,-0.18198154059000826
199.164,0.22450271365020436,-0.22450271365020436
199.165,0.25338910650421176,-0.25338910650421176
199.166,0.26031536015965073,-0.26031536015965073
199.167,0.24342932144490792,-0.24342932144490792
199.168,0.20793688115772635,-0.20793688115772635
199.169,0.16442687428237002,-0.16442687428237002
199.17,0.12547174017664353,-0.12547174017664353
199.171,0.1016224492555673,-0.1016224492555673
199.172,0.09812589510358571,-0.09812589510358571
199.173,0.11345258032915273,-0.11345258032915273
199.174,0.14010953314714203,-0.14010953314714203
199.175,0.16743535245596575,-0.16743535245596575
199.176,0.18539793343062771,-0.18539793343062771
199.177,0.188074999479795,-0.188074999479795
199.178,0.1756128221977331,-0.1756128221977331
199.179,0.15399191643685517,-0.15399191643685517
199.18,0.13269684642379576,-0.13269684642379576
199.181,0.12112426418503752,-0.12112426418503752
199.182,0.12501164552775024,-0.12501164552775024
199.183,0.14417037799716081,-0.14417037799716081
199.184,0.1723571108841907,-0.1723571108841907
199.185,0.1993699766930893,-0.1993699766930893
199.186,0.21466965724243348,-0.21466965724243348
199.187,0.21127324627309074,-0.21127324627309074
199.188,0.1885460787957275,-0.1885460787957275
199.189,0.1528704993908615,-0.1528704993908615
199.19,0.11588382512514339,-0.11588382512514339
199.191,0.09080865738469013,-0.09080865738469013
199.192,0.08806342159151814,-0.08806342159151814
199.193,0.11161120445085981,-0.11161120445085981
199.194,0.15728593314787054,-0.15728593314787054
199.195,0.21369795273956593,-0.21369795273956593
199.196,0.26547868540223585,-0.26547868540223585
199.197,0.29785752723766357,-0.29785752723766357
199.198,0.3011278619218294,-0.3011278619218294
199.199,0.2735952026896872,-0.2735952026896872
199.2,0.22209253555678954,-0.22209253555678954
199.201,0.15992867441615055,-0.15992867441615055
199.202,0.10294534029572944,-0.10294534029572944
199.203,0.0649342987052216,-0.0649342987052216
199.204,0.05382742542321184,-0.05382742542321184
199.205,0.0697810743419407,-0.0697810743419407
199.206,0.10564188683122622,-0.10564188683122622
199.207,0.14952198292008556,-0.14952198292008556
199.208,0.1885764335483473,-0.1885764335483473
199.209,0.21276197144553333,-0.21276197144553333
199.21,0.2174453556516417,-0.2174453556516417
199.211,0.20416910124407062,-0.20416910124407062
199.212,0.1795072691189017,-0.1795072691189017
199.213,0.15254082338446007,-0.15254082338446007
199.214,0.13186112801936234,-0.13186112801936234
199.215,0.12306739490818286,-0.12306739490818286
199.216,0.12746912830491985,-0.12746912830491985
199.217,0.1422494757745857,-0.1422494757745857
199.218,0.16185765155589416,-0.16185765155589416
199.219,0.18004084746311,-0.18004084746311
199.22,0.1918012035027109,-0.1918012035027109
199.221,0.19468535802720932,-0.19468535802720932
199.222,0.1891118067582398,-0.1891118067582398
199.223,0.17779223112698828,-0.17779223112698828
199.224,0.16458140876220917,-0.16458140876220917
199.225,0.15321211641703092,-0.15321211641703092
199.226,0.14631909678592536,-0.14631909678592536
199.227,0.14497710238645045,-0.14497710238645045
199.228,0.1487589236156568,-0.1487589236156568
199.229,0.1561483990115916,-0.1561483990115916
199.23,0.16507625325259456,-0.16507625325259456
199.231,0.17338823693737948,-0.17338823693737948
199.232,0.1791641619221236,-0.1791641619221236
199.233,0.18091829357211187,-0.18091829357211187
199.234,0.17776880270968676,-0.17776880270968676
199.235,0.16964205606733107,-0.16964205606733107
199.236,0.15749433745609576,-0.15749433745609576
199.237,0.14343970547800433,-0.14343970547800433
199.238,0.13062683815728393,-0.13062683815728393
199.239,0.12274838504303787,-0.12274838504303787
199.24,0.12319187857196523,-0.12319187857196523
199.241,0.13400724530476205,-0.13400724530476205
199.242,0.1550016904746575,-0.1550016904746575
199.243,0.1833103294621844,-0.1833103294621844
199.244,0.2136954449279732,-0.2136954449279732
199.245,0.2396150339436316,-0.2396150339436316
199.246,0.25483857194160486,-0.25483857194160486
199.247,0.2551686940369359,-0.2551686940369359
199.248,0.23973888841201496,-0.23973888841201496
199.249,0.21144505502781408,-0.21144505502781408
199.25,0.17631669998901944,-0.17631669998901944
199.251,0.141965405805915,-0.141965405805915
199.252,0.11555262577488956,-0.11555262577488956
199.253,0.10188836194373196,-0.10188836194373196
199.254,0.10224282541067753,-0.10224282541067753
199.255,0.11422887583189578,-0.11422887583189578
199.256,0.13276686300372653,-0.13276686300372653
199.257,0.15179279203304186,-0.15179279203304186
199.258,0.16613609795193263,-0.16613609795193263
199.259,0.17295555622823022,-0.17295555622823022
199.26,0.1722927708060923,-0.1722927708060923
199.261,0.1666204651773202,-0.1666204651773202
199.262,0.1596139965196277,-0.1596139965196277
199.263,0.15463469432783716,-0.15463469432783716
199.264,0.15349210421354476,-0.15349210421354476
199.265,0.15592450322042306,-0.15592450322042306
199.266,0.15995325792845327,-0.15995325792845327
199.267,0.16293275283670106,-0.16293275283670106
199.268,0.16285676475765498,-0.16285676475765498
199.269,0.15938945703206897,-0.15938945703206897
199.27,0.15419740537596915,-0.15419740537596915
199.271,0.15042711133762543,-0.15042711133762543
199.272,0.15150071085079897,-0.15150071085079897
199.273,0.15966965261334998,-0.15966965261334998
199.274,0.17487319924755607,-0.17487319924755607
199.275,0.19435534544047817,-0.19435534544047817
199.276,0.21323264107368534,-0.21323264107368534
199.277,0.22586964113149688,-0.22586964113149688
199.278,0.22762817425393522,-0.22762817425393522
199.279,0.2164146535080308,-0.2164146535080308
199.28,0.1935061970368408,-0.1935061970368408
199.281,0.16337081978668344,-0.16337081978668344
199.282,0.1325266980703832,-0.1325266980703832
199.283,0.10779604927668018,-0.10779604927668018
199.284,0.09449534628666656,-0.09449534628666656
199.285,0.09510620334421782,-0.09510620334421782
199.286,0.1087963919423961,-0.1087963919423961
199.287,0.1318748972063699,-0.1318748972063699
199.288,0.15897038405645803,-0.15897038405645803
199.289,0.18451818356626049,-0.18451818356626049
199.29,0.20408905363503094,-0.20408905363503094
199.291,0.2151986617969316,-0.2151986617969316
199.292,0.2174497958117153,-0.2174497958117153
199.293,0.21209571988039322,-0.21209571988039322
199.294,0.20128758861192297,-0.20128758861192297
199.295,0.1873259681935785,-0.1873259681935785
199.296,0.17216889378057254,-0.17216889378057254
199.297,0.1572963538145412,-0.1572963538145412
199.298,0.14386220353743917,-0.14386220353743917
199.299,0.13294825293194845,-0.13294825293194845
199.3,0.1257142184620007,-0.1257142184620007
199.301,0.12331243409483172,-0.12331243409483172
199.302,0.12656917781520383,-0.12656917781520383
199.303,0.135564598537404,-0.135564598537404
199.304,0.14931340900049683,-0.14931340900049683
199.305,0.16572832175562457,-0.16572832175562457
199.306,0.18194566990458005,-0.18194566990458005
199.307,0.19495014847646375,-0.19495014847646375
199.308,0.20231196534687768,-0.20231196534687768
199.309,0.20279593980774624,-0.20279593980774624
199.31,0.19664074710784407,-0.19664074710784407
199.311,0.18542264292104038,-0.18542264292104038
199.312,0.17156555230537862,-0.17156555230537862
199.313,0.15768006147197855,-0.15768006147197855
199.314,0.1459607444491221,-0.1459607444491221
199.315,0.1378278897108155,-0.1378278897108155
199.316,0.13388640841555965,-0.13388640841555965
199.317,0.13414013343395093,-0.13414013343395093
199.318,0.1383006262811597,-0.1383006262811597
199.319,0.1460073571156828,-0.1460073571156828
199.32,0.15683930289349013,-0.15683930289349013
199.321,0.17011846166614963,-0.17011846166614963
199.322,0.18462982723055132,-0.18462982723055132
199.323,0.19845293021822596,-0.19845293021822596
199.324,0.20908083435591063,-0.20908083435591063
199.325,0.2138943319459411,-0.2138943319459411
199.326,0.21090159443920675,-0.21090159443920675
199.327,0.1995106426246036,-0.1995106426246036
199.328,0.18103689243770682,-0.18103689243770682
199.329,0.15869701631770694,-0.15869701631770694
199.33,0.1369962179615739,-0.1369962179615739
199.331,0.12062792130584477,-0.12062792130584477
199.332,0.11319566710828965,-0.11319566710828965
199.333,0.1161618330274714,-0.1161618330274714
199.334,0.12838332816073994,-0.12838332816073994
199.335,0.1464173839849091,-0.1464173839849091
199.336,0.16552786170420286,-0.16552786170420286
199.337,0.18108213432481302,-0.18108213432481302
199.338,0.1898880449019843,-0.1898880449019843
199.339,0.19103391513435886,-0.19103391513435886
199.34,0.1859617184509904,-0.1859617184509904
199.341,0.17776780981326967,-0.17776780981326967
199.342,0.16999368325318953,-0.16999368325318953
199.343,0.1653445461361437,-0.1653445461361437
199.344,0.1647918376460994,-0.1647918376460994
199.345,0.16736958306384242,-0.16736958306384242
199.346,0.17071637803061357,-0.17071637803061357
199.347,0.1721391847620467,-0.1721391847620467
199.348,0.16978353368079013,-0.16978353368079013
199.349,0.1634582953482726,-0.1634582953482726
199.35,0.15479590353177486,-0.15479590353177486
199.351,0.1466818457019219,-0.1466818457019219
199.352,0.1421662170452933,-0.1421662170452933
199.353,0.1432704966311582,-0.1432704966311582
199.354,0.15014836575949564,-0.15014836575949564
199.355,0.16093163114609987,-0.16093163114609987
199.356,0.17233739985136043,-0.17233739985136043
199.357,0.18082515831468793,-0.18082515831468793
199.358,0.18388027279929353,-0.18388027279929353
199.359,0.18094458584910678,-0.18094458584910678
199.36,0.1736384629409733,-0.1736384629409733
199.361,0.16517795784603206,-0.16517795784603206
199.362,0.15919034746519845,-0.15919034746519845
199.363,0.15835940615712651,-0.15835940615712651
199.364,0.1634020100798731,-0.1634020100798731
199.365,0.17276152170040493,-0.17276152170040493
199.366,0.1831417811682513,-0.1831417811682513
199.367,0.1906942066178986,-0.1906942066178986
199.368,0.19242503950861523,-0.19242503950861523
199.369,0.18730258349490303,-0.18730258349490303
199.37,0.17664988792644187,-0.17664988792644187
199.371,0.16366976855612114,-0.16366976855612114
199.372,0.1522708585862752,-0.1522708585862752
199.373,0.14562641302539636,-0.14562641302539636
199.374,0.14500312602270982,-0.14500312602270982
199.375,0.14930388557776542,-0.14930388557776542
199.376,0.15550816563378922,-0.15550816563378922
199.377,0.15986094416893637,-0.15986094416893637
199.378,0.1593780106043463,-0.1593780106043463
199.379,0.15310776924369496,-0.15310776924369496
199.38,0.1426666288017544,-0.1426666288017544
199.381,0.1318214744383791,-0.1318214744383791
199.382,0.12523707834639164,-0.12523707834639164
199.383,0.12681402207254855,-0.12681402207254855
199.384,0.13820143777946237,-0.13820143777946237
199.385,0.15801963926960627,-0.15801963926960627
199.386,0.1820865811748401,-0.1820865811748401
199.387,0.20459451423705088,-0.20459451423705088
199.388,0.21985304399815608,-0.21985304399815608
199.389,0.2240193551312687,-0.2240193551312687
199.39,0.2162440075441262,-0.2162440075441262
199.391,0.1988665368978143,-0.1988665368978143
199.392,0.17662341599650278,-0.17662341599650278
199.393,0.15516352884006057,-0.15516352884006057
199.394,0.13938581319257926,-0.13938581319257926
199.395,0.13214613169232703,-0.13214613169232703
199.396,0.133721057985414,-0.133721057985414
199.397,0.14212987450433878,-0.14212987450433878
199.398,0.15411143077107736,-0.15411143077107736
199.399,0.16634116278426037,-0.16634116278426037
199.4,0.1764284755925395,-0.1764284755925395
199.401,0.18336402654242645,-0.18336402654242645
199.402,0.1873322992061015,-0.1873322992061015
199.403,0.1890668582703875,-0.1890668582703875
199.404,0.18910037249461797,-0.18910037249461797
199.405,0.18728231791460126,-0.18728231791460126
199.406,0.18279984774721225,-0.18279984774721225
199.407,0.17470049951558897,-0.17470049951558897
199.408,0.16267778678528322,-0.16267778678528322
199.409,0.14774160203143782,-0.14774160203143782
199.41,0.13241533780551584,-0.13241533780551584
199.411,0.12027799665874095,-0.12027799665874095
199.412,0.11493616095339165,-0.11493616095339165
199.413,0.11876269056662092,-0.11876269056662092
199.414,0.13187323658101457,-0.13187323658101457
199.415,0.15176726076116875,-0.15176726076116875
199.416,0.17384399850828713,-0.17384399850828713
199.417,0.1926898886241869,-0.1926898886241869
199.418,0.2037378735969516,-0.2037378735969516
199.419,0.2047345912389853,-0.2047345912389853
199.42,0.19648773430457944,-0.19648773430457944
199.421,0.18259883773440067,-0.18259883773440067
199.422,0.16823862240872534,-0.16823862240872534
199.423,0.1583676567581852,-0.1583676567581852
199.424,0.15601720896073357,-0.15601720896073357
199.425,0.16124149721622294,-0.16124149721622294
199.426,0.1711276137281469,-0.1711276137281469
199.427,0.18087862142786504,-0.18087862142786504
199.428,0.18559944340956835,-0.18559944340956835
199.429,0.18215372569279287,-0.18215372569279287
199.43,0.17042043795971007,-0.17042043795971007
199.431,0.15348075605246558,-0.15348075605246558
199.432,0.13664095645749152,-0.13664095645749152
199.433,0.12561385208065623,-0.12561385208065623
199.434,0.12449049755935626,-0.12449049755935626
199.435,0.13422249264182895,-0.13422249264182895
199.436,0.15216773690715946,-0.15216773690715946
199.437,0.172884846119987,-0.172884846119987
199.438,0.18992201116923157,-0.18992201116923157
199.439,0.197990517438692,-0.197990517438692
199.44,0.1947689183014646,-0.1947689183014646
199.441,0.18170442879315163,-0.18170442879315163
199.442,0.16352323120266132,-0.16352323120266132
199.443,0.14661080340112254,-0.14661080340112254
199.444,0.1368191364396204,-0.1368191364396204
199.445,0.13746007939586402,-0.13746007939586402
199.446,0.14818116052280428,-0.14818116052280428
199.447,0.16511363653733668,-0.16511363653733668
199.448,0.18223963301373247,-0.18223963301373247
199.449,0.19350134469782765,-0.19350134469782765
199.45,0.19491865410381237,-0.19491865410381237
199.451,0.18598127676457876,-0.18598127676457876
199.452,0.16983645254501023,-0.16983645254501023
199.453,0.1522127680296278,-0.1522127680296278
199.454,0.13945754235736385,-0.13945754235736385
199.455,0.1363672903519746,-0.1363672903519746
199.456,0.14455469570177826,-0.14455469570177826
199.457,0.16190216718267147,-0.16190216718267147
199.458,0.18327215500401184,-0.18327215500401184
199.459,0.20221252716143856,-0.20221252716143856
199.46,0.2130617718352943,-0.2130617718352943
199.461,0.2127369142815081,-0.2127369142815081
199.462,0.20161425221360507,-0.20161425221360507
199.463,0.18323935993983909,-0.18323935993983909
199.464,0.16301027343335261,-0.16301027343335261
199.465,0.14632306226739766,-0.14632306226739766
199.466,0.13683423780737236,-0.13683423780737236
199.467,0.13542771709278012,-0.13542771709278012
199.468,0.14020581100029605,-0.14020581100029605
199.469,0.14745385515496867,-0.14745385515496867
199.47,0.1531891015860547,-0.1531891015860547
199.471,0.15471397021435063,-0.15471397021435063
199.472,0.15161373339785,-0.15161373339785
199.473,0.1458554780525778,-0.1458554780525778
199.474,0.1409764545280322,-0.1409764545280322
199.475,0.14067574807368866,-0.14067574807368866
199.476,0.14732927158741282,-0.14732927158741282
199.477,0.16096555396203882,-0.16096555396203882
199.478,0.17906800779043697,-0.17906800779043697
199.479,0.19727377295719373,-0.19727377295719373
199.48,0.21072637513507808,-0.21072637513507808
199.481,0.215618324539256,-0.215618324539256
199.482,0.21040387774270441,-0.21040387774270441
199.483,0.19628521552547107,-0.19628521552547107
199.484,0.17682879103630122,-0.17682879103630122
199.485,0.1568612207725545,-0.1568612207725545
199.486,0.14102494170898006,-0.14102494170898006
199.487,0.13246770201683022,-0.13246770201683022
199.488,0.13207184094642266,-0.13207184094642266
199.489,0.13843062560271358,-0.13843062560271358
199.49,0.1485236241790595,-0.1485236241790595
199.491,0.15882008486507027,-0.15882008486507027
199.492,0.1664210757659268,-0.1664210757659268
199.493,0.16987011880123937,-0.16987011880123937
199.494,0.16940203197757842,-0.16940203197757842
199.495,0.1666047381307436,-0.1666047381307436
199.496,0.1636651319191279,-0.1636651319191279
199.497,0.1624926249643185,-0.1624926249643185
199.498,0.16402784214895305,-0.16402784214895305
199.499,0.167953936043163,-0.167953936043163
199.5,0.17287362874994805,-0.17287362874994805
199.501,0.1768540364406298,-0.1768540364406298
199.502,0.17812803366972352,-0.17812803366972352
199.503,0.17570834732214502,-0.17570834732214502
199.504,0.16972115156359435,-0.16972115156359435
199.505,0.16137394448109266,-0.16137394448109266
199.506,0.1525959766827918,-0.1525959766827918
199.507,0.1454865007917434,-0.1454865007917434
199.508,0.1417489042766994,-0.1417489042766994
199.509,0.14227142083755862,-0.14227142083755862
199.51,0.1469522627518296,-0.1469522627518296
199.511,0.15478575446895682,-0.15478575446895682
199.512,0.1641544938523557,-0.1641544938523557
199.513,0.1732300313137266,-0.1732300313137266
199.514,0.18037665578509043,-0.18037665578509043
199.515,0.18447267575420412,-0.18447267575420412
199.516,0.18509729086776938,-0.18509729086776938
199.517,0.18256524599446033,-0.18256524599446033
199.518,0.17781799657575137,-0.17781799657575137
199.519,0.1721981495043583,-0.1721981495043583
199.52,0.1671470991337326,-0.1671470991337326
199.521,0.16387773091661761,-0.16387773091661761
199.522,0.16308464956889868,-0.16308464956889868
199.523,0.16475851911556805,-0.16475851911556805
199.524,0.16816122284866064,-0.16816122284866064
199.525,0.17198945737513816,-0.17198945737513816
199.526,0.1747079291340652,-0.1747079291340652
199.527,0.17498041913686724,-0.17498041913686724
199.528,0.17208522573354135,-0.17208522573354135
199.529,0.16618897509616182,-0.16618897509616182
199.53,0.15838026343792444,-0.15838026343792444
199.531,0.15042941928216347,-0.15042941928216347
199.532,0.1443254370514252,-0.1443254370514252
199.533,0.1417182504840684,-0.1417182504840684
199.534,0.1434356111394819,-0.1434356111394819
199.535,0.14923061212766198,-0.14923061212766198
199.536,0.1578482195146068,-0.1578482195146068
199.537,0.16739690358809123,-0.16739690358809123
199.538,0.1759087073903356,-0.1759087073903356
199.539,0.18190452549675973,-0.18190452549675973
199.54,0.18477670044238947,-0.18477670044238947
199.541,0.18486272780724,-0.18486272780724
199.542,0.18319219515921426,-0.18319219515921426
199.543,0.18100627501714484,-0.18100627501714484
199.544,0.17923246478675736,-0.17923246478675736
199.545,0.1781149410017241,-0.1781149410017241
199.546,0.17714418076741656,-0.17714418076741656
199.547,0.17531712277560718,-0.17531712277560718
199.548,0.17163135200813295,-0.17163135200813295
199.549,0.16562119494771077,-0.16562119494771077
199.55,0.1577176276560771,-0.1577176276560771
199.551,0.14927037103740037,-0.14927037103740037
199.552,0.14219195936304707,-0.14219195936304707
199.553,0.1383273522844224,-0.1383273522844224
199.554,0.13876601513845022,-0.13876601513845022
199.555,0.1433524309733164,-0.1433524309733164
199.556,0.15059730405739158,-0.15059730405739158
199.557,0.15806006215910695,-0.15806006215910695
199.558,0.1631075388197839,-0.1631075388197839
199.559,0.16381201201927542,-0.16381201201927542
199.56,0.159685943858641,-0.159685943858641
199.561,0.15198762873298177,-0.15198762873298177
199.562,0.143463006247723,-0.143463006247723
199.563,0.137572341283693,-0.137572341283693
199.564,0.13742512603145585,-0.13742512603145585
199.565,0.14475276066653275,-0.14475276066653275
199.566,0.1592488658284008,-0.1592488658284008
199.567,0.1784993431829469,-0.1784993431829469
199.568,0.19854269144838532,-0.19854269144838532
199.569,0.21490453259034503,-0.21490453259034503
199.57,0.22380255984284025,-0.22380255984284025
199.571,0.2231663785362683,-0.2231663785362683
199.572,0.21317615670534562,-0.21317615670534562
199.573,0.196173479728751,-0.196173479728751
199.574,0.17598780028555738,-0.17598780028555738
199.575,0.15689171996004803,-0.15689171996004803
199.576,0.14249642424520148,-0.14249642424520148
199.577,0.1348986401335922,-0.1348986401335922
199.578,0.13429854624867665,-0.13429854624867665
199.579,0.13915842040853277,-0.13915842040853277
199.58,0.14681387311577987,-0.14681387311577987
199.581,0.15433082487075378,-0.15433082487075378
199.582,0.15935274692461132,-0.15935274692461132
199.583,0.1607103160229134,-0.1607103160229134
199.584,0.15865225711475595,-0.15865225711475595
199.585,0.1546696542473347,-0.1546696542473347
199.586,0.150991740326179,-0.150991740326179
199.587,0.14990303468947508,-0.14990303468947508
199.588,0.15305832483970594,-0.15305832483970594
199.589,0.16095661141897366,-0.16095661141897366
199.59,0.172690353573977,-0.172690353573977
199.591,0.1860269970428876,-0.1860269970428876
199.592,0.19781730320277702,-0.19781730320277702
199.593,0.20466572403039285,-0.20466572403039285
199.594,0.20374525001068755,-0.20374525001068755
199.595,0.19359712094699422,-0.19359712094699422
199.596,0.17473298548898974,-0.17473298548898974
199.597,0.1498656197757805,-0.1498656197757805
199.598,0.12364517985013523,-0.12364517985013523
199.599,0.10187378008926284,-0.10187378008926284
199.6,0.09029974804661756,-0.09029974804661756
199.601,0.09322542785148125,-0.09322542785148125
199.602,0.11225885898656462,-0.11225885898656462
199.603,0.14556067430712083,-0.14556067430712083
199.604,0.18785942737890704,-0.18785942737890704
199.605,0.23133573697302645,-0.23133573697302645
199.606,0.2672452374253802,-0.2672452374253802
199.607,0.28792527012278124,-0.28792527012278124
199.608,0.28868180632895724,-0.28868180632895724
199.609,0.26903764108918493,-0.26903764108918493
199.61,0.2329607170393866,-0.2329607170393866
199.611,0.18795538961167058,-0.18795538961167058
199.612,0.1432188302718893,-0.1432188302718893
199.613,0.10734456167251905,-0.10734456167251905
199.614,0.08620537113402227,-0.08620537113402227
199.615,0.08161383524579291,-0.08161383524579291
199.616,0.09114149214699829,-0.09114149214699829
199.617,0.10913738296827125,-0.10913738296827125
199.618,0.12862583240578074,-0.12862583240578074
199.619,0.14349540479969092,-0.14349540479969092
199.62,0.15030341878751918,-0.15030341878751918
199.621,0.14914490504674105,-0.14914490504674105
199.622,0.1433350318445218,-0.1433350318445218
199.623,0.13803534215837776,-0.13803534215837776
199.624,0.1382939116458719,-0.1382939116458719
199.625,0.147156772859393,-0.147156772859393
199.626,0.1644804608680902,-0.1644804608680902
199.627,0.18684132012980015,-0.18684132012980015
199.628,0.2085727160162647,-0.2085727160162647
199.629,0.22358664900888492,-0.22358664900888492
199.63,0.22737556449920115,-0.22737556449920115
199.631,0.2185299787338072,-0.2185299787338072
199.632,0.19926783711557272,-0.19926783711557272
199.633,0.17479867740376254,-0.17479867740376254
199.634,0.1517304036162792,-0.1517304036162792
199.635,0.13604050481786645,-0.13604050481786645
199.636,0.13127270587132422,-0.13127270587132422
199.637,0.13753918432207646,-0.13753918432207646
199.638,0.15163644386456732,-0.15163644386456732
199.639,0.16821232536891995,-0.16821232536891995
199.64,0.18157724929393237,-0.18157724929393237
199.641,0.1875492608137348,-0.1875492608137348
199.642,0.1847257515256071,-0.1847257515256071
199.643,0.17478043441372448,-0.17478043441372448
199.644,0.16171979647321633,-0.16171979647321633
199.645,0.15038373164802354,-0.15038373164802354
199.646,0.14472210116753004,-0.14472210116753004
199.647,0.1464412086569168,-0.1464412086569168
199.648,0.15447409510534682,-0.15447409510534682
199.649,0.16543737893549082,-0.16543737893549082
199.65,0.17489655223071343,-0.17489655223071343
199.651,0.1789876585127108,-0.1789876585127108
199.652,0.17582786818285456,-0.17582786818285456
199.653,0.1662270478521678,-0.1662270478521678
199.654,0.1534567709021304,-0.1534567709021304
199.655,0.14215697400971394,-0.14215697400971394
199.656,0.13675302655635935,-0.13675302655635935
199.657,0.13991931885522857,-0.13991931885522857
199.658,0.15160687660481198,-0.15160687660481198
199.659,0.1689612946160437,-0.1689612946160437
199.66,0.18716026351710935,-0.18716026351710935
199.661,0.20089770355189618,-0.20089770355189618
199.662,0.20603392426903433,-0.20603392426903433
199.663,0.20088431978355492,-0.20088431978355492
199.664,0.18674410643171946,-0.18674410643171946
199.665,0.16749793139125568,-0.16749793139125568
199.666,0.14845539626277493,-0.14845539626277493
199.667,0.1347909373599112,-0.1347909373599112
199.668,0.13007494115936868,-0.13007494115936868
199.669,0.13533329878952294,-0.13533329878952294
199.67,0.14888821437018773,-0.14888821437018773
199.671,0.16697978541699476,-0.16697978541699476
199.672,0.184930240018502,-0.184930240018502
199.673,0.19846543127886185,-0.19846543127886185
199.674,0.20479218056526316,-0.20479218056526316
199.675,0.20314108178779866,-0.20314108178779866
199.676,0.19467719118531357,-0.19467719118531357
199.677,0.1818869107772212,-0.1818869107772212
199.678,0.1677003657988042,-0.1677003657988042
199.679,0.15465994850849596,-0.15465994850849596
199.68,0.14438925754203868,-0.14438925754203868
199.681,0.1374809579589895,-0.1374809579589895
199.682,0.13376028320931688,-0.13376028320931688
199.683,0.1327511004217271,-0.1327511004217271
199.684,0.1341166117135889,-0.1341166117135889
199.685,0.13788092844779953,-0.13788092844779953
199.686,0.1443430090701463,-0.1443430090701463
199.687,0.15372883980298913,-0.15372883980298913
199.688,0.16574096750996992,-0.16574096750996992
199.689,0.17921564464066952,-0.17921564464066952
199.69,0.19206903990908653,-0.19206903990908653
199.691,0.2016156404762196,-0.2016156404762196
199.692,0.20520841905041742,-0.20520841905041742
199.693,0.201027518799052,-0.201027518799052
199.694,0.18877417731745394,-0.18877417731745394
199.695,0.17003384224575435,-0.17003384224575435
199.696,0.14815632047993643,-0.14815632047993643
199.697,0.12763642851322865,-0.12763642851322865
199.698,0.11312508396057297,-0.11312508396057297
199.699,0.10831417662132392,-0.10831417662132392
199.7,0.11498523557069507,-0.11498523557069507
199.701,0.1324781410513589,-0.1324781410513589
199.702,0.1577314547340799,-0.1577314547340799
199.703,0.18589962877853916,-0.18589962877853916
199.704,0.21140446399174506,-0.21140446399174506
199.705,0.22916811826029204,-0.22916811826029204
199.706,0.23573083271252526,-0.23573083271252526
199.707,0.22998820961399458,-0.22998820961399458
199.708,0.2133802273471952,-0.2133802273471952
199.709,0.1895006785981843,-0.1895006785981843
199.71,0.1632359549631648,-0.1632359549631648
199.711,0.1396511192222003,-0.1396511192222003
199.712,0.12289320415543081,-0.12289320415543081
199.713,0.11536599055614727,-0.11536599055614727
199.714,0.11735361797255128,-0.11735361797255128
199.715,0.12715361823375793,-0.12715361823375793
199.716,0.1416537730130233,-0.1416537730130233
199.717,0.15718329241960638,-0.15718329241960638
199.718,0.17041224190730653,-0.17041224190730653
199.719,0.1790761785865207,-0.1790761785865207
199.72,0.1823622626121485,-0.1823622626121485
199.721,0.18089093721696992,-0.18089093721696992
199.722,0.1763363754820897,-0.1763363754820897
199.723,0.17081992607284524,-0.17081992607284524
199.724,0.1662602450242775,-0.1662602450242775
199.725,0.16386032315236432,-0.16386032315236432
199.726,0.1638589213543009,-0.1638589213543009
199.727,0.16558941163427088,-0.16558941163427088
199.728,0.16779846616104044,-0.16779846616104044
199.729,0.16910685989215202,-0.16910685989215202
199.73,0.16846407908261385,-0.16846407908261385
199.731,0.16546393300631945,-0.16546393300631945
199.732,0.16044213043860667,-0.16044213043860667
199.733,0.15434964319172007,-0.15434964319172007
199.734,0.14846361375182215,-0.14846361375182215
199.735,0.14403958394400984,-0.14403958394400984
199.736,0.14201366733485254,-0.14201366733485254
199.737,0.14283270942781479,-0.14283270942781479
199.738,0.1464380296300376,-0.1464380296300376
199.739,0.1523741534641676,-0.1523741534641676
199.74,0.1599573718624574,-0.1599573718624574
199.741,0.16843167396231995,-0.16843167396231995
199.742,0.1770616158454188,-0.1770616158454188
199.743,0.18515178260116394,-0.18515178260116394
199.744,0.19202277661558986,-0.19202277661558986
199.745,0.19699663058414763,-0.19699663058414763
199.746,0.19944005167197754,-0.19944005167197754
199.747,0.19888330930684472,-0.19888330930684472
199.748,0.19518848431678382,-0.19518848431678382
199.749,0.18870234894722981,-0.18870234894722981
199.75,0.1803145586401006,-0.1803145586401006
199.751,0.17136089560697687,-0.17136089560697687
199.752,0.1633607644165317,-0.1633607644165317
199.753,0.15764191626547752,-0.15764191626547752
199.754,0.1549597572954181,-0.1549597572954181
199.755,0.1552407814634542,-0.1552407814634542
199.756,0.15755665168003619,-0.15755665168003619
199.757,0.16036989490247067,-0.16036989490247067
199.758,0.1620029058328295,-0.1620029058328295
199.759,0.16119852402852874,-0.16119852402852874
199.76,0.15759334051154894,-0.15759334051154894
199.761,0.1519346057831652,-0.1519346057831652
199.762,0.14594052029880167,-0.14594052029880167
199.763,0.1418136994477769,-0.1418136994477769
199.764,0.14153486768051626,-0.14153486768051626
199.765,0.14614925629651532,-0.14614925629651532
199.766,0.1552804349134732,-0.1552804349134732
199.767,0.16705301836543718,-0.16705301836543718
199.768,0.1784888174635113,-0.1784888174635113
199.769,0.18629432982710825,-0.18629432982710825
199.77,0.18782665406796895,-0.18782665406796895
199.771,0.18195308586879733,-0.18195308586879733
199.772,0.16953318060130773,-0.16953318060130773
199.773,0.15335119314732748,-0.15335119314732748
199.774,0.137484470749491,-0.137484470749491
199.775,0.12626283334903132,-0.12626283334903132
199.776,0.1231030321030635,-0.1231030321030635
199.777,0.12954979658533206,-0.12954979658533206
199.778,0.14480383562712407,-0.14480383562712407
199.779,0.16588073619517407,-0.16588073619517407
199.78,0.18836296404731345,-0.18836296404731345
199.781,0.2075346813307658,-0.2075346813307658
199.782,0.21957822389665038,-0.21957822389665038
199.783,0.22249566228379225,-0.22249566228379225
199.784,0.21650357459117997,-0.21650357459117997
199.785,0.20380792498461486,-0.20380792498461486
199.786,0.18785002448842392,-0.18785002448842392
199.787,0.17226767775380092,-0.17226767775380092
199.788,0.15989148363366246,-0.15989148363366246
199.789,0.15207285516774827,-0.15207285516774827
199.79,0.1485266375471681,-0.1485266375471681
199.791,0.14770414940889431,-0.14770414940889431
199.792,0.14754513029833904,-0.14754513029833904
199.793,0.1463419144198328,-0.1463419144198328
199.794,0.14342157175635295,-0.14342157175635295
199.795,0.1394191242571352,-0.1394191242571352
199.796,0.13605450130253727,-0.13605450130253727
199.797,0.13549219793832634,-0.13549219793832634
199.798,0.13950203987159027,-0.13950203987159027
199.799,0.14870731545701232,-0.14870731545701232
199.8,0.16218110183746315,-0.16218110183746315
199.801,0.17754101569397984,-0.17754101569397984
199.802,0.19153216895493141,-0.19153216895493141
199.803,0.20092906049435333,-0.20092906049435333
199.804,0.2034804147872371,-0.2034804147872371
199.805,0.19860103356839742,-0.19860103356839742
199.806,0.18758857459975742,-0.18758857459975742
199.807,0.1732881211209436,-0.1732881211209436
199.808,0.15929816033108501,-0.15929816033108501
199.809,0.148954504542139,-0.148954504542139
199.81,0.1443986874264538,-0.1443986874264538
199.811,0.14601218377090586,-0.14601218377090586
199.812,0.15238504996998736,-0.15238504996998736
199.813,0.1608224177641483,-0.1608224177641483
199.814,0.16822635258416074,-0.16822635258416074
199.815,0.1720758164656998,-0.1720758164656998
199.816,0.17119966178972723,-0.17119966178972723
199.817,0.16610516197898062,-0.16610516197898062
199.818,0.1587659916685621,-0.1587659916685621
199.819,0.15194408039958252,-0.15194408039958252
199.82,0.1482656646810122,-0.1482656646810122
199.821,0.14934742271121682,-0.14934742271121682
199.822,0.1552504596762565,-0.1552504596762565
199.823,0.16443445254844713,-0.16443445254844713
199.824,0.17422530213634257,-0.17422530213634257
199.825,0.18164765073981803,-0.18164765073981803
199.826,0.18435962520991345,-0.18435962520991345
199.827,0.1813965721525428,-0.1813965721525428
199.828,0.1734921143398167,-0.1734921143398167
199.829,0.16287818022541478,-0.16287818022541478
199.83,0.15262801740534493,-0.15262801740534493
199.831,0.14574637616782038,-0.14574637616782038
199.832,0.1442856672868712,-0.1442856672868712
199.833,0.14875401171621638,-0.14875401171621638
199.834,0.15798669684492628,-0.15798669684492628
199.835,0.16950803092278244,-0.16950803092278244
199.836,0.18026217651301502,-0.18026217651301502
199.837,0.1874852723873539,-0.1874852723873539
199.838,0.18945828526345765,-0.18945828526345765
199.839,0.1859276779062593,-0.1859276779062593
199.84,0.1780907509710028,-0.1780907509710028
199.841,0.1681774119203543,-0.1681774119203543
199.842,0.1587771241931346,-0.1587771241931346
199.843,0.15212384500613407,-0.15212384500613407
199.844,0.1495465695767163,-0.1495465695767163
199.845,0.15122527948204412,-0.15122527948204412
199.846,0.15628767595559934,-0.15628767595559934
199.847,0.16317686714428803,-0.16317686714428803
199.848,0.1701474565942166,-0.1701474565942166
199.849,0.17572731634219663,-0.17572731634219663
199.85,0.17901594499423656,-0.17901594499423656
199.851,0.1797611259937495,-0.1797611259937495
199.852,0.1782361765279068,-0.1782361765279068
199.853,0.17500225660031776,-0.17500225660031776
199.854,0.1706647658479793,-0.1706647658479793
199.855,0.16571537843617445,-0.16571537843617445
199.856,0.16050247197642098,-0.16050247197642098
199.857,0.1553134699200326,-0.1553134699200326
199.858,0.1505057963761891,-0.1505057963761891
199.859,0.1466052992648479,-0.1466052992648479
199.86,0.14430694317506554,-0.14430694317506554
199.861,0.14435447691541892,-0.14435447691541892
199.862,0.14732683841059901,-0.14732683841059901
199.863,0.15340008703246877,-0.15340008703246877
199.864,0.1621700414860967,-0.1621700414860967
199.865,0.17260732952346813,-0.17260732952346813
199.866,0.18317852708173954,-0.18317852708173954
199.867,0.19211767877940622,-0.19211767877940622
199.868,0.19778774188462422,-0.19778774188462422
199.869,0.1990446467108299,-0.1990446467108299
199.87,0.1955143130125867,-0.1955143130125867
199.871,0.18771385505265015,-0.18771385505265015
199.872,0.17698485671949638,-0.17698485671949638
199.873,0.16524861235516164,-0.16524861235516164
199.874,0.154630853414086,-0.154630853414086
199.875,0.14702996060321183,-0.14702996060321183
199.876,0.14371482214068088,-0.14371482214068088
199.877,0.1450358532488396,-0.1450358532488396
199.878,0.15031604019660683,-0.15031604019660683
199.879,0.15795948816099636,-0.15795948816099636
199.88,0.16577495063116743,-0.16577495063116743
199.881,0.17146546727387668,-0.17146546727387668
199.882,0.17319022609922596,-0.17319022609922596
199.883,0.17007216603323894,-0.17007216603323894
199.884,0.16251691994511208,-0.16251691994511208
199.885,0.15223476863929342,-0.15223476863929342
199.886,0.1419188204760483,-0.1419188204760483
199.887,0.13461988546041304,-0.13461988546041304
199.888,0.13295047354730538,-0.13295047354730538
199.889,0.1383192539833078,-0.1383192539833078
199.89,0.15041693488985464,-0.15041693488985464
199.891,0.16712983213902421,-0.16712983213902421
199.892,0.1849521372544728,-0.1849521372544728
199.893,0.1998267189287697,-0.1998267189287697
199.894,0.20820768342772644,-0.20820768342772644
199.895,0.2080505784160579,-0.2080505784160579
199.896,0.19943212518047138,-0.19943212518047138
199.897,0.18459102210133516,-0.18459102210133516
199.898,0.16734482730147782,-0.16734482730147782
199.899,0.15202862678352014,-0.15202862678352014
199.9,0.14225902029304438,-0.14225902029304438
199.901,0.1398975507056801,-0.1398975507056801
199.902,0.14454156998031942,-0.14454156998031942
199.903,0.15371521818870615,-0.15371521818870615
199.904,0.16371357458063696,-0.16371357458063696
199.905,0.17083868673677516,-0.17083868673677516
199.906,0.17262916832144537,-0.17262916832144537
199.907,0.1686753604003729,-0.1686753604003729
199.908,0.16073902578952337,-0.16073902578952337
199.909,0.15212333502976616,-0.15212333502976616
199.91,0.1464926163121153,-0.1464926163121153
199.911,0.1465363452480689,-0.1465363452480689
199.912,0.1529387521448401,-0.1529387521448401
199.913,0.1640259041574076,-0.1640259041574076
199.914,0.17624067129479037,-0.17624067129479037
199.915,0.18531380074424797,-0.18531380074424797
199.916,0.18775160517032896,-0.18775160517032896
199.917,0.18213465920364524,-0.18213465920364524
199.918,0.16976584974333242,-0.16976584974333242
199.919,0.15441152156479,-0.15441152156479
199.92,0.1411814017172448,-0.1411814017172448
199.921,0.1348907490503577,-0.1348907490503577
199.922,0.13843890274894577,-0.13843890274894577
199.923,0.15175273837171688,-0.15175273837171688
199.924,0.1716707917849032,-0.1716707917849032
199.925,0.19283752057904435,-0.19283752057904435
199.926,0.20933849557932283,-0.20933849557932283
199.927,0.21655136363791516,-0.21655136363791516
199.928,0.21260381058784317,-0.21260381058784317
199.929,0.19895095589298128,-0.19895095589298128
199.93,0.17987337963040406,-0.17987337963040406
199.931,0.16105767115621128,-0.16105767115621128
199.932,0.14773180252430984,-0.14773180252430984
199.933,0.14298075522797826,-0.14298075522797826
199.934,0.14680910844650652,-0.14680910844650652
199.935,0.15626437471004584,-0.15626437471004584
199.936,0.1665726064709987,-0.1665726064709987
199.937,0.17288986734434864,-0.17288986734434864
199.938,0.172059733434752,-0.172059733434752
199.939,0.16376303149597027,-0.16376303149597027
199.94,0.15065475610870516,-0.15065475610870516
199.941,0.13743407773976402,-0.13743407773976402
199.942,0.1291660624766915,-0.1291660624766915
199.943,0.1294389476593123,-0.1294389476593123
199.944,0.13900537517948508,-0.13900537517948508
199.945,0.15539543268416722,-0.15539543268416722
199.946,0.17365710605739937,-0.17365710605739937
199.947,0.18798924230829905,-0.18798924230829905
199.948,0.1937180186132894,-0.1937180186132894
199.949,0.18893964052614076,-0.18893964052614076
199.95,0.17525572918961752,-0.17525572918961752
199.951,0.15733016659935672,-0.15733016659935672
199.952,0.1413950573795809,-0.1413950573795809
199.953,0.1331931481879196,-0.1331931481879196
199.954,0.13604144895343862,-0.13604144895343862
199.955,0.14966778832915506,-0.14966778832915506
199.956,0.17021879594726264,-0.17021879594726264
199.957,0.19144936445175553,-0.19144936445175553
199.958,0.20671079122293334,-0.20671079122293334
199.959,0.21108947631634434,-0.21108947631634434
199.96,0.20299861067611047,-0.20299861067611047
199.961,0.1847069054662056,-0.1847069054662056
199.962,0.16163865370894637,-0.16163865370894637
199.963,0.14068017148787682,-0.14068017148787682
199.964,0.1280456657223603,-0.1280456657223603
199.965,0.12738738905889857,-0.12738738905889857
199.966,0.1387411005683088,-0.1387411005683088
199.967,0.15861468483451213,-0.15861468483451213
199.968,0.1811534311063211,-0.1811534311063211
199.969,0.19997541254641593,-0.19997541254641593
199.97,0.21007470693765873,-0.21007470693765873
199.971,0.2091972703839805,-0.2091972703839805
199.972,0.19829316598691094,-0.19829316598691094
199.973,0.18096555722166296,-0.18096555722166296
199.974,0.16216166733156112,-0.16216166733156112
199.975,0.1465766131983195,-0.1465766131983195
199.976,0.13729886115450896,-0.13729886115450896
199.977,0.13510687370276153,-0.13510687370276153
199.978,0.13858086449708718,-0.13858086449708718
199.979,0.1449114889053148,-0.1449114889053148
199.98,0.15106567862302267,-0.15106567862302267
199.981,0.15487920805196664,-0.15487920805196664
199.982,0.15570764266254333,-0.15570764266254333
199.983,0.15445040769057672,-0.15445040769057672
199.984,0.1529958776305409,-0.1529958776305409
199.985,0.15333511362610464,-0.15333511362610464
199.986,0.15669157258690447,-0.15669157258690447
199.987,0.16298595355130407,-0.16298595355130407
199.988,0.17081739410731234,-0.17081739410731234
199.989,0.1779492371528656,-0.1779492371528656
199.99,0.18210971683211075,-0.18210971683211075
199.991,0.181815521885191,-0.181815521885191
199.992,0.17692973917155586,-0.17692973917155586
199.993,0.16876734641480517,-0.16876734641480517
199.994,0.15972057921609284,-0.15972057921609284
199.995,0.152536030332581,-0.152536030332581
199.996,0.14948235694089496,-0.14948235694089496
199.997,0.1516708185559842,-0.1516708185559842
199.998,0.15872964881367058,-0.15872964881367058
199.999,0.16891423835751163,-0.16891423835751163
200.0,0.17960094885152822,-0.17960094885152822
200.001,0.18800584009930732,-0.18800584009930732
200.002,0.19191953377863813,-0.19191953377863813
200.003,0.19026338530726372,-0.19026338530726372
200.004,0.18333711198903913,-0.18333711198903913
200.005,0.17271816904750026,-0.17271816904750026
200.006,0.16086035722303893,-0.16086035722303893
200.007,0.15050227665522986,-0.15050227665522986
200.008,0.14402593572318845,-0.14402593572318845
200.009,0.14290375598627236,-0.14290375598627236
200.01,0.14734652897367428,-0.14734652897367428
200.011,0.15622464021711524,-0.15622464021711524
200.012,0.16728644223461342,-0.16728644223461342
200.013,0.17764450650393282,-0.17764450650393282
200.014,0.18444594998646635,-0.18444594998646635
200.015,0.18559381623211713,-0.18559381623211713
200.016,0.1803542367875366,-0.1803542367875366
200.017,0.16968322742157393,-0.16968322742157393
200.018,0.15614891602312142,-0.15614891602312142
200.019,0.14341102531003047,-0.14341102531003047
200.02,0.13533555251196305,-0.13533555251196305
200.021,0.13493971211874733,-0.13493971211874733
200.022,0.1434429513001807,-0.1434429513001807
200.023,0.15971057627547336,-0.15971057627547336
200.024,0.18030070622575356,-0.18030070622575356
200.025,0.20017291749809107,-0.20017291749809107
200.026,0.21392575523129453,-0.21392575523129453
200.027,0.21725669864374797,-0.21725669864374797
200.028,0.20824023303310313,-0.20824023303310313
200.029,0.18803720029217963,-0.18803720029217963
200.03,0.16078736032754815,-0.16078736032754815
200.031,0.1326634697016228,-0.1326634697016228
200.032,0.11031395971408453,-0.11031395971408453
200.033,0.0991151116537693,-0.0991151116537693
200.034,0.10172802746563325,-0.10172802746563325
200.035,0.11738141728492568,-0.11738141728492568
200.036,0.14209577688575892,-0.14209577688575892
200.037,0.16978846559632488,-0.16978846559632488
200.038,0.19393769880560163,-0.19393769880560163
200.039,0.2093189618644702,-0.2093189618644702
200.04,0.2133122701111848,-0.2133122701111848
200.041,0.20641774204437702,-0.20641774204437702
200.042,0.19186508336333696,-0.19186508336333696
200.043,0.1744797148695698,-0.1744797148695698
200.044,0.159185820218821,-0.159185820218821
200.045,0.1496168160613479,-0.1496168160613479
200.046,0.14724199816084726,-0.14724199816084726
200.047,0.15123022310380774,-0.15123022310380774
200.048,0.15902398441653465,-0.15902398441653465
200.049,0.1673739473049074,-0.1673739473049074
200.05,0.1734572003497905,-0.1734572003497905
200.051,0.17570879788347016,-0.17570879788347016
200.052,0.17412542511400697,-0.17412542511400697
200.053,0.1700006107835803,-0.1700006107835803
200.054,0.165249410409948,-0.165249410409948
200.055,0.16160818520117093,-0.16160818520117093
200.056,0.16001193339723474,-0.16001193339723474
200.057,0.16035899495244121,-0.16035899495244121
200.058,0.1617112925159252,-0.1617112925159252
200.059,0.16281073366547194,-0.16281073366547194
200.06,0.1626809185019451,-0.1626809185019451
200.061,0.1610660655212376,-0.1610660655212376
200.062,0.1585375287370715,-0.1585375287370715
200.063,0.15623810583300646,-0.15623810583300646
200.064,0.15537961222144758,-0.15537961222144758
200.065,0.15670412142692147,-0.15670412142692147
200.066,0.16012913975675924,-0.16012913975675924
200.067,0.16472059761142577,-0.16472059761142577
200.068,0.16900667696186122,-0.16900667696186122
200.069,0.17151192710094254,-0.17151192710094254
200.07,0.17130639818075222,-0.17130639818075222
200.071,0.168360307990852,-0.168360307990852
200.072,0.16357116055018117,-0.16357116055018117
200.073,0.1584564053430373,-0.1584564053430373
200.074,0.15463126529406812,-0.15463126529406812
200.075,0.15326961705069408,-0.15326961705069408
200.076,0.15474657157181027,-0.15474657157181027
200.077,0.1585858746311719,-0.1585858746311719
200.078,0.1637141461834576,-0.1637141461834576
200.079,0.16890529260058507,-0.16890529260058507
200.08,0.1732286065259443,-0.1732286065259443
200.081,0.17631996431228902,-0.17631996431228902
200.082,0.17837402666882052,-0.17837402666882052
200.083,0.1798746725194672,-0.1798746725194672
200.084,0.18119305974855415,-0.18119305974855415
200.085,0.18224226694970924,-0.18224226694970924
200.086,0.18235938312966726,-0.18235938312966726
200.087,0.18049557590783294,-0.18049557590783294
200.088,0.17566624915586893,-0.17566624915586893
200.089,0.16749700273933166,-0.16749700273933166
200.09,0.1566436250706802,-0.1566436250706802
200.091,0.1448912760046206,-0.1448912760046206
200.092,0.13484315674384195,-0.13484315674384195
200.093,0.1292560406451343,-0.1292560406451343
200.094,0.13021572007133564,-0.13021572007133564
200.095,0.13841894185659998,-0.13841894185659998
200.096,0.15281048221826643,-0.15281048221826643
200.097,0.1707180220974741,-0.1707180220974741
200.098,0.1884686390470106,-0.1884686390470106
200.099,0.20231358979075587,-0.20231358979075587
200.1,0.20938693727388602,-0.20938693727388602
200.101,0.20841310108439837,-0.20841310108439837
200.102,0.1999613048625567,-0.1999613048625567
200.103,0.186191420297676,-0.186191420297676
200.104,0.17019479371568935,-0.17019479371568935
200.105,0.1551514583846514,-0.1551514583846514
200.106,0.14356419501462547,-0.14356419501462547
200.107,0.13678171041425058,-0.13678171041425058
200.108,0.13491002638401473,-0.13491002638401473
200.109,0.13707660603881766,-0.13707660603881766
200.11,0.14190394570206444,-0.14190394570206444
200.111,0.14800337116828366,-0.14800337116828366
200.112,0.1543255716363049,-0.1543255716363049
200.113,0.16028486066811343,-0.16028486066811343
200.114,0.16567329855845725,-0.16567329855845725
200.115,0.17045876730039422,-0.17045876730039422
200.116,0.1745897099433258,-0.1745897099433258
200.117,0.1779023616544333,-0.1779023616544333
200.118,0.18016080122120948,-0.18016080122120948
200.119,0.18118781899007375,-0.18118781899007375
200.12,0.18099824223953898,-0.18099824223953898
200.121,0.1798460192186223,-0.1798460192186223
200.122,0.17814114399667325,-0.17814114399667325
200.123,0.17626130602992096,-0.17626130602992096
200.124,0.17434388206927098,-0.17434388206927098
200.125,0.17216733977673526,-0.17216733977673526
200.126,0.1692037319284143,-0.1692037319284143
200.127,0.16485419982738891,-0.16485419982738891
200.128,0.15879501147315778,-0.15879501147315778
200.129,0.1512986721892985,-0.1512986721892985
200.13,0.14338255676313738,-0.14338255676313738
200.131,0.13668653213635207,-0.13668653213635207
200.132,0.1330767372393371,-0.1330767372393371
200.133,0.1340804556400902,-0.1340804556400902
200.134,0.14033491710222556,-0.14033491710222556
200.135,0.1512479927835978,-0.1512479927835978
200.136,0.16501074074542965,-0.16501074074542965
200.137,0.17898796152869212,-0.17898796152869212
200.138,0.19038291504035476,-0.19038291504035476
200.139,0.19697358895243144,-0.19697358895243144
200.14,0.19768784402027473,-0.19768784402027473
200.141,0.1928362455422562,-0.1928362455422562
200.142,0.18393714098850156,-0.18393714098850156
200.143,0.1732070261879909,-0.1732070261879909
200.144,0.16289996148971364,-0.16289996148971364
200.145,0.154722313902648,-0.154722313902648
200.146,0.14950850043757524,-0.14950850043757524
200.147,0.1472362163114227,-0.1472362163114227
200.148,0.147327696558904,-0.147327696558904
200.149,0.14907808123247457,-0.14907808123247457
200.15,0.1520136848709378,-0.1520136848709378
200.151,0.15602620989838323,-0.15602620989838323
200.152,0.1612356343411402,-0.1612356343411402
200.153,0.16766093144898409,-0.16766093144898409
200.154,0.17487151174989202,-0.17487151174989202
200.155,0.181812950566419,-0.181812950566419
200.156,0.1869364274257066,-0.1869364274257066
200.157,0.18863492905195234,-0.18863492905195234
200.158,0.18584982593750254,-0.18584982593750254
200.159,0.17861614710304075,-0.17861614710304075
200.16,0.1683065425791005,-0.1683065425791005
200.161,0.1574231406007841,-0.1574231406007841
200.162,0.14894575571125235,-0.14894575571125235
200.163,0.1454172185328816,-0.1454172185328816
200.164,0.14806608630663665,-0.14806608630663665
200.165,0.1562837780662374,-0.1562837780662374
200.166,0.16767336786471543,-0.16767336786471543
200.167,0.17870013537598595,-0.17870013537598595
200.168,0.185763099665623,-0.185763099665623
200.169,0.18634789712132516,-0.18634789712132516
200.17,0.17987481665390248,-0.17987481665390248
200.171,0.16794353137831308,-0.16794353137831308
200.172,0.15387215441336544,-0.15387215441336544
200.173,0.14166674351306463,-0.14166674351306463
200.174,0.13475505971509272,-0.13475505971509272
200.175,0.13490445630556358,-0.13490445630556358
200.176,0.14168574811849055,-0.14168574811849055
200.177,0.15266106578104632,-0.15266106578104632
200.178,0.16422731390682643,-0.16422731390682643
200.179,0.1728240267601311,-0.1728240267601311
200.18,0.17609335729635822,-0.17609335729635822
200.181,0.17360283105585794,-0.17360283105585794
200.182,0.16689925575258624,-0.16689925575258624
200.183,0.15889771939255248,-0.15889771939255248
200.184,0.15283856874150836,-0.15283856874150836
200.185,0.15118659303867565,-0.15118659303867565
200.186,0.15485193125847652,-0.15485193125847652
200.187,0.16298294111494327,-0.16298294111494327
200.188,0.17336763158714075,-0.17336763158714075
200.189,0.18326219609101735,-0.18326219609101735
200.19,0.19032248561361842,-0.19032248561361842
200.191,0.1932970637661856,-0.1932970637661856
200.192,0.19225104193495435,-0.19225104193495435
200.193,0.18828242718908395,-0.18828242718908395
200.194,0.1828913357082671,-0.1828913357082671
200.195,0.1772902926685258,-0.1772902926685258
200.196,0.17195255908550056,-0.17195255908550056
200.197,0.16658349026502828,-0.16658349026502828
200.198,0.16051319240564765,-0.16051319240564765
200.199,0.15332266080729284,-0.15332266080729284
200.2,0.1454059229283028,-0.1454059229283028
200.201,0.13818386079542766,-0.13818386079542766
200.202,0.13381967718284293,-0.13381967718284293
200.203,0.13449132393538688,-0.13449132393538688
200.204,0.14147257914887135,-0.14147257914887135
200.205,0.1543822729301081,-0.1543822729301081
200.206,0.17093236626260622,-0.17093236626260622
200.207,0.18734338650565951,-0.18734338650565951
200.208,0.19935520175444454,-0.19935520175444454
200.209,0.20353004953086407,-0.20353004953086407
200.21,0.19841136192232556,-0.19841136192232556
200.211,0.1851215625290321,-0.1851215625290321
200.212,0.1671550511467158,-0.1671550511467158
200.213,0.1493924969960434,-0.1493924969960434
200.214,0.13663501893168073,-0.13663501893168073
200.215,0.13213348696768712,-0.13213348696768712
200.216,0.1366026938138576,-0.1366026938138576
200.217,0.14805326045590805,-0.14805326045590805
200.218,0.16249827549702267,-0.16249827549702267
200.219,0.17529298177824815,-0.17529298177824815
200.22,0.18264998071359417,-0.18264998071359417
200.221,0.18281641846322916,-0.18281641846322916
200.222,0.17652360730786498,-0.17652360730786498
200.223,0.16657913408200897,-0.16657913408200897
200.224,0.15677354672861843,-0.15677354672861843
200.225,0.15050988665135712,-0.15050988665135712
200.226,0.14965052902195775,-0.14965052902195775
200.227,0.15398267101802443,-0.15398267101802443
200.228,0.16146743238470906,-0.16146743238470906
200.229,0.16914601550094055,-0.16914601550094055
200.23,0.1743373989437338,-0.1743373989437338
200.231,0.17566318130943492,-0.17566318130943492
200.232,0.1735116333871478,-0.1735116333871478
200.233,0.16977463107449497,-0.16977463107449497
200.234,0.1669737640073211,-0.1669737640073211
200.235,0.16712869313542023,-0.16712869313542023
200.236,0.1708220891276866,-0.1708220891276866
200.237,0.17684232376010678,-0.17684232376010678
200.238,0.1825641911902628,-0.1825641911902628
200.239,0.18494196641961558,-0.18494196641961558
200.24,0.18174611667903107,-0.18174611667903107
200.241,0.1725680901726403,-0.1725680901726403
200.242,0.15918990147148826,-0.15918990147148826
200.243,0.14514299741075798,-0.14514299741075798
200.244,0.1345815916101708,-0.1345815916101708
200.245,0.13085797174626457,-0.13085797174626457
200.246,0.13531219608430456,-0.13531219608430456
200.247,0.1467264565453581,-0.1467264565453581
200.248,0.16166412083549686,-0.16166412083549686
200.249,0.1755966176020426,-0.1755966176020426
200.25,0.1844328501428495,-0.1844328501428495
200.251,0.18591216152781775,-0.18591216152781775
200.252,0.18036165005843374,-0.18036165005843374
200.253,0.17054045034297116,-0.17054045034297116
200.254,0.16061929424705046,-0.16061929424705046
200.255,0.15465611505607135,-0.15465611505607135
200.256,0.15511390635272493,-0.15511390635272493
200.257,0.16195667709430883,-0.16195667709430883
200.258,0.1726548169661113,-0.1726548169661113
200.259,0.18310471447130916,-0.18310471447130916
200.26,0.18913620059614178,-0.18913620059614178
200.261,0.18806523932323005,-0.18806523932323005
200.262,0.17972746517381477,-0.17972746517381477
200.263,0.166610194545726,-0.166610194545726
200.264,0.15302232665678728,-0.15302232665678728
200.265,0.14358812779430252,-0.14358812779430252
200.266,0.14159761795977133,-0.14159761795977133
200.267,0.14780372596112223,-0.14780372596112223
200.268,0.1601026794218947,-0.1601026794218947
200.269,0.17422304575730463,-0.17422304575730463
200.27,0.18519081326312736,-0.18519081326312736
200.271,0.18906042519384791,-0.18906042519384791
200.272,0.18430383933773375,-0.18430383933773375
200.273,0.17236673026219873,-0.17236673026219873
200.274,0.1571917645047768,-0.1571917645047768
200.275,0.14387073016373542,-0.14387073016373542
200.276,0.13689250114202156,-0.13689250114202156
200.277,0.13859507690948747,-0.13859507690948747
200.278,0.14835823610534837,-0.14835823610534837
200.279,0.16281484487192144,-0.16281484487192144
200.28,0.17700510351873544,-0.17700510351873544
200.281,0.18607306988211803,-0.18607306988211803
200.282,0.18692133750872275,-0.18692133750872275
200.283,0.17925969640053452,-0.17925969640053452
200.284,0.16569721936869497,-0.16569721936869497
200.285,0.15085768012497258,-0.15085768012497258
200.286,0.13982966340108582,-0.13982966340108582
200.287,0.13648141592017782,-0.13648141592017782
200.288,0.14220423655229064,-0.14220423655229064
200.289,0.15549040854914253,-0.15549040854914253
200.29,0.17246175146756215,-0.17246175146756215
200.291,0.1881456649468498,-0.1881456649468498
200.292,0.1980563238213836,-0.1980563238213836
200.293,0.1995571758230904,-0.1995571758230904
200.294,0.19257764749922357,-0.19257764749922357
200.295,0.17949071532959138,-0.17949071532959138
200.296,0.164242731709363,-0.164242731709363
200.297,0.1510637537142,-0.1510637537142
200.298,0.14319876908457063,-0.14319876908457063
200.299,0.14205820774688782,-0.14205820774688782
200.3,0.1470153190857949,-0.1470153190857949
200.301,0.15584624642083034,-0.15584624642083034
200.302,0.1655997800214355,-0.1655997800214355
200.303,0.17356711321267893,-0.17356711321267893
200.304,0.17802886116282746,-0.17802886116282746
200.305,0.1785724160733636,-0.1785724160733636
200.306,0.1759455297983098,-0.1759455297983098
200.307,0.17157455356270845,-0.17157455356270845
200.308,0.16697109835347668,-0.16697109835347668
200.309,0.16325243507960485,-0.16325243507960485
200.31,0.16091968968450554,-0.16091968968450554
200.311,0.1599148227413324,-0.1599148227413324
200.312,0.1598652639417043,-0.1598652639417043
200.313,0.16036690732980952,-0.16036690732980952
200.314,0.16116910708403132,-0.16116910708403132
200.315,0.16219581918457981,-0.16219581918457981
200.316,0.16342867997970723,-0.16342867997970723
200.317,0.16474785543048776,-0.16474785543048776
200.318,0.16584421508403557,-0.16584421508403557
200.319,0.1662756533576294,-0.1662756533576294
200.32,0.16566151239114246,-0.16566151239114246
200.321,0.16392947580085782,-0.16392947580085782
200.322,0.16148707201320356,-0.16148707201320356
200.323,0.15920711353650852,-0.15920711353650852
200.324,0.15818913141122148,-0.15818913141122148
200.325,0.15935828031491794,-0.15935828031491794
200.326,0.16304697629469056,-0.16304697629469056
200.327,0.16873443213984773,-0.16873443213984773
200.328,0.175077463980168,-0.175077463980168
200.329,0.18026359526185165,-0.18026359526185165
200.33,0.18259161148297576,-0.18259161148297576
200.331,0.1810845124567031,-0.1810845124567031
200.332,0.17590740027237373,-0.17590740027237373
200.333,0.16841609173005445,-0.16841609173005445
200.334,0.1607864366058971,-0.1607864366058971
200.335,0.1553263243884514,-0.1553263243884514
200.336,0.15369603208817162,-0.15369603208817162
200.337,0.15630978010618768,-0.15630978010618768
200.338,0.16214070111803247,-0.16214070111803247
200.339,0.16901728468928467,-0.16901728468928467
200.34,0.1743277567650997,-0.1743277567650997
200.341,0.17590119133315252,-0.17590119133315252
200.342,0.17276480038000797,-0.17276480038000797
200.343,0.1655128526574926,-0.1655128526574926
200.344,0.15615323224967148,-0.15615323224967148
200.345,0.14747745014969316,-0.14747745014969316
200.346,0.1421652598530816,-0.1421652598530816
200.347,0.14192687278495963,-0.14192687278495963
200.348,0.14697130028052297,-0.14697130028052297
200.349,0.1559739745251847,-0.1559739745251847
200.35,0.16654219966626904,-0.16654219966626904
200.351,0.17600586313760525,-0.17600586313760525
200.352,0.18225403373052185,-0.18225403373052185
200.353,0.18433245744898907,-0.18433245744898907
200.354,0.1826122798840597,-0.1826122798840597
200.355,0.17849977432526776,-0.17849977432526776
200.356,0.17382109086912134,-0.17382109086912134
200.357,0.1701252952374972,-0.1701252952374972
200.358,0.16816503210193323,-0.16816503210193323
200.359,0.16773408073989493,-0.16773408073989493
200.36,0.16789760174818102,-0.16789760174818102
200.361,0.16749955393954863,-0.16749955393954863
200.362,0.16572979041751212,-0.16572979041751212
200.363,0.1625180958505953,-0.1625180958505953
200.364,0.15859771969439496,-0.15859771969439496
200.365,0.15521612768789195,-0.15521612768789195
200.366,0.15361267899822229,-0.15361267899822229
200.367,0.15447670442836203,-0.15447670442836203
200.368,0.15760896416569892,-0.15760896416569892
200.369,0.16193123133642684,-0.16193123133642684
200.37,0.16585302527924817,-0.16585302527924817
200.371,0.16786360255067923,-0.16786360255067923
200.372,0.16712557025590546,-0.16712557025590546
200.373,0.16383964714718002,-0.16383964714718002
200.374,0.1592316641246997,-0.1592316641246997
200.375,0.15515276008364653,-0.15515276008364653
200.376,0.15342950150666734,-0.15342950150666734
200.377,0.15519738940671957,-0.15519738940671957
200.378,0.16046209792832233,-0.16046209792832233
200.379,0.16805298991574946,-0.16805298991574946
200.38,0.1759920020703556,-0.1759920020703556
200.381,0.1821499548897466,-0.1821499548897466
200.382,0.18495743989008262,-0.18495743989008262
200.383,0.18391733537472932,-0.18391733537472932
200.384,0.1797380250425925,-0.1797380250425925
200.385,0.1740439255220333,-0.1740439255220333
200.386,0.16877240944940008,-0.16877240944940008
200.387,0.16547791861730599,-0.16547791861730599
200.388,0.16479465363350643,-0.16479465363350643
200.389,0.16624841361963327,-0.16624841361963327
200.39,0.1684791559008172,-0.1684791559008172
200.391,0.16978644611416605,-0.16978644611416605
200.392,0.16879470818282405,-0.16879470818282405
200.393,0.16499528219875503,-0.16499528219875503
200.394,0.15897082353135672,-0.15897082353135672
200.395,0.15222519326082629,-0.15222519326082629
200.396,0.14668467687687226,-0.14668467687687226
200.397,0.14405202331538458,-0.14405202331538458
200.398,0.14524243460428254,-0.14524243460428254
200.399,0.150095051779514,-0.150095051779514
200.4,0.15745008637254765,-0.15745008637254765
200.401,0.1655500450260674,-0.1655500450260674
200.402,0.1726119151342278,-0.1726119151342278
200.403,0.17736508368829174,-0.17736508368829174
200.404,0.17937337033764378,-0.17937337033764378
200.405,0.1790468655657813,-0.1790468655657813
200.406,0.17736554951917005,-0.17736554951917005
200.407,0.1754381681433297,-0.1754381681433297
200.408,0.17407028173814498,-0.17407028173814498
200.409,0.1734990625049594,-0.1734990625049594
200.41,0.1733790591682356,-0.1733790591682356
200.411,0.17300320041499984,-0.17300320041499984
200.412,0.17165555695038703,-0.17165555695038703
200.413,0.1689490329102714,-0.1689490329102714
200.414,0.16501605123257657,-0.16501605123257657
200.415,0.16048456921307608,-0.16048456921307608
200.416,0.1562582948548451,-0.1562582948548451
200.417,0.15319459174206163,-0.15319459174206163
200.418,0.15180837978222161,-0.15180837978222161
200.419,0.15211412176445038,-0.15211412176445038
200.42,0.15365961470454215,-0.15365961470454215
200.421,0.15572937131997,-0.15572937131997
200.422,0.15763192099874057,-0.15763192099874057
200.423,0.15895800559736606,-0.15895800559736606
200.424,0.15971381348426095,-0.15971381348426095
200.425,0.16028587532867455,-0.16028587532867455
200.426,0.16125978108138384,-0.16125978108138384
200.427,0.1631676178183301,-0.1631676178183301
200.428,0.16625986200593668,-0.16625986200593668
200.429,0.17038107920389,-0.17038107920389
200.43,0.17498480604704492,-0.17498480604704492
200.431,0.17927099315669182,-0.17927099315669182
200.432,0.18239021469670258,-0.18239021469670258
200.433,0.18364595430622677,-0.18364595430622677
200.434,0.1826407488954952,-0.1826407488954952
200.435,0.17934318023548446,-0.17934318023548446
200.436,0.17408403459857336,-0.17408403459857336
200.437,0.16750692339909834,-0.16750692339909834
200.438,0.16049571264717677,-0.16049571264717677
200.439,0.1540839619721036,-0.1540839619721036
200.44,0.14933404228194225,-0.14933404228194225
200.441,0.14717030089397642,-0.14717030089397642
200.442,0.14816890709085262,-0.14816890709085262
200.443,0.15234188934850323,-0.15234188934850323
200.444,0.1589878791253989,-0.1589878791253989
200.445,0.1666958625284446,-0.1666958625284446
200.446,0.17356471385590966,-0.17356471385590966
200.447,0.17763877862070832,-0.17763877862070832
200.448,0.17747495629793386,-0.17747495629793386
200.449,0.17268073262448913,-0.17268073262448913
200.45,0.16423000861708026,-0.16423000861708026
200.451,0.15439807182112508,-0.15439807182112508
200.452,0.14625950154527567,-0.14625950154527567
200.453,0.14283690518076064,-0.14283690518076064
200.454,0.14612691395448263,-0.14612691395448263
200.455,0.15631011146173934,-0.15631011146173934
200.456,0.17143500915860543,-0.17143500915860543
200.457,0.18774510120500199,-0.18774510120500199
200.458,0.2006222390896043,-0.2006222390896043
200.459,0.20590964303938564,-0.20590964303938564
200.46,0.20122614080705337,-0.20122614080705337
200.461,0.1868485394187267,-0.1868485394187267
200.462,0.16584419666292372,-0.16584419666292372
200.463,0.1433563504230254,-0.1433563504230254
200.464,0.12521377275187684,-0.12521377275187684
200.465,0.11626539985921991,-0.11626539985921991
200.466,0.11894950863740639,-0.11894950863740639
200.467,0.13255247339855558,-0.13255247339855558
200.468,0.15340501339825985,-0.15340501339825985
200.469,0.17596802537768574,-0.17596802537768574
200.47,0.19447250776175462,-0.19447250776175462
200.471,0.20459612864490062,-0.20459612864490062
200.472,0.20464656812873827,-0.20464656812873827
200.473,0.19588593063310378,-0.19588593063310378
200.474,0.18191749287710968,-0.18191749287710968
200.475,0.1673686228003114,-0.1673686228003114
200.476,0.1563344736552975,-0.1563344736552975
200.477,0.15111603989553157,-0.15111603989553157
200.478,0.15166944006400507,-0.15166944006400507
200.479,0.15592225798456194,-0.15592225798456194
200.48,0.16080022409236117,-0.16080022409236117
200.481,0.1635551327803051,-0.1635551327803051
200.482,0.16288342083487994,-0.16288342083487994
200.483,0.15941120560111632,-0.15941120560111632
200.484,0.15536491524213314,-0.15536491524213314
200.485,0.15355854322551465,-0.15355854322551465
200.486,0.15609442327294254,-0.15609442327294254
200.487,0.1632947808386228,-0.1632947808386228
200.488,0.17330841360258376,-0.17330841360258376
200.489,0.1825930946625689,-0.1825930946625689
200.49,0.18714555265143995,-0.18714555265143995
200.491,0.18405658496031752,-0.18405658496031752
200.492,0.17281921990397642,-0.17281921990397642
200.493,0.15587350608868378,-0.15587350608868378
200.494,0.1381202134358761,-0.1381202134358761
200.495,0.12549478702842265,-0.12549478702842265
200.496,0.12303708036527505,-0.12303708036527505
200.497,0.13309777796138755,-0.13309777796138755
200.498,0.15431069292279254,-0.15431069292279254
200.499,0.1817276218671291,-0.1817276218671291
200.5,0.20813319221577742,-0.20813319221577742
200.501,0.22615850024959605,-0.22615850024959605
200.502,0.23053136773209537,-0.23053136773209537
200.503,0.21973679353086983,-0.21973679353086983
200.504,0.1965396672169547,-0.1965396672169547
200.505,0.16718611652891513,-0.16718611652891513
200.506,0.13952896813899096,-0.13952896813899096
200.507,0.12067284177353432,-0.12067284177353432
200.508,0.11488793232738637,-0.11488793232738637
200.509,0.12244775792744267,-0.12244775792744267
200.51,0.13973804885980323,-0.13973804885980323
200.511,0.16056653240250074,-0.16056653240250074
200.512,0.1782172251377695,-0.1782172251377695
200.513,0.18756586064337377,-0.18756586064337377
200.514,0.18657712345399557,-0.18657712345399557
200.515,0.1767318772715596,-0.1767318772715596
200.516,0.1623008834735129,-0.1623008834735129
200.517,0.1487627946717458,-0.1487627946717458
200.518,0.14093035259203157,-0.14093035259203157
200.519,0.141415043037175,-0.141415043037175
200.52,0.14991328877591525,-0.14991328877591525
200.521,0.1634961231976776,-0.1634961231976776
200.522,0.17773871800506824,-0.17773871800506824
200.523,0.18825593618370529,-0.18825593618370529
200.524,0.19210344728736872,-0.19210344728736872
200.525,0.1885882330728914,-0.1885882330728914
200.526,0.17926725462671056,-0.17926725462671056
200.527,0.16720799400879727,-0.16720799400879727
200.528,0.15583278254667365,-0.15583278254667365
200.529,0.14778596731428117,-0.14778596731428117
200.53,0.14421600411634483,-0.14421600411634483
200.531,0.1446809784608385,-0.1446809784608385
200.532,0.14764094750004642,-0.14764094750004642
200.533,0.15128707288762555,-0.15128707288762555
200.534,0.1543522953872063,-0.1543522953872063
200.535,0.156583903897768,-0.156583903897768
200.536,0.15871350436262,-0.15871350436262
200.537,0.16196969925555282,-0.16196969925555282
200.538,0.16736071070202718,-0.16736071070202718
200.539,0.1750396197321744,-0.1750396197321744
200.54,0.18402444613254976,-0.18402444613254976
200.541,0.19239850530716618,-0.19239850530716618
200.542,0.19792293495064572,-0.19792293495064572
200.543,0.1988288897656194,-0.1988288897656194
200.544,0.19448464997072057,-0.19448464997072057
200.545,0.18567922811891113,-0.18567922811891113
200.546,0.17440961455494286,-0.17440961455494286
200.547,0.16324662709687965,-0.16324662709687965
200.548,0.15451221447363894,-0.15451221447363894
200.549,0.14956921926895472,-0.14956921926895472
200.55,0.14847819401952422,-0.14847819401952422
200.551,0.15013392816562354,-0.15013392816562354
200.552,0.15281200361059988,-0.15281200361059988
200.553,0.1549027777267128,-0.1549027777267128
200.554,0.15554454517342842,-0.15554454517342842
200.555,0.15491328328857723,-0.15491328328857723
200.556,0.15406473423160583,-0.15406473423160583
200.557,0.1544017951641241,-0.1544017951641241
200.558,0.15698792887131507,-0.15698792887131507
200.559,0.1619887630693253,-0.1619887630693253
200.56,0.16847549755301927,-0.16847549755301927
200.561,0.1746834951267231,-0.1746834951267231
200.562,0.1786408653260405,-0.1786408653260405
200.563,0.1789331966865908,-0.1789331966865908
200.564,0.1753091787740686,-0.1753091787740686
200.565,0.16888241515773117,-0.16888241515773117
200.566,0.1618299461490803,-0.1618299461490803
200.567,0.15667477255245943,-0.15667477255245943
200.568,0.15539874657532116,-0.15539874657532116
200.569,0.1587038547815921,-0.1587038547815921
200.57,0.16569616689790412,-0.16569616689790412
200.571,0.17412178996566707,-0.17412178996566707
200.572,0.1810894509577089,-0.1810894509577089
200.573,0.18403972540668234,-0.18403972540668234
200.574,0.18162940517857196,-0.18162940517857196
200.575,0.17422428481762242,-0.17422428481762242
200.576,0.16382631162577166,-0.16382631162577166
200.577,0.15345472287351603,-0.15345472287351603
200.578,0.14618723643554532,-0.14618723643554532
200.579,0.14418149707656236,-0.14418149707656236
200.58,0.14800001040518784,-0.14800001040518784
200.581,0.1564545327742376,-0.1564545327742376
200.582,0.16700771070391618,-0.16700771070391618
200.583,0.1765838668908778,-0.1765838668908778
200.584,0.1825113210678151,-0.1825113210678151
200.585,0.1832879347520735,-0.1832879347520735
200.586,0.17893617603997458,-0.17893617603997458
200.587,0.17086347683795222,-0.17086347683795222
200.588,0.16131279584049363,-0.16131279584049363
200.589,0.15261767021791572,-0.15261767021791572
200.59,0.146523199089707,-0.146523199089707
200.591,0.14378816896867253,-0.14378816896867253
200.592,0.14416639542068876,-0.14416639542068876
200.593,0.1467236718760665,-0.1467236718760665
200.594,0.15033274992323298,-0.15033274992323298
200.595,0.1541414801867257,-0.1541414801867257
200.596,0.1578408576080177,-0.1578408576080177
200.597,0.16165281319676061,-0.16165281319676061
200.598,0.1660731947535622,-0.1660731947535622
200.599,0.17149860358304692,-0.17149860358304692
200.6,0.17790287348151257,-0.17790287348151257
200.601,0.1846994291598818,-0.1846994291598818
200.602,0.19084487063645272,-0.19084487063645272
200.603,0.19514094372487156,-0.19514094372487156
200.604,0.19661542134915977,-0.19661542134915977
200.605,0.19483588961479215,-0.19483588961479215
200.606,0.19004179113846942,-0.19004179113846942
200.607,0.18305429858259092,-0.18305429858259092
200.608,0.17500967169716097,-0.17500967169716097
200.609,0.16702546211272817,-0.16702546211272817
200.61,0.15992632796652728,-0.15992632796652728
200.611,0.1541226553912891,-0.1541226553912891
200.612,0.14966643987430572,-0.14966643987430572
200.613,0.14643423590796,-0.14643423590796
200.614,0.1443371343958363,-0.1443371343958363
200.615,0.14345244946873892,-0.14345244946873892
200.616,0.14401221504165285,-0.14401221504165285
200.617,0.14625202978340923,-0.14625202978340923
200.618,0.15019113659208194,-0.15019113659208194
200.619,0.15545221143541132,-0.15545221143541132
200.62,0.16122057717689187,-0.16122057717689187
200.621,0.16638972452168244,-0.16638972452168244
200.622,0.16986351488917495,-0.16986351488917495
200.623,0.1709158244261224,-0.1709158244261224
200.624,0.1694743367199053,-0.1694743367199053
200.625,0.1662120540625588,-0.1662120540625588
200.626,0.16239358271972348,-0.16239358271972348
200.627,0.1595107125823052,-0.1595107125823052
200.628,0.15882069842162794,-0.15882069842162794
200.629,0.16094085846134332,-0.16094085846134332
200.63,0.16563854894025554,-0.16563854894025554
200.631,0.17189047734137375,-0.17189047734137375
200.632,0.17819283581510215,-0.17819283581510215
200.633,0.18301738275139112,-0.18301738275139112
200.634,0.18525973965653986,-0.18525973965653986
200.635,0.18453231351393096,-0.18453231351393096
200.636,0.1812125753206748,-0.1812125753206748
200.637,0.1762459292057884,-0.1762459292057884
200.638,0.17078827584401945,-0.17078827584401945
200.639,0.1658253008649001,-0.1658253008649001
200.64,0.1619053548181283,-0.1619053548181283
200.641,0.15907213378617624,-0.15907213378617624
200.642,0.15700265776884148,-0.15700265776884148
200.643,0.155276577697539,-0.155276577697539
200.644,0.15365481397294145,-0.15365481397294145
200.645,0.15224662636131647,-0.15224662636131647
200.646,0.1514930869199037,-0.1514930869199037
200.647,0.15197193864829772,-0.15197193864829772
200.648,0.15410372183828547,-0.15410372183828547
200.649,0.1578825897297882,-0.1578825897297882
200.65,0.16275030519738898,-0.16275030519738898
200.651,0.16767998823932662,-0.16767998823932662
200.652,0.17145670762526888,-0.17145670762526888
200.653,0.17306497442643287,-0.17306497442643287
200.654,0.17204782335246893,-0.17204782335246893
200.655,0.1687059458261122,-0.1687059458261122
200.656,0.1640575203265583,-0.1640575203265583
200.657,0.15956134591515037,-0.15956134591515037
200.658,0.15668810853861503,-0.15668810853861503
200.659,0.1564776250110873,-0.1564776250110873
200.66,0.1592250543705056,-0.1592250543705056
200.661,0.16439510501668564,-0.16439510501668564
200.662,0.17078649651126976,-0.17078649651126976
200.663,0.17688688965777433,-0.17688688965777433
200.664,0.1812997172287042,-0.1812997172287042
200.665,0.18310809086239366,-0.18310809086239366
200.666,0.1820706465607722,-0.1820706465607722
200.667,0.17860685322007153,-0.17860685322007153
200.668,0.17360104129147058,-0.17360104129147058
200.669,0.168109578888055,-0.168109578888055
200.67,0.16307626936774855,-0.16307626936774855
200.671,0.15914297491856733,-0.15914297491856733
200.672,0.15659593037973962,-0.15659593037973962
200.673,0.1554331315286538,-0.1554331315286538
200.674,0.1554960546182288,-0.1554960546182288
200.675,0.15659458737786158,-0.15659458737786158
200.676,0.15857029696894154,-0.15857029696894154
200.677,0.1612806210733937,-0.1612806210733937
200.678,0.16452799873100032,-0.16452799873100032
200.679,0.16798555754794964,-0.16798555754794964
200.68,0.1711735506144456,-0.1711735506144456
200.681,0.17351793633621937,-0.17351793633621937
200.682,0.1744845488763146,-0.1744845488763146
200.683,0.1737455526341214,-0.1737455526341214
200.684,0.17131496407911706,-0.17131496407911706
200.685,0.1675955975158594,-0.1675955975158594
200.686,0.1633091053896225,-0.1633091053896225
200.687,0.15932256634042297,-0.15932256634042297
200.688,0.15642314729587847,-0.15642314729587847
200.689,0.1551121095088982,-0.1551121095088982
200.69,0.1554834767142944,-0.1554834767142944
200.691,0.15722362049484173,-0.15722362049484173
200.692,0.15972709421503017,-0.15972709421503017
200.693,0.16228654794017972,-0.16228654794017972
200.694,0.16429376562712528,-0.16429376562712528
200.695,0.16539106360104405,-0.16539106360104405
200.696,0.1655347401462589,-0.1655347401462589
200.697,0.16496486738866134,-0.16496486738866134
200.698,0.16410548771340372,-0.16410548771340372
200.699,0.16343573150108692,-0.16343573150108692
200.7,0.16337152761139717,-0.16337152761139717
200.701,0.1641829907210054,-0.1641829907210054
200.702,0.16595310209516767,-0.16595310209516767
200.703,0.16856870235153698,-0.16856870235153698
200.704,0.1717311430169024,-0.1717311430169024
200.705,0.17498087206948132,-0.17498087206948132
200.706,0.17774145567365174,-0.17774145567365174
200.707,0.17939511504996364,-0.17939511504996364
200.708,0.1793969326579976,-0.1793969326579976
200.709,0.1774176668020293,-0.1774176668020293
200.71,0.17348212846863442,-0.17348212846863442
200.711,0.16805287193542218,-0.16805287193542218
200.712,0.16200906974484974,-0.16200906974484974
200.713,0.15649365423792494,-0.15649365423792494
200.714,0.15264422853009119,-0.15264422853009119
200.715,0.15127130109604847,-0.15127130109604847
200.716,0.15258210307476605,-0.15258210307476605
200.717,0.15605252404782266,-0.15605252404782266
200.718,0.1605158942343613,-0.1605158942343613
200.719,0.16447184280405003,-0.16447184280405003
200.72,0.1665411799795904,-0.1665411799795904
200.721,0.1659310427418108,-0.1659310427418108
200.722,0.1627534764172185,-0.1627534764172185
200.723,0.15807303625975644,-0.15807303625975644
200.724,0.15363924938281892,-0.15363924938281892
200.725,0.1513639799629385,-0.1513639799629385
200.726,0.15269688535215753,-0.15269688535215753
200.727,0.1581000815759913,-0.1581000815759913
200.728,0.16680515483556568,-0.16680515483556568
200.729,0.1769531011043628,-0.1769531011043628
200.73,0.1860951068310147,-0.1860951068310147
200.731,0.19190957182799195,-0.19190957182799195
200.732,0.19291100787132287,-0.19291100787132287
200.733,0.1889192397686673,-0.1889192397686673
200.734,0.18112848558370964,-0.18112848558370964
200.735,0.17174403225545376,-0.17174403225545376
200.736,0.1632972748277467,-0.1632972748277467
200.737,0.1578591594811215,-0.1578591594811215
200.738,0.15640918728803344,-0.15640918728803344
200.739,0.15856781617451787,-0.15856781617451787
200.74,0.16277974934853134,-0.16277974934853134
200.741,0.16688451629450962,-0.16688451629450962
200.742,0.16888042797097869,-0.16888042797097869
200.743,0.1676232344911086,-0.1676232344911086
200.744,0.16322403101535754,-0.16322403101535754
200.745,0.15701416206232288,-0.15701416206232288
200.746,0.15109240248990663,-0.15109240248990663
200.747,0.14761067857685262,-0.14761067857685262
200.748,0.14804080038631406,-0.14804080038631406
200.749,0.15266734476269384,-0.15266734476269384
200.75,0.1604715155714268,-0.1604715155714268
200.751,0.1694367796398818,-0.1694367796398818
200.752,0.17716654151025135,-0.17716654151025135
200.753,0.18160528307217016,-0.18160528307217016
200.754,0.18162969379093508,-0.18162969379093508
200.755,0.17733073621655815,-0.17733073621655815
200.756,0.16991884639949661,-0.16991884639949661
200.757,0.1613112228682897,-0.1613112228682897
200.758,0.15355773527561567,-0.15355773527561567
200.759,0.14829855140963777,-0.14829855140963777
200.76,0.1464140386517625,-0.1464140386517625
200.761,0.1479432127859518,-0.1479432127859518
200.762,0.1522460448917501,-0.1522460448917501
200.763,0.15830597235461719,-0.15830597235461719
200.764,0.16503942910956693,-0.16503942910956693
200.765,0.1715053697608745,-0.1715053697608745
200.766,0.17697335584295448,-0.17697335584295448
200.767,0.1808826004478934,-0.1808826004478934
200.768,0.18277358577141922,-0.18277358577141922
200.769,0.18227763688928456,-0.18227763688928456
200.77,0.1792078426751864,-0.1792078426751864
200.771,0.1737271623587282,-0.1737271623587282
200.772,0.16650859442120458,-0.16650859442120458
200.773,0.15877832575579764,-0.15877832575579764
200.774,0.15216121483394185,-0.15216121483394185
200.775,0.1483217518198029,-0.1483217518198029
200.776,0.14848498994189296,-0.14848498994189296
200.777,0.152992739347116,-0.152992739347116
200.778,0.16106739823207716,-0.16106739823207716
200.779,0.17090513024751686,-0.17090513024751686
200.78,0.1801140459194095,-0.1801140459194095
200.781,0.186387484313574,-0.186387484313574
200.782,0.18820434885492265,-0.18820434885492265
200.783,0.18531807549349855,-0.18531807549349855
200.784,0.17885077233952196,-0.17885077233952196
200.785,0.1709357788114091,-0.1709357788114091
200.786,0.16400868797254864,-0.16400868797254864
200.787,0.15997799657824519,-0.15997799657824519
200.788,0.15956222562071454,-0.15956222562071454
200.789,0.1620357300812687,-0.1620357300812687
200.79,0.1654911036423945,-0.1654911036423945
200.791,0.16754605664430577,-0.16754605664430577
200.792,0.16625969133283547,-0.16625969133283547
200.793,0.16093671911825835,-0.16093671911825835
200.794,0.15252278526933782,-0.15252278526933782
200.795,0.14342556986694677,-0.14342556986694677
200.796,0.13679212856423406,-0.13679212856423406
200.797,0.13546596247846288,-0.13546596247846288
200.798,0.14096929421216375,-0.14096929421216375
200.799,0.1528618364687463,-0.1528618364687463
200.8,0.16871161263689216,-0.16871161263689216
200.801,0.18471334983813026,-0.18471334983813026
200.802,0.19677309688375288,-0.19677309688375288
200.803,0.20171847350722594,-0.20171847350722594
200.804,0.19824767355253214,-0.19824767355253214
200.805,0.1873136642152642,-0.1873136642152642
200.806,0.17182483211495203,-0.17182483211495203
200.807,0.15576647970852864,-0.15576647970852864
200.808,0.1430329963305642,-0.1430329963305642
200.809,0.13634583967791103,-0.13634583967791103
200.81,0.1365906636613854,-0.1365906636613854
200.811,0.14275541388208624,-0.14275541388208624
200.812,0.15244500873070477,-0.15244500873070477
200.813,0.16275996950238303,-0.16275996950238303
200.814,0.17122032840052248,-0.17122032840052248
200.815,0.17642567797058206,-0.17642567797058206
200.816,0.17825867824168662,-0.17825867824168662
200.817,0.17761628215841918,-0.17761628215841918
200.818,0.17582393519373796,-0.17582393519373796
200.819,0.17399122943142264,-0.17399122943142264
200.82,0.17256816001199815,-0.17256816001199815
200.821,0.17126353323008248,-0.17126353323008248
200.822,0.16933198814895445,-0.16933198814895445
200.823,0.1660847428587896,-0.1660847428587896
200.824,0.16138987754270762,-0.16138987754270762
200.825,0.1559342159760604,-0.1559342159760604
200.826,0.15111702956024609,-0.15111702956024609
200.827,0.1485968798554358,-0.1485968798554358
200.828,0.1496577007785812,-0.1496577007785812
200.829,0.1546418694068301,-0.1546418694068301
200.83,0.16268377134845824,-0.16268377134845824
200.831,0.1718710979030772,-0.1718710979030772
200.832,0.17980200558416193,-0.17980200558416193
200.833,0.18435418806423154,-0.18435418806423154
200.834,0.1843948854944123,-0.1843948854944123
200.835,0.18017314176011356,-0.18017314176011356
200.836,0.17324456495283191,-0.17324456495283191
200.837,0.1659455224576909,-0.1659455224576909
200.838,0.16059712640801804,-0.16059712640801804
200.839,0.15871906008005665,-0.15871906008005665
200.84,0.16053181125436555,-0.16053181125436555
200.841,0.16492288335162786,-0.16492288335162786
200.842,0.16988521113641764,-0.16988521113641764
200.843,0.17326542760423203,-0.17326542760423203
200.844,0.17354838605955913,-0.17354838605955913
200.845,0.1703933427624691,-0.1703933427624691
200.846,0.1647304947789079,-0.1647304947789079
200.847,0.15838972142119012,-0.15838972142119012
200.848,0.15340612907786633,-0.15340612907786633
200.849,0.15126546182934264,-0.15126546182934264
200.85,0.15237273718649957,-0.15237273718649957
200.851,0.15594202862620765,-0.15594202862620765
200.852,0.16034580090665884,-0.16034580090665884
200.853,0.16378790798439735,-0.16378790798439735
200.854,0.16504036972129266,-0.16504036972129266
200.855,0.1639571283804978,-0.1639571283804978
200.856,0.16155917126587638,-0.16155917126587638
200.857,0.15964562022793505,-0.15964562022793505
200.858,0.16006589096023038,-0.16006589096023038
200.859,0.1639218262301525,-0.1639218262301525
200.86,0.17100517549644068,-0.17100517549644068
200.861,0.17969943464300886,-0.17969943464300886
200.862,0.1874115741409368,-0.1874115741409368
200.863,0.19140652857271023,-0.19140652857271023
200.864,0.18976496672145116,-0.18976496672145116
200.865,0.18212874139716628,-0.18212874139716628
200.866,0.16996062049499683,-0.16996062049499683
200.867,0.15620546206847763,-0.15620546206847763
200.868,0.14444375666495834,-0.14444375666495834
200.869,0.13780451779237834,-0.13780451779237834
200.87,0.13799127742219774,-0.13799127742219774
200.871,0.1447418922033783,-0.1447418922033783
200.872,0.15590111910617988,-0.15590111910617988
200.873,0.16808316671778856,-0.16808316671778856
200.874,0.17770863770617074,-0.17770863770617074
200.875,0.18208151162114594,-0.18208151162114594
200.876,0.18016577641093645,-0.18016577641093645
200.877,0.1728274859335659,-0.1728274859335659
200.878,0.1624877430604207,-0.1624877430604207
200.879,0.15232290829909134,-0.15232290829909134
200.88,0.14528612709180722,-0.14528612709180722
200.881,0.1432654464133749,-0.1432654464133749
200.882,0.14662943534693484,-0.14662943534693484
200.883,0.1542687182393374,-0.1542687182393374
200.884,0.16407374477235137,-0.16407374477235137
200.885,0.1736537839639104,-0.1736537839639104
200.886,0.1810430569178899,-0.1810430569178899
200.887,0.18517146983448973,-0.18517146983448973
200.888,0.1859814331322509,-0.1859814331322509
200.889,0.1842064933804024,-0.1842064933804024
200.89,0.18094210709469138,-0.18094210709469138
200.891,0.17719473731106206,-0.17719473731106206
200.892,0.17357761649510983,-0.17357761649510983
200.893,0.17024311418204197,-0.17024311418204197
200.894,0.16703725190654284,-0.16703725190654284
200.895,0.1637733984030052,-0.1637733984030052
200.896,0.16048261547306497,-0.16048261547306497
200.897,0.1575197542239707,-0.1575197542239707
200.898,0.15547506259661614,-0.15547506259661614
200.899,0.1549300012090461,-0.1549300012090461
200.9,0.15616645993331335,-0.15616645993331335
200.901,0.15896238381909733,-0.15896238381909733
200.902,0.1625748937317656,-0.1625748937317656
200.903,0.1659374686109546,-0.1659374686109546
200.904,0.16801042214503592,-0.16801042214503592
200.905,0.16815835969522042,-0.16815835969522042
200.906,0.16641055639990732,-0.16641055639990732
200.907,0.16349779509613238,-0.16349779509613238
200.908,0.16063851087589298,-0.16063851087589298
200.909,0.15913865860794796,-0.15913865860794796
200.91,0.15993951131447592,-0.15993951131447592
200.911,0.16326974674789707,-0.16326974674789707
200.912,0.1685244981814049,-0.1685244981814049
200.913,0.17441679033821134,-0.17441679033821134
200.914,0.17935382591241378,-0.17935382591241378
200.915,0.18191497019344027,-0.18191497019344027
200.916,0.18127613390081898,-0.18127613390081898
200.917,0.17744660019182223,-0.17744660019182223
200.918,0.17125003148871099,-0.17125003148871099
200.919,0.16406708665186287,-0.16406708665186287
200.92,0.15743255323771954,-0.15743255323771954
200.921,0.15262004688429964,-0.15262004688429964
200.922,0.15034078786284433,-0.15034078786284433
200.923,0.15063533144869956,-0.15063533144869956
200.924,0.15296788399125383,-0.15296788399125383
200.925,0.15646745022927544,-0.15646745022927544
200.926,0.16022046335226192,-0.16022046335226192
200.927,0.16351659026382148,-0.16351659026382148
200.928,0.16597990157361764,-0.16597990157361764
200.929,0.16756680038567362,-0.16756680038567362
200.93,0.16846021562804692,-0.16846021562804692
200.931,0.16891955066091358,-0.16891955066091358
200.932,0.16914951816032375,-0.16914951816032375
200.933,0.1692309958317092,-0.1692309958317092
200.934,0.16912472596698647,-0.16912472596698647
200.935,0.16872854133768878,-0.16872854133768878
200.936,0.16795233213184757,-0.16795233213184757
200.937,0.16677638421656993,-0.16677638421656993
200.938,0.16527408593994997,-0.16527408593994997
200.939,0.16359992446293214,-0.16359992446293214
200.94,0.1619581175544973,-0.1619581175544973
200.941,0.16057012430849937,-0.16057012430849937
200.942,0.15965114730778074,-0.15965114730778074
200.943,0.15939288971404975,-0.15939288971404975
200.944,0.159940889616775,-0.159940889616775
200.945,0.16135607354773795,-0.16135607354773795
200.946,0.16356232930045678,-0.16356232930045678
200.947,0.16629898725059034,-0.16629898725059034
200.948,0.16910926094870704,-0.16910926094870704
200.949,0.17139387359572278,-0.17139387359572278
200.95,0.17253988482147053,-0.17253988482147053
200.951,0.172103053108299,-0.172103053108299
200.952,0.16999018243192987,-0.16999018243192987
200.953,0.16657083346736223,-0.16657083346736223
200.954,0.1626568428333386,-0.1626568428333386
200.955,0.15932517239428212,-0.15932517239428212
200.956,0.15761480642683456,-0.15761480642683456
200.957,0.15818245817823984,-0.15818245817823984
200.958,0.16103279172052487,-0.16103279172052487
200.959,0.1654307369720952,-0.1654307369720952
200.96,0.17005353243730814,-0.17005353243730814
200.961,0.17336162042929193,-0.17336162042929193
200.962,0.17408638671385135,-0.17408638671385135
200.963,0.1716789830706088,-0.1716789830706088
200.964,0.16656107966003642,-0.16656107966003642
200.965,0.16007189626797236,-0.16007189626797236
200.966,0.15410233187186673,-0.15410233187186673
200.967,0.1505154540310527,-0.1505154540310527
200.968,0.150535020423878,-0.150535020423878
200.969,0.15430851501097054,-0.15430851501097054
200.97,0.1608052765475113,-0.1608052765475113
200.971,0.16810506059087849,-0.16810506059087849
200.972,0.1740011495001238,-0.1740011495001238
200.973,0.1767295252838874,-0.1767295252838874
200.974,0.17558217756881866,-0.17558217756881866
200.975,0.17119009165386567,-0.17119009165386567
200.976,0.1653641866425447,-0.1653641866425447
200.977,0.16052814442034757,-0.16052814442034757
200.978,0.15891704729566425,-0.15891704729566425
200.979,0.16180155852523925,-0.16180155852523925
200.98,0.168997753653658,-0.168997753653658
200.981,0.1788350136439072,-0.1788350136439072
200.982,0.18860633889387324,-0.18860633889387324
200.983,0.19536615785842582,-0.19536615785842582
200.984,0.19682407261197266,-0.19682407261197266
200.985,0.19204904855638372,-0.19204904855638372
200.986,0.18175946481769378,-0.18175946481769378
200.987,0.16810997738315026,-0.16810997738315026
200.988,0.1540505090155797,-0.1540505090155797
200.989,0.14247023908268186,-0.14247023908268186
200.99,0.13540399701484696,-0.13540399701484696
200.991,0.13354910908589523,-0.13354910908589523
200.992,0.13622910385165654,-0.13622910385165654
200.993,0.1417865046683936,-0.1417865046683936
200.994,0.1482440367603327,-0.1482440367603327
200.995,0.15399088883938572,-0.15399088883938572
200.996,0.15825523282922604,-0.15825523282922604
200.997,0.16121201641293947,-0.16121201641293947
200.998,0.16371296242178124,-0.16371296242178124
200.999,0.16676362359721963,-0.16676362359721963
201.0,0.17096116064186428,-0.17096116064186428
201.001,0.17611554385442219,-0.17611554385442219
201.002,0.18120442484232036,-0.18120442484232036
201.003,0.1846854165823062,-0.1846854165823062
201.004,0.18505529869876614,-0.18505529869876614
201.005,0.1814521861199896,-0.1814521861199896
201.006,0.1740772411048218,-0.1740772411048218
201.007,0.16427354331107014,-0.16427354331107014
201.008,0.15421901204524968,-0.15421901204524968
201.009,0.14632514863822976,-0.14632514863822976
201.01,0.1425361987352105,-0.1425361987352105
201.011,0.14375841230986808,-0.14375841230986808
201.012,0.14960499117960946,-0.14960499117960946
201.013,0.15853549375591602,-0.15853549375591602
201.014,0.16833684977147467,-0.16833684977147467
201.015,0.17678239662591355,-0.17678239662591355
201.016,0.18225275949999908,-0.18225275949999908
201.017,0.18412408850970208,-0.18412408850970208
201.018,0.18281515495882694,-0.18281515495882694
201.019,0.1795033325276476,-0.1795033325276476
201.02,0.17562880938569936,-0.17562880938569936
201.021,0.17236964359598583,-0.17236964359598583
201.022,0.1702681090401834,-0.1702681090401834
201.023,0.16912524222267022,-0.16912524222267022
201.024,0.16818060745597085,-0.16818060745597085
201.025,0.1664943294249437,-0.1664943294249437
201.026,0.16338277894274367,-0.16338277894274367
201.027,0.15874858444881013,-0.15874858444881013
201.028,0.15319037884638376,-0.15319037884638376
201.029,0.14785922844944155,-0.14785922844944155
201.03,0.14411686315318673,-0.14411686315318673
201.031,0.1431151524553511,-0.1431151524553511
201.032,0.14543653801653667,-0.14543653801653667
201.033,0.1509076661759129,-0.1509076661759129
201.034,0.15863614990242214,-0.15863614990242214
201.035,0.1672468857511611,-0.1672468857511611
201.036,0.17523497618978434,-0.17523497618978434
201.037,0.181325129028426,-0.181325129028426
201.038,0.18473770161936853,-0.18473770161936853
201.039,0.18530135151710647,-0.18530135151710647
201.04,0.18340462842108496,-0.18340462842108496
201.041,0.17982498501191246,-0.17982498501191246
201.042,0.1754998105935467,-0.1754998105935467
201.043,0.1713056480797096,-0.1713056480797096
201.044,0.16789362932530016,-0.16789362932530016
201.045,0.1656022609418064,-0.1656022609418064
201.046,0.16444464215270904,-0.16444464215270904
201.047,0.164153536054633,-0.164153536054633
201.048,0.16426549255556944,-0.16426549255556944
201.049,0.16422977550795936,-0.16422977550795936
201.05,0.16353213391411714,-0.16353213391411714
201.051,0.16182219675006537,-0.16182219675006537
201.052,0.159025928278551,-0.159025928278551
201.053,0.15541578928804256,-0.15541578928804256
201.054,0.15160847343067418,-0.15160847343067418
201.055,0.14846959855064001,-0.14846959855064001
201.056,0.14692778236590687,-0.14692778236590687
201.057,0.14773158071484938,-0.14773158071484938
201.058,0.1512107903805674,-0.1512107903805674
201.059,0.1571161878499029,-0.1571161878499029
201.06,0.16460035330673084,-0.16460035330673084
201.061,0.17236648136379873,-0.17236648136379873
201.062,0.17896124719510964,-0.17896124719510964
201.063,0.1831382678084118,-0.1831382678084118
201.064,0.18418843347779912,-0.18418843347779912
201.065,0.182135169387879,-0.182135169387879
201.066,0.17772880439526506,-0.17772880439526506
201.067,0.17223472878025603,-0.17223472878025603
201.068,0.16707553489436322,-0.16707553489436322
201.069,0.16343553740048733,-0.16343553740048733
201.07,0.1619496628389543,-0.1619496628389543
201.071,0.1625718779501205,-0.1625718779501205
201.072,0.1646593174014802,-0.1646593174014802
201.073,0.16723682736657997,-0.16723682736657997
201.074,0.1693472776988706,-0.1693472776988706
201.075,0.17036633572433713,-0.17036633572433713
201.076,0.17017575452133915,-0.17017575452133915
201.077,0.16914116992719685,-0.16914116992719685
201.078,0.167910563908236,-0.167910563908236
201.079,0.16711314989709936,-0.16711314989709936
201.08,0.16707307771536128,-0.16707307771536128
201.081,0.16764601190012196,-0.16764601190012196
201.082,0.16824186075041214,-0.16824186075041214
201.083,0.16802983315463815,-0.16802983315463815
201.084,0.1662563777499403,-0.1662563777499403
201.085,0.1625653779990036,-0.1625653779990036
201.086,0.1572072773261841,-0.1572072773261841
201.087,0.15105996346729667,-0.15105996346729667
201.088,0.14544618282774913,-0.14544618282774913
201.089,0.14179845401479618,-0.14179845401479618
201.09,0.14127070617858495,-0.14127070617858495
201.091,0.1444110235139403,-0.1444110235139403
201.092,0.1509886734860546,-0.1509886734860546
201.093,0.16002007557130715,-0.16002007557130715
201.094,0.16997991102142695,-0.16997991102142695
201.095,0.17913427350235045,-0.17913427350235045
201.096,0.18590671099202571,-0.18590671099202571
201.097,0.1891899955129016,-0.1891899955129016
201.098,0.18854143534782486,-0.18854143534782486
201.099,0.18423578904411664,-0.18423578904411664
201.1,0.17718421269732898,-0.17718421269732898
201.101,0.16875074016771896,-0.16875074016771896
201.102,0.16050676372931816,-0.16050676372931816
201.103,0.15396241887576956,-0.15396241887576956
201.104,0.15030855411688226,-0.15030855411688226
201.105,0.15020000311944215,-0.15020000311944215
201.106,0.15361174641514752,-0.15361174641514752
201.107,0.15980058432321997,-0.15980058432321997
201.108,0.16739929265463205,-0.16739929265463205
201.109,0.17465197792687037,-0.17465197792687037
201.11,0.17976772784882566,-0.17976772784882566
201.111,0.18133129938787718,-0.18133129938787718
201.112,0.17867740604307314,-0.17867740604307314
201.113,0.17212389653766058,-0.17212389653766058
201.114,0.16297912480832755,-0.16297912480832755
201.115,0.15329062062252963,-0.15329062062252963
201.116,0.14537421003835937,-0.14537421003835937
201.117,0.14123369496557614,-0.14123369496557614
201.118,0.1420266437510046,-0.1420266437510046
201.119,0.14773294521108638,-0.14773294521108638
201.12,0.1571340011395781,-0.1571340011395781
201.121,0.16812306444817582,-0.16812306444817582
201.122,0.1782670273592737,-0.1782670273592737
201.123,0.18545927025880093,-0.18545927025880093
201.124,0.18847000958097482,-0.18847000958097482
201.125,0.18722845815822453,-0.18722845815822453
201.126,0.18275344677085437,-0.18275344677085437
201.127,0.17676047179373722,-0.17676047179373722
201.128,0.17107705304581833,-0.17107705304581833
201.129,0.1670597477418052,-0.1670597477418052
201.13,0.16520366486216187,-0.16520366486216187
201.131,0.16506879057792379,-0.16506879057792379
201.132,0.16553880780178443,-0.16553880780178443
201.133,0.16531415558362683,-0.16531415558362683
201.134,0.16346091437078214,-0.16346091437078214
201.135,0.15981852441242173,-0.15981852441242173
201.136,0.15511903456219334,-0.15511903456219334
201.137,0.15077157644244144,-0.15077157644244144
201.138,0.14838320610864097,-0.14838320610864097
201.139,0.1491804740451077,-0.1491804740451077
201.14,0.15353274995439248,-0.15353274995439248
201.141,0.1607457370658587,-0.1607457370658587
201.142,0.16920305630808086,-0.16920305630808086
201.143,0.17681651568182433,-0.17681651568182433
201.144,0.18164191707678534,-0.18164191707678534
201.145,0.18246214197120658,-0.18246214197120658
201.146,0.179150809776906,-0.179150809776906
201.147,0.17270298130733275,-0.17270298130733275
201.148,0.16492833406363216,-0.16492833406363216
201.149,0.15790972093306288,-0.15790972093306288
201.15,0.15340051857129233,-0.15340051857129233
201.151,0.15234597426381713,-0.15234597426381713
201.152,0.15466583353461305,-0.15466583353461305
201.153,0.15934687804912706,-0.15934687804912706
201.154,0.16479609666991213,-0.16479609666991213
201.155,0.16933047481947328,-0.16933047481947328
201.156,0.1716500177791923,-0.1716500177791923
201.157,0.17116173960963188,-0.17116173960963188
201.158,0.16808165235722283,-0.16808165235722283
201.159,0.16331545741979614,-0.16331545741979614
201.16,0.15818086451923863,-0.15818086451923863
201.161,0.1540668480845574,-0.1540668480845574
201.162,0.1521224626435581,-0.1521224626435581
201.163,0.153038212585199,-0.153038212585199
201.164,0.1569429396628772,-0.1569429396628772
201.165,0.16340592196211512,-0.16340592196211512
201.166,0.171517984681823,-0.171517984681823
201.167,0.18002729716378174,-0.18002729716378174
201.168,0.18751653823036996,-0.18751653823036996
201.169,0.19261588539428254,-0.19261588539428254
201.17,0.19424158227238186,-0.19424158227238186
201.171,0.19183179264699646,-0.19183179264699646
201.172,0.18552870483780748,-0.18552870483780748
201.173,0.17624292103124262,-0.17624292103124262
201.174,0.16554644002075025,-0.16554644002075025
201.175,0.15537896042565136,-0.15537896042565136
201.176,0.14761102794793157,-0.14761102794793157
201.177,0.14356731844646742,-0.14356731844646742
201.178,0.14364958031008979,-0.14364958031008979
201.179,0.14719162667990227,-0.14719162667990227
201.18,0.1526223299813012,-0.1526223299813012
201.181,0.1579194582689093,-0.1579194582689093
201.182,0.16123630566220448,-0.16123630566220448
201.183,0.16151044995269392,-0.16151044995269392
201.184,0.1588497672486523,-0.1588497672486523
201.185,0.15454709832252922,-0.15454709832252922
201.186,0.15068911615188907,-0.15068911615188907
201.187,0.1494619546102013,-0.1494619546102013
201.188,0.1523693505628403,-0.1523693505628403
201.189,0.1596262062074979,-0.1596262062074979
201.19,0.16994958794623116,-0.16994958794623116
201.191,0.18084798740489938,-0.18084798740489938
201.192,0.18934504339478486,-0.18934504339478486
201.193,0.19292059985831778,-0.19292059985831778
201.194,0.19036416162104208,-0.19036416162104208
201.195,0.18224787979578727,-0.18224787979578727
201.196,0.17083941875730746,-0.17083941875730746
201.197,0.15945543266874673,-0.15945543266874673
201.198,0.15144492094148743,-0.15144492094148743
201.199,0.1491240209530782,-0.1491240209530782
201.2,0.15301228021437052,-0.15301228021437052
201.201,0.1616316492493104,-0.1616316492493104
201.202,0.17194979836099733,-0.17194979836099733
201.203,0.1803373294576911,-0.1803373294576911
201.204,0.18373513651460627,-0.18373513651460627
201.205,0.18065309716716937,-0.18065309716716937
201.206,0.17167163952407083,-0.17167163952407083
201.207,0.1592784063746434,-0.1592784063746434
201.208,0.14709034987640612,-0.14709034987640612
201.209,0.13871415517408825,-0.13871415517408825
201.21,0.13661666447897336,-0.13661666447897336
201.211,0.14137185368481475,-0.14137185368481475
201.212,0.15152379652597037,-0.15152379652597037
201.213,0.16409924038314283,-0.16409924038314283
201.214,0.17558875778166771,-0.17558875778166771
201.215,0.1830643095733102,-0.1830643095733102
201.216,0.18506357935833628,-0.18506357935833628
201.217,0.18195849155076016,-0.18195849155076016
201.218,0.175705235096263,-0.175705235096263
201.219,0.16908307187959515,-0.16908307187959515
201.22,0.16469730068368937,-0.16469730068368937
201.221,0.16409183431047958,-0.16409183431047958
201.222,0.16726759013391246,-0.16726759013391246
201.223,0.1727543961691559,-0.1727543961691559
201.224,0.1781900639353956,-0.1781900639353956
201.225,0.18118859400421916,-0.18118859400421916
201.226,0.18018843733349565,-0.18018843733349565
201.227,0.17499002481747294,-0.17499002481747294
201.228,0.16680937173165555,-0.16680937173165555
201.229,0.1578473499752271,-0.1578473499752271
201.23,0.15054042117123556,-0.15054042117123556
201.231,0.14676092279364372,-0.14676092279364372
201.232,0.14724043451343327,-0.14724043451343327
201.233,0.15140041314355512,-0.15140041314355512
201.234,0.15762532369313864,-0.15762532369313864
201.235,0.16385953609575543,-0.16385953609575543
201.236,0.168304401486423,-0.168304401486423
201.237,0.16997064557572716,-0.16997064557572716
201.238,0.1689069458836605,-0.1689069458836605
201.239,0.16605072072304383,-0.16605072072304383
201.24,0.16278428757109886,-0.16278428757109886
201.241,0.16037908952960267,-0.16037908952960267
201.242,0.1595388414444454,-0.1595388414444454
201.243,0.16020265449502602,-0.16020265449502602
201.244,0.1616633562255756,-0.1616633562255756
201.245,0.1629355667525474,-0.1629355667525474
201.246,0.16321743679106637,-0.16321743679106637
201.247,0.16226126134240826,-0.16226126134240826
201.248,0.1605094479344713,-0.1605094479344713
201.249,0.15894561192220902,-0.15894561192220902
201.25,0.1587196146971449,-0.1587196146971449
201.251,0.16068949278245803,-0.16068949278245803
201.252,0.16505242069304293,-0.16505242069304293
201.253,0.17120225319859095,-0.17120225319859095
201.254,0.17786749994525286,-0.17786749994525286
201.255,0.18348273131681947,-0.18348273131681947
201.256,0.18666523620240894,-0.18666523620240894
201.257,0.18663541400467942,-0.18663541400467942
201.258,0.1834435889428454,-0.1834435889428454
201.259,0.17793634670039304,-0.17793634670039304
201.26,0.17148495381127427,-0.17148495381127427
201.261,0.16557465948303618,-0.16557465948303618
201.262,0.16139127215840288,-0.16139127215840288
201.263,0.1595304783183571,-0.1595304783183571
201.264,0.15990403722502133,-0.15990403722502133
201.265,0.16184694947792277,-0.16184694947792277
201.266,0.16436716114043037,-0.16436716114043037
201.267,0.16644495634653966,-0.16644495634653966
201.268,0.16729083837010916,-0.16729083837010916
201.269,0.1665019917496997,-0.1665019917496997
201.27,0.1641016988594889,-0.1641016988594889
201.271,0.16048423926361788,-0.16048423926361788
201.272,0.15630634406498312,-0.15630634406498312
201.273,0.15236238821895154,-0.15236238821895154
201.274,0.1494620742494679,-0.1494620742494679
201.275,0.14831029900048165,-0.14831029900048165
201.276,0.14938191575183024,-0.14938191575183024
201.277,0.1527942883669302,-0.1527942883669302
201.278,0.15820257214389188,-0.15820257214389188
201.279,0.16476308237461457,-0.16476308237461457
201.28,0.17121366254075054,-0.17121366254075054
201.281,0.1760973311074484,-0.1760973311074484
201.282,0.17810900335197621,-0.17810900335197621
201.283,0.17648960466142105,-0.17648960466142105
201.284,0.17135002040076608,-0.17135002040076608
201.285,0.16380056969395018,-0.16380056969395018
201.286,0.1558009122080013,-0.1558009122080013
201.287,0.14972447478545203,-0.14972447478545203
201.288,0.14772767454264413,-0.14772767454264413
201.289,0.15109437188875008,-0.15109437188875008
201.29,0.15975855705222874,-0.15975855705222874
201.291,0.1721754205136381,-0.1721754205136381
201.292,0.18561672002474394,-0.18561672002474394
201.293,0.19683727486876768,-0.19683727486876768
201.294,0.20293681458884827,-0.20293681458884827
201.295,0.20216763141081961,-0.20216763141081961
201.296,0.1944418231125996,-0.1944418231125996
201.297,0.18137567433384605,-0.18137567433384605
201.298,0.1658486881661939,-0.1658486881661939
201.299,0.15120636557464429,-0.15120636557464429
201.3,0.1403488241670915,-0.1403488241670915
201.301,0.13498318898182027,-0.13498318898182027
201.302,0.13526320727138963,-0.13526320727138963
201.303,0.13991213638818578,-0.13991213638818578
201.304,0.14676713869369373,-0.14676713869369373
201.305,0.15354841663574126,-0.15354841663574126
201.306,0.1585896937077479,-0.1585896937077479
201.307,0.1612903742858881,-0.1612903742858881
201.308,0.16215444845413518,-0.16215444845413518
201.309,0.16242951093890612,-0.16242951093890612
201.31,0.1634987879639075,-0.1634987879639075
201.311,0.16626103060116715,-0.16626103060116715
201.312,0.17072954740305413,-0.17072954740305413
201.313,0.17599513746600004,-0.17599513746600004
201.314,0.18056039285143421,-0.18056039285143421
201.315,0.1829148034399316,-0.1829148034399316
201.316,0.18213124828128657,-0.18213124828128657
201.317,0.178256706361687,-0.178256706361687
201.318,0.17234585576203343,-0.17234585576203343
201.319,0.16611791283966848,-0.16611791283966848
201.32,0.1613566800163908,-0.1613566800163908
201.321,0.15927052899243077,-0.15927052899243077
201.322,0.16004756994910307,-0.16004756994910307
201.323,0.16277431963160227,-0.16277431963160227
201.324,0.16575731337190924,-0.16575731337190924
201.325,0.16714217580427826,-0.16714217580427826
201.326,0.16561547322134695,-0.16561547322134695
201.327,0.16094046150395813,-0.16094046150395813
201.328,0.15413133857632821,-0.15413133857632821
201.329,0.14719351988785467,-0.14719351988785467
201.33,0.14250701027244927,-0.14250701027244927
201.331,0.14205405081892142,-0.14205405081892142
201.332,0.14674779300354213,-0.14674779300354213
201.333,0.15608673619521884,-0.15608673619521884
201.334,0.1682514536182188,-0.1682514536182188
201.335,0.18061327097827373,-0.18061327097827373
201.336,0.1904893829716986,-0.1904893829716986
201.337,0.19590092556982908,-0.19590092556982908
201.338,0.19609491042828997,-0.19609491042828997
201.339,0.19167424739141914,-0.19167424739141914
201.34,0.18431223119224394,-0.18431223119224394
201.341,0.1761631189277394,-0.1761631189277394
201.342,0.16917351671178893,-0.16917351671178893
201.343,0.16452085006613903,-0.16452085006613903
201.344,0.16235112160270482,-0.16235112160270482
201.345,0.16188001568087407,-0.16188001568087407
201.346,0.16179794215862886,-0.16179794215862886
201.347,0.16082279700709512,-0.16082279700709512
201.348,0.1582048550681593,-0.1582048550681593
201.349,0.15401607436700404,-0.15401607436700404
201.35,0.14913781539162585,-0.14913781539162585
201.351,0.14496597469210037,-0.14496597469210037
201.352,0.14294443806759494,-0.14294443806759494
201.353,0.1440871165837685,-0.1440871165837685
201.354,0.14864253022217333,-0.14864253022217333
201.355,0.15599935847405721,-0.15599935847405721
201.356,0.16484876639761248,-0.16484876639761248
201.357,0.17353876961140646,-0.17353876961140646
201.358,0.1805030847097252,-0.1805030847097252
201.359,0.18463576722660247,-0.18463576722660247
201.36,0.18551228843754008,-0.18551228843754008
201.361,0.18341338871134227,-0.18341338871134227
201.362,0.17916928995279346,-0.17916928995279346
201.363,0.1738890904538435,-0.1738890904538435
201.364,0.1686614082938771,-0.1686614082938771
201.365,0.16430593379785874,-0.16430593379785874
201.366,0.16122887490116777,-0.16122887490116777
201.367,0.1594004253638932,-0.1594004253638932
201.368,0.1584409606989069,-0.1584409606989069
201.369,0.1577818625825994,-0.1577818625825994
201.37,0.15685817113443923,-0.15685817113443923
201.371,0.15529083090028162,-0.15529083090028162
201.372,0.15302193995294988,-0.15302193995294988
201.373,0.15037441322302303,-0.15037441322302303
201.374,0.1480178222307541,-0.1480178222307541
201.375,0.14683668411006257,-0.14683668411006257
201.376,0.14771735437069133,-0.14771735437069133
201.377,0.15129303584688947,-0.15129303584688947
201.378,0.15770722768286982,-0.15770722768286982
201.379,0.1664654312032583,-0.1664654312032583
201.38,0.17643512309228038,-0.17643512309228038
201.381,0.1860220088936474,-0.1860220088936474
201.382,0.1935016268301255,-0.1935016268301255
201.383,0.19743291871069935,-0.19743291871069935
201.384,0.197042468239086,-0.197042468239086
201.385,0.19246107486672803,-0.19246107486672803
201.386,0.18472602139143812,-0.18472602139143812
201.387,0.17552759613386892,-0.17552759613386892
201.388,0.1667588228635276,-0.1667588228635276
201.389,0.15999655327948503,-0.15999655327948503
201.39,0.1560744865210214,-0.1560744865210214
201.391,0.15488909479668578,-0.15488909479668578
201.392,0.15550982097659327,-0.15550982097659327
201.393,0.1565654460111353,-0.1565654460111353
201.394,0.15678192440181038,-0.15678192440181038
201.395,0.1554876965094506,-0.1554876965094506
201.396,0.15290427060361234,-0.15290427060361234
201.397,0.1501063371990523,-0.1501063371990523
201.398,0.14864748249306736,-0.14864748249306736
201.399,0.14996776650535837,-0.14996776650535837
201.4,0.15478564491981128,-0.15478564491981128
201.401,0.16269604174703356,-0.16269604174703356
201.402,0.1721378193449189,-0.1721378193449189
201.403,0.18077358177379277,-0.18077358177379277
201.404,0.1861817334958239,-0.1861817334958239
201.405,0.18664425877298052,-0.18664425877298052
201.406,0.18176625417165126,-0.18176625417165126
201.407,0.17270509389675726,-0.17270509389675726
201.408,0.1619080635387441,-0.1619080635387441
201.409,0.1524189976229271,-0.1524189976229271
201.41,0.1469626677541076,-0.1469626677541076
201.411,0.14709871190778145,-0.14709871190778145
201.412,0.15272384143324402,-0.15272384143324402
201.413,0.1620932418750609,-0.1620932418750609
201.414,0.1723636293586397,-0.1723636293586397
201.415,0.18048731894954995,-0.18048731894954995
201.416,0.18416784068397196,-0.18416784068397196
201.417,0.18256459906138855,-0.18256459906138855
201.418,0.17651611991225957,-0.17651611991225957
201.419,0.16821187738251353,-0.16821187738251353
201.42,0.16042754539824888,-0.16042754539824888
201.421,0.15558480617599935,-0.15558480617599935
201.422,0.15495435653346978,-0.15495435653346978
201.423,0.15826954139002825,-0.15826954139002825
201.424,0.16387559565965593,-0.16387559565965593
201.425,0.16935484862333872,-0.16935484862333872
201.426,0.17240516811082995,-0.17240516811082995
201.427,0.17166368006832966,-0.17166368006832966
201.428,0.16718962747020172,-0.16718962747020172
201.429,0.1604411116560831,-0.1604411116560831
201.43,0.15375792480167094,-0.15375792480167094
