Czas,AbsSum,Sum
71.94200000000001,0.06720973557080501,-0.06720973557080501
71.94300000000001,0.06579411205618846,-0.06579411205618846
71.944,0.0727697177702652,-0.0727697177702652
71.94500000000001,0.08669775622307718,-0.08669775622307718
71.94600000000001,0.10410782757612691,-0.10410782757612691
71.947,0.12070262661327402,-0.12070262661327402
71.94800000000001,0.1329640049313341,-0.1329640049313341
71.94900000000001,0.13958922232096893,-0.13958922232096893
71.95,0.14221061735416052,-0.14221061735416052
71.95100000000001,0.1450716038819262,-0.1450716038819262
71.95200000000001,0.15367948579246726,-0.15367948579246726
71.953,0.17281650987536568,-0.17281650987536568
71.95400000000001,0.2045410136051634,-0.2045410136051634
71.95500000000001,0.24685972021980795,-0.24685972021980795
71.956,0.2935747243797546,-0.2935747243797546
71.95700000000001,0.33545499686799085,-0.33545499686799085
71.95800000000001,0.36246372284717354,-0.36246372284717354
71.959,0.36642560899383225,-0.36642560899383225
71.96000000000001,0.3433579801661433,-0.3433579801661433
71.96100000000001,0.29477181216094694,-0.29477181216094694
71.962,0.22755031663841174,-0.22755031663841174
71.96300000000001,0.15243755218879163,-0.15243755218879163
71.96400000000001,0.08158121806627494,-0.08158121806627494
71.965,0.025840330380704435,-0.025840330380704435
71.96600000000001,0.007393448884219556,0.007393448884219556
71.96700000000001,0.015309483372730082,0.015309483372730082
71.968,0.0004627455570707095,-0.0004627455570707095
71.96900000000001,0.03503727247417665,-0.03503727247417665
71.97000000000001,0.08198047188180202,-0.08198047188180202
71.971,0.13491746455608233,-0.13491746455608233
71.97200000000001,0.1885243684752793,-0.1885243684752793
71.97300000000001,0.23868734844180806,-0.23868734844180806
71.974,0.2819679310803128,-0.2819679310803128
71.97500000000001,0.31480462918709595,-0.31480462918709595
71.97600000000001,0.33299431496573706,-0.33299431496573706
71.977,0.331887358069075,-0.331887358069075
71.97800000000001,0.30743356734133476,-0.30743356734133476
71.979,0.2578368184258123,-0.2578368184258123
71.98,0.18525479767222386,-0.18525479767222386
71.98100000000001,0.09684238227207353,-0.09684238227207353
71.982,0.004549534437972014,-0.004549534437972014
71.983,0.07657117451262163,0.07657117451262163
71.98400000000001,0.1313172583317881,0.1313172583317881
71.985,0.1478662290870627,0.1478662290870627
71.986,0.12092442208724896,0.12092442208724896
71.98700000000001,0.053544189666364206,0.053544189666364206
71.988,0.04303200354803138,-0.04303200354803138
71.989,0.15161065421324538,-0.15161065421324538
71.99000000000001,0.2528803834824326,-0.2528803834824326
71.991,0.32986637823743337,-0.32986637823743337
71.992,0.37181909102460564,-0.37181909102460564
71.99300000000001,0.3764806032540907,-0.3764806032540907
71.994,0.3501172553118218,-0.3501172553118218
71.995,0.3053391283653698,-0.3053391283653698
71.99600000000001,0.2573576464108014,-0.2573576464108014
71.997,0.2197714861918193,-0.2197714861918193
71.998,0.20108462141878802,-0.20108462141878802
71.99900000000001,0.20291433910449796,-0.20291433910449796
72.0,0.22031781181807275,-0.22031781181807275
72.001,0.24401724792106172,-0.24401724792106172
72.00200000000001,0.2637365156489495,-0.2637365156489495
72.003,0.2715512609115166,-0.2715512609115166
72.004,0.26419388650723996,-0.26419388650723996
72.00500000000001,0.24362776490017513,-0.24362776490017513
72.006,0.21578970107173412,-0.21578970107173412
72.007,0.1880069983337559,-0.1880069983337559
72.00800000000001,0.16602959730166855,-0.16602959730166855
72.009,0.15173830579217162,-0.15173830579217162
72.01,0.14235752411280866,-0.14235752411280866
72.01100000000001,0.13148958321647874,-0.13148958321647874
72.012,0.11166331447369193,-0.11166331447369193
72.013,0.07755570373504506,-0.07755570373504506
72.01400000000001,0.028779494875053158,-0.028779494875053158
72.015,0.028775910351941825,0.028775910351941825
72.016,0.08363063594666453,0.08363063594666453
72.01700000000001,0.12137025908597177,0.12137025908597177
72.018,0.12857196512228142,0.12857196512228142
72.019,0.09686081581854356,0.09686081581854356
72.02000000000001,0.025862076754058272,0.025862076754058272
72.021,0.075894823426645,-0.075894823426645
72.022,0.1924762418641508,-0.1924762418641508
72.02300000000001,0.3040954112417942,-0.3040954112417942
72.024,0.3917530571989678,-0.3917530571989678
72.025,0.4416850968751759,-0.4416850968751759
72.02600000000001,0.44840040273621273,-0.44840040273621273
72.027,0.41552009148784896,-0.41552009148784896
72.028,0.35428444721956287,-0.35428444721956287
72.02900000000001,0.2802682489975401,-0.2802682489975401
72.03,0.20933102199548148,-0.20933102199548148
72.031,0.15398089812656435,-0.15398089812656435
72.03200000000001,0.12111455130999849,-0.12111455130999849
72.033,0.11159544519994702,-0.11159544519994702
72.034,0.12152209783508117,-0.12152209783508117
72.03500000000001,0.14452128127587038,-0.14452128127587038
72.036,0.17414414824384683,-0.17414414824384683
72.037,0.20551963955170227,-0.20551963955170227
72.03800000000001,0.23578701779591427,-0.23578701779591427
72.039,0.26334674676012537,-0.26334674676012537
72.04,0.2864459579275671,-0.2864459579275671
72.04100000000001,0.30187870245612636,-0.30187870245612636
72.042,0.30453700029630404,-0.30453700029630404
72.043,0.2882120038902415,-0.2882120038902415
72.04400000000001,0.2475363834811508,-0.2475363834811508
72.045,0.18046363319507475,-0.18046363319507475
72.046,0.09038073770871735,-0.09038073770871735
72.04700000000001,0.013034544164049366,0.013034544164049366
72.048,0.11476144137717648,0.11476144137717648
72.049,0.19717829236342244,0.19717829236342244
72.05000000000001,0.24398937911841956,0.24398937911841956
72.051,0.24429034569023833,0.24429034569023833
72.052,0.19560355933587137,0.19560355933587137
72.05300000000001,0.10495644015621819,0.10495644015621819
72.054,0.012387080946579587,-0.012387080946579587
72.055,0.13626456444244583,-0.13626456444244583
72.05600000000001,0.24615519551038756,-0.24615519551038756
72.057,0.32572358270812696,-0.32572358270812696
72.058,0.3661932499532282,-0.3661932499532282
72.05900000000001,0.36773870452688406,-0.36773870452688406
72.06,0.33866365610367644,-0.33866365610367644
72.061,0.292743023559925,-0.292743023559925
72.06200000000001,0.2455635332580859,-0.2455635332580859
72.063,0.21087730568063,-0.21087730568063
72.06400000000001,0.1978563991635265,-0.1978563991635265
72.06500000000001,0.20977409951807857,-0.20977409951807857
72.066,0.24417897476330963,-0.24417897476330963
72.06700000000001,0.294224697385813,-0.294224697385813
72.06800000000001,0.3505894839275102,-0.3505894839275102
72.069,0.40340735610712397,-0.40340735610712397
72.07000000000001,0.44380218979554,-0.44380218979554
72.07100000000001,0.46486925499049236,-0.46486925499049236
72.072,0.4621758047250528,-0.4621758047250528
72.07300000000001,0.43396847762588897,-0.43396847762588897
72.07400000000001,0.38125522285752045,-0.38125522285752045
72.075,0.30781049574621666,-0.30781049574621666
72.07600000000001,0.22001391736118703,-0.22001391736118703
72.07700000000001,0.12635835784380067,-0.12635835784380067
72.078,0.03650405014391822,-0.03650405014391822
72.07900000000001,0.04009488751514567,0.04009488751514567
72.08000000000001,0.09576689065064614,0.09576689065064614
72.081,0.12602127270110897,0.12602127270110897
72.08200000000001,0.13035383241406295,0.13035383241406295
72.08300000000001,0.11217003732032316,0.11217003732032316
72.084,0.07779044200142837,0.07779044200142837
72.08500000000001,0.03480067299930756,0.03480067299930756
72.08600000000001,0.009762668734809021,-0.009762668734809021
72.087,0.05083237187967615,-0.05083237187967615
72.08800000000001,0.08591224661588359,-0.08591224661588359
72.08900000000001,0.11472829640478999,-0.11472829640478999
72.09,0.13814775081101915,-0.13814775081101915
72.09100000000001,0.15685957711020782,-0.15685957711020782
72.09200000000001,0.17040119240555096,-0.17040119240555096
72.093,0.17697955723310022,-0.17697955723310022
72.09400000000001,0.1742135563818994,-0.1742135563818994
72.09500000000001,0.1605356193256039,-0.1605356193256039
72.096,0.136683501909307,-0.136683501909307
72.09700000000001,0.10661393145778175,-0.10661393145778175
72.09800000000001,0.0773307103534332,-0.0773307103534332
72.099,0.057495585750041656,-0.057495585750041656
72.10000000000001,0.055150096518902236,-0.055150096518902236
72.10100000000001,0.0752502109958958,-0.0752502109958958
72.102,0.11785534801588593,-0.11785534801588593
72.10300000000001,0.17765184056518502,-0.17765184056518502
72.104,0.2450700173292083,-0.2450700173292083
72.105,0.30871472953449375,-0.30871472953449375
72.10600000000001,0.3583630026362721,-0.3583630026362721
72.107,0.38756279441851416,-0.38756279441851416
72.108,0.39498331638653295,-0.39498331638653295
72.10900000000001,0.38408969842668716,-0.38408969842668716
72.11,0.36129932096286466,-0.36129932096286466
72.111,0.33331601159752644,-0.33331601159752644
72.11200000000001,0.3046338735324291,-0.3046338735324291
72.113,0.2761405924354735,-0.2761405924354735
72.114,0.2453445570013868,-0.2453445570013868
72.11500000000001,0.20814170673873156,-0.20814170673873156
72.116,0.16144600198071313,-0.16144600198071313
72.117,0.10565120722861199,-0.10565120722861199
72.11800000000001,0.04591003815513217,-0.04591003815513217
72.119,0.008385512315385979,0.008385512315385979
72.12,0.045896120009334185,0.045896120009334185
72.12100000000001,0.05671313412841572,0.05671313412841572
72.122,0.03570030326270923,0.03570030326270923
72.123,0.015370423134944078,-0.015370423134944078
72.12400000000001,0.08768913201967432,-0.08768913201967432
72.125,0.16742033684612834,-0.16742033684612834
72.126,0.23926637397171768,-0.23926637397171768
72.12700000000001,0.2904581103566325,-0.2904581103566325
72.128,0.31390294517920914,-0.31390294517920914
72.129,0.30951464998885003,-0.30951464998885003
72.13000000000001,0.2833814266135043,-0.2833814266135043
72.131,0.24517192158998846,-0.24517192158998846
72.132,0.20476714775956584,-0.20476714775956584
72.13300000000001,0.16932877576209637,-0.16932877576209637
72.134,0.14179403534818946,-0.14179403534818946
72.135,0.12121001197533876,-0.12121001197533876
72.13600000000001,0.10460285954743931,-0.10460285954743931
72.137,0.089490056188958,-0.089490056188958
72.138,0.07590841191679987,-0.07590841191679987
72.13900000000001,0.06703832374003027,-0.06703832374003027
72.14,0.06808044129650437,-0.06808044129650437
72.141,0.08376842095327963,-0.08376842095327963
72.14200000000001,0.1155027388549087,-0.1155027388549087
72.143,0.15932862767273448,-0.15932862767273448
72.144,0.20574994663715684,-0.20574994663715684
72.14500000000001,0.24173772296257456,-0.24173772296257456
72.146,0.25447775181387766,-0.25447775181387766
72.147,0.2357018571729076,-0.2357018571729076
72.14800000000001,0.1851262754784857,-0.1851262754784857
72.149,0.11171282479888323,-0.11171282479888323
72.15,0.03212714164887365,-0.03212714164887365
72.15100000000001,0.03332234774290943,0.03332234774290943
72.152,0.06613109652772131,0.06613109652772131
72.153,0.0548020627711876,0.0548020627711876
72.15400000000001,0.0017868812999080053,-0.0017868812999080053
72.155,0.09388590791434392,-0.09388590791434392
72.156,0.20338589060174916,-0.20338589060174916
72.15700000000001,0.30855142996556584,-0.30855142996556584
72.158,0.3895319481482794,-0.3895319481482794
72.159,0.4330399934984682,-0.4330399934984682
72.16000000000001,0.43493866991677177,-0.43493866991677177
72.161,0.4002108832018423,-0.4002108832018423
72.162,0.340624590052546,-0.340624590052546
72.16300000000001,0.2710686481872041,-0.2710686481872041
72.164,0.20580237445441052,-0.20580237445441052
72.165,0.1556812760061166,-0.1556812760061166
72.16600000000001,0.12690151975028496,-0.12690151975028496
72.167,0.12117431295508552,-0.12117431295508552
72.168,0.13675190714368346,-0.13675190714368346
72.16900000000001,0.16955921891086456,-0.16955921891086456
72.17,0.21387719434726216,-0.21387719434726216
72.171,0.2624615568700227,-0.2624615568700227
72.17200000000001,0.306446598848663,-0.306446598848663
72.173,0.3356503053567572,-0.3356503053567572
72.174,0.3398219071988594,-0.3398219071988594
72.17500000000001,0.310962156731452,-0.310962156731452
72.176,0.24625887582223305,-0.24625887582223305
72.177,0.1506680873930044,-0.1506680873930044
72.17800000000001,0.03798063477496472,-0.03798063477496472
72.179,0.07051713376449431,0.07051713376449431
72.18,0.1499894458777311,0.1499894458777311
72.18100000000001,0.17790401229325892,0.17790401229325892
72.182,0.14029879763682707,0.14029879763682707
72.183,0.0365944302865755,0.0365944302865755
72.18400000000001,0.11868981624029584,-0.11868981624029584
72.185,0.29815172566181825,-0.29815172566181825
72.186,0.46733280740557415,-0.46733280740557415
72.18700000000001,0.5927011248325953,-0.5927011248325953
72.188,0.6496081154139738,-0.6496081154139738
72.18900000000001,0.6279788824333545,-0.6279788824333545
72.19000000000001,0.5341482242163844,-0.5341482242163844
72.191,0.38841847105749605,-0.38841847105749605
72.19200000000001,0.2192112550578852,-0.2192112550578852
72.19300000000001,0.055684843298491216,-0.055684843298491216
72.194,0.0789383634464853,0.0789383634464853
72.19500000000001,0.17145821478023482,0.17145821478023482
72.19600000000001,0.21929040395060873,0.21929040395060873
72.197,0.2278828414102818,0.2278828414102818
72.19800000000001,0.20631449181082373,0.20631449181082373
72.19900000000001,0.162941180522032,0.162941180522032
72.2,0.10275573188748388,0.10275573188748388
72.20100000000001,0.027323690147919022,0.027323690147919022
72.20200000000001,0.06294567868967904,-0.06294567868967904
72.203,0.1654115066437576,-0.1654115066437576
72.20400000000001,0.27239903742945226,-0.27239903742945226
72.20500000000001,0.3704896103979912,-0.3704896103979912
72.206,0.44260216967735266,-0.44260216967735266
72.20700000000001,0.4724453165248722,-0.4724453165248722
72.20800000000001,0.44990686642286637,-0.44990686642286637
72.209,0.3754328927374968,-0.3754328927374968
72.21000000000001,0.2616429716128944,-0.2616429716128944
72.21100000000001,0.13128790029787962,-0.13128790029787962
72.212,0.011890036527412495,-0.011890036527412495
72.21300000000001,0.07141986873582429,0.07141986873582429
72.21400000000001,0.1026650122456112,0.1026650122456112
72.215,0.07923116890204507,0.07923116890204507
72.21600000000001,0.01216082880133218,0.01216082880133218
72.21700000000001,0.07755914604644332,-0.07755914604644332
72.218,0.16549799652494113,-0.16549799652494113
72.21900000000001,0.23095236476191827,-0.23095236476191827
72.22000000000001,0.26249367326314055,-0.26249367326314055
72.221,0.26019824263798763,-0.26019824263798763
72.22200000000001,0.23403142645054653,-0.23403142645054653
72.22300000000001,0.19917344313415608,-0.19917344313415608
72.224,0.170082103241726,-0.170082103241726
72.22500000000001,0.15543987913041957,-0.15543987913041957
72.22600000000001,0.15571950953120017,-0.15571950953120017
72.227,0.16408635081415024,-0.16408635081415024
72.22800000000001,0.17011190923113484,-0.17011190923113484
72.229,0.16475233203245454,-0.16475233203245454
72.23,0.1446128359582538,-0.1446128359582538
72.23100000000001,0.11382278026177395,-0.11382278026177395
72.232,0.08276765175406653,-0.08276765175406653
72.233,0.06412257747390593,-0.06412257747390593
72.23400000000001,0.06766811606676815,-0.06766811606676815
72.235,0.0958645464849257,-0.0958645464849257
72.236,0.1419333108525902,-0.1419333108525902
72.23700000000001,0.19132172509664536,-0.19132172509664536
72.238,0.22621879687053303,-0.22621879687053303
72.239,0.23167509604229497,-0.23167509604229497
72.24000000000001,0.20125416013018171,-0.20125416013018171
72.241,0.1402302205805579,-0.1402302205805579
72.242,0.06512064972108389,-0.06512064972108389
72.24300000000001,0.00046298534503819155,0.00046298534503819155
72.244,0.03245142907291054,0.03245142907291054
72.245,0.013430775051053612,0.013430775051053612
72.24600000000001,0.06193647774219058,-0.06193647774219058
72.247,0.18480987251479553,-0.18480987251479553
72.248,0.33397300485779857,-0.33397300485779857
72.24900000000001,0.4809333767722027,-0.4809333767722027
72.25,0.5967676513922928,-0.5967676513922928
72.251,0.658745709767331,-0.658745709767331
72.25200000000001,0.6549824727196429,-0.6549824727196429
72.253,0.5860949772296788,-0.5860949772296788
72.254,0.4638064973081454,-0.4638064973081454
72.25500000000001,0.30730764996609783,-0.30730764996609783
72.256,0.13868751551841307,-0.13868751551841307
72.257,0.0212326936849756,0.0212326936849756
72.25800000000001,0.1557352828477998,0.1557352828477998
72.259,0.25341115998812325,0.25341115998812325
72.26,0.3080314720096917,0.3080314720096917
72.26100000000001,0.31773691647790914,0.31773691647790914
72.262,0.28421280642202373,0.28421280642202373
72.263,0.21224561047893964,0.21224561047893964
72.26400000000001,0.10965288522737593,0.10965288522737593
72.265,0.012760644516841002,-0.012760644516841002
72.266,0.14169017834967956,-0.14169017834967956
72.26700000000001,0.26258615409290664,-0.26258615409290664
72.268,0.36166112246973103,-0.36166112246973103
72.269,0.42824615129522936,-0.42824615129522936
72.27000000000001,0.4568379464196275,-0.4568379464196275
72.271,0.44816863534127405,-0.44816863534127405
72.272,0.4088857500947469,-0.4088857500947469
72.27300000000001,0.34985971874577804,-0.34985971874577804
72.274,0.2835787802642902,-0.2835787802642902
72.275,0.22137955248341912,-0.22137955248341912
72.27600000000001,0.17128877204239135,-0.17128877204239135
72.277,0.1370126928207943,-0.1370126928207943
72.278,0.11820154214496836,-0.11820154214496836
72.27900000000001,0.11169508773152592,-0.11169508773152592
72.28,0.11317764104876804,-0.11317764104876804
72.281,0.11862958970667459,-0.11862958970667459
72.28200000000001,0.1251533398526662,-0.1251533398526662
72.283,0.13107818635683055,-0.13107818635683055
72.284,0.13556583111281595,-0.13556583111281595
72.28500000000001,0.13811322658682945,-0.13811322658682945
72.286,0.13831688162808964,-0.13831688162808964
72.287,0.13605099161968626,-0.13605099161968626
72.28800000000001,0.13192873325708843,-0.13192873325708843
72.289,0.12770175632309055,-0.12770175632309055
72.29,0.1262173972715902,-0.1262173972715902
72.29100000000001,0.13072664868732842,-0.13072664868732842
72.292,0.14365208610026348,-0.14365208610026348
72.293,0.16524546834576637,-0.16524546834576637
72.29400000000001,0.19273631183866746,-0.19273631183866746
72.295,0.22049376571495005,-0.22049376571495005
72.296,0.24139327295658075,-0.24139327295658075
72.29700000000001,0.24910519213086513,-0.24910519213086513
72.298,0.24058687714245297,-0.24058687714245297
72.299,0.2178492020256796,-0.2178492020256796
72.30000000000001,0.18819787151159217,-0.18819787151159217
72.301,0.1626091085370185,-0.1626091085370185
72.302,0.15254706765862913,-0.15254706765862913
72.30300000000001,0.1661385786224988,-0.1661385786224988
72.304,0.2049567289026909,-0.2049567289026909
72.305,0.26257962700846826,-0.26257962700846826
72.30600000000001,0.32558196953315144,-0.32558196953315144
72.307,0.37683854526836447,-0.37683854526836447
72.308,0.400232171447952,-0.400232171447952
72.30900000000001,0.3853420784758035,-0.3853420784758035
72.31,0.33063609800597615,-0.33063609800597615
72.311,0.24413623904484016,-0.24413623904484016
72.31200000000001,0.1413308383716867,-0.1413308383716867
72.313,0.04099564902189068,-0.04099564902189068
72.31400000000001,0.03974587867696444,0.03974587867696444
72.31500000000001,0.08957816039615962,0.08957816039615962
72.316,0.10513081380545963,0.10513081380545963
72.31700000000001,0.09058577442487525,0.09058577442487525
72.31800000000001,0.05511493404941814,0.05511493404941814
72.319,0.00922031832616188,0.00922031832616188
72.32000000000001,0.038651194734258265,-0.038651194734258265
72.32100000000001,0.08405428434527151,-0.08405428434527151
72.322,0.12651217307688423,-0.12651217307688423
72.32300000000001,0.16775942444236402,-0.16775942444236402
72.32400000000001,0.20917916794694702,-0.20917916794694702
72.325,0.24963437690249046,-0.24963437690249046
72.32600000000001,0.2846901361749633,-0.2846901361749633
72.32700000000001,0.30762277120483617,-0.30762277120483617
72.328,0.31185138445719796,-0.31185138445719796
72.32900000000001,0.2938090303935029,-0.2938090303935029
72.33000000000001,0.25504189385656306,-0.25504189385656306
72.331,0.20258275999615227,-0.20258275999615227
72.33200000000001,0.14729748138927956,-0.14729748138927956
72.33300000000001,0.10070115096871524,-0.10070115096871524
72.334,0.07137268632320104,-0.07137268632320104
72.33500000000001,0.06230801182640766,-0.06230801182640766
72.33600000000001,0.07024566335095683,-0.07024566335095683
72.337,0.08727597597198478,-0.08727597597198478
72.33800000000001,0.10417256027934152,-0.10417256027934152
72.33900000000001,0.1141958834017679,-0.1141958834017679
72.34,0.1158873299413421,-0.1158873299413421
72.34100000000001,0.11370556142711918,-0.11370556142711918
72.34200000000001,0.11614987840873514,-0.11614987840873514
72.343,0.13198256397085728,-0.13198256397085728
72.34400000000001,0.16594157050277936,-0.16594157050277936
72.34500000000001,0.21562147159906553,-0.21562147159906553
72.346,0.2708636422077998,-0.2708636422077998
72.34700000000001,0.3161345314130739,-0.3161345314130739
72.34800000000001,0.3352818182814339,-0.3352818182814339
72.349,0.3171356162917073,-0.3171356162917073
72.35000000000001,0.2600117572805991,-0.2600117572805991
72.35100000000001,0.17344647270838776,-0.17344647270838776
72.352,0.07637336328102451,-0.07637336328102451
72.35300000000001,0.007851116521343071,0.007851116521343071
72.354,0.05807397071306952,0.05807397071306952
72.355,0.0615205063134876,0.0615205063134876
72.35600000000001,0.017521244600106733,0.017521244600106733
72.357,0.06241645330968193,-0.06241645330968193
72.358,0.15819675564123337,-0.15819675564123337
72.35900000000001,0.24718729965411745,-0.24718729965411745
72.36,0.3107526638550143,-0.3107526638550143
72.361,0.3391832837928843,-0.3391832837928843
72.36200000000001,0.3335358471119174,-0.3335358471119174
72.363,0.3039863259033223,-0.3039863259033223
72.364,0.26547654260578857,-0.26547654260578857
72.36500000000001,0.23229690907902323,-0.23229690907902323
72.366,0.21350259788265846,-0.21350259788265846
72.367,0.21064298950455052,-0.21064298950455052
72.36800000000001,0.2183718277474963,-0.2183718277474963
72.369,0.22744658501226067,-0.22744658501226067
72.37,0.2288084934319503,-0.2288084934319503
72.37100000000001,0.2171447170801093,-0.2171447170801093
72.372,0.19265140759351573,-0.19265140759351573
72.373,0.1604926426130565,-0.1604926426130565
72.37400000000001,0.1283709971319349,-0.1283709971319349
72.375,0.10333309750990549,-0.10333309750990549
72.376,0.08916388843328893,-0.08916388843328893
72.37700000000001,0.08540456367439098,-0.08540456367439098
72.378,0.08830490724430295,-0.08830490724430295
72.379,0.09319105725807875,-0.09319105725807875
72.38000000000001,0.09713148309996988,-0.09713148309996988
72.381,0.10065903830013323,-0.10065903830013323
72.382,0.10770705039957118,-0.10770705039957118
72.38300000000001,0.12368355844591328,-0.12368355844591328
72.384,0.15243184674664523,-0.15243184674664523
72.385,0.1933702300429001,-0.1933702300429001
72.38600000000001,0.24013632710326338,-0.24013632710326338
72.387,0.2815454333698678,-0.2815454333698678
72.388,0.3047901690454732,-0.3047901690454732
72.38900000000001,0.2998918022014354,-0.2998918022014354
72.39,0.263821347459707,-0.263821347459707
72.391,0.20268799935523618,-0.20268799935523618
72.39200000000001,0.13098117007185694,-0.13098117007185694
72.393,0.0678576239552432,-0.0678576239552432
72.394,0.03153042320543786,-0.03153042320543786
72.39500000000001,0.03355101836731611,-0.03355101836731611
72.396,0.07490016178059855,-0.07490016178059855
72.397,0.14525474581337317,-0.14525474581337317
72.39800000000001,0.2257574739396817,-0.2257574739396817
72.399,0.2944465044726613,-0.2944465044726613
72.4,0.3326149900560249,-0.3326149900560249
72.40100000000001,0.33007795404601104,-0.33007795404601104
72.402,0.28772464726831815,-0.28772464726831815
72.403,0.21667791232476652,-0.21667791232476652
72.40400000000001,0.13452519194208934,-0.13452519194208934
72.405,0.060020390204093665,-0.060020390204093665
72.406,0.008058569868031773,-0.008058569868031773
72.40700000000001,0.013524468266824297,0.013524468266824297
72.408,0.004556197491485836,0.004556197491485836
72.409,0.029239881293462666,-0.029239881293462666
72.41000000000001,0.07932900579656399,-0.07932900579656399
72.411,0.13735985703148723,-0.13735985703148723
72.412,0.19689547932016982,-0.19689547932016982
72.41300000000001,0.25340694980686707,-0.25340694980686707
72.414,0.3029179160661233,-0.3029179160661233
72.415,0.3403443040424896,-0.3403443040424896
72.41600000000001,0.35874257565672363,-0.35874257565672363
72.417,0.3502795119938744,-0.3502795119938744
72.418,0.30892047338920436,-0.30892047338920436
72.41900000000001,0.2339353257218939,-0.2339353257218939
72.42,0.1327264132045024,-0.1327264132045024
72.421,0.021473150252401263,-0.021473150252401263
72.42200000000001,0.07727601579976562,0.07727601579976562
72.423,0.13984759966801907,0.13984759966801907
72.424,0.14816126044898836,0.14816126044898836
72.42500000000001,0.09579970860951481,0.09579970860951481
72.426,0.008740155505240876,-0.008740155505240876
72.427,0.14304001007190914,-0.14304001007190914
72.42800000000001,0.2760945266792654,-0.2760945266792654
72.429,0.3766159057658801,-0.3766159057658801
72.43,0.4218436093070186,-0.4218436093070186
72.43100000000001,0.40408596719985024,-0.40408596719985024
72.432,0.3328440702457671,-0.3328440702457671
72.433,0.2317461930180995,-0.2317461930180995
72.43400000000001,0.1312023945487818,-0.1312023945487818
72.435,0.059103393678977656,-0.059103393678977656
72.436,0.032544106189356325,-0.032544106189356325
72.43700000000001,0.05321372931557544,-0.05321372931557544
72.438,0.10786659122539666,-0.10786659122539666
72.43900000000001,0.173586396436046,-0.173586396436046
72.44000000000001,0.2259630897378715,-0.2259630897378715
72.441,0.2473622677943077,-0.2473622677943077
72.44200000000001,0.23250034919935847,-0.23250034919935847
72.44300000000001,0.18952407701517537,-0.18952407701517537
72.444,0.1363790954476224,-0.1363790954476224
72.44500000000001,0.09388213564097181,-0.09388213564097181
72.44600000000001,0.07801863222806416,-0.07801863222806416
72.447,0.09419602543510375,-0.09419602543510375
72.44800000000001,0.13543596210253184,-0.13543596210253184
72.44900000000001,0.18506477505584884,-0.18506477505584884
72.45,0.22287185200955772,-0.22287185200955772
72.45100000000001,0.232509110454031,-0.232509110454031
72.45200000000001,0.2075116644853111,-0.2075116644853111
72.453,0.15384899001963515,-0.15384899001963515
72.45400000000001,0.08816019056536661,-0.08816019056536661
72.45500000000001,0.03233360367342364,-0.03233360367342364
72.456,0.006327854198269645,-0.006327854198269645
72.45700000000001,0.02167708593967388,-0.02167708593967388
72.45800000000001,0.07781213646875462,-0.07781213646875462
72.459,0.16230264259222094,-0.16230264259222094
72.46000000000001,0.2547686938143132,-0.2547686938143132
72.46100000000001,0.3330100363464129,-0.3330100363464129
72.462,0.3792639190096765,-0.3792639190096765
72.46300000000001,0.3846180094867925,-0.3846180094867925
72.46400000000001,0.3503843030071838,-0.3503843030071838
72.465,0.2863641526363728,-0.2863641526363728
72.46600000000001,0.20698011712623088,-0.20698011712623088
72.46700000000001,0.12684968521570772,-0.12684968521570772
72.468,0.05734914239398359,-0.05734914239398359
72.46900000000001,0.005126720021823128,-0.005126720021823128
72.47000000000001,0.027357170994385616,0.027357170994385616
72.471,0.03999537105220963,0.03999537105220963
72.47200000000001,0.03306536115518899,0.03306536115518899
72.47300000000001,0.006188158319685222,0.006188158319685222
72.474,0.04127482411102679,-0.04127482411102679
72.47500000000001,0.10862669689856819,-0.10862669689856819
72.47600000000001,0.19190537217899495,-0.19190537217899495
72.477,0.2827150911716997,-0.2827150911716997
72.47800000000001,0.3686568371414486,-0.3686568371414486
72.479,0.4355512135143267,-0.4355512135143267
72.48,0.4708820532447767,-0.4708820532447767
72.48100000000001,0.46731914307893585,-0.46731914307893585
72.482,0.42504481784450243,-0.42504481784450243
72.483,0.35197916874273383,-0.35197916874273383
72.48400000000001,0.26173762212008134,-0.26173762212008134
72.485,0.16997810614926845,-0.16997810614926845
72.486,0.09038048344040517,-0.09038048344040517
72.48700000000001,0.03161618237704622,-0.03161618237704622
72.488,0.003737493446066109,0.003737493446066109
72.489,0.018149409111350323,0.018149409111350323
72.49000000000001,0.01658962800865349,0.01658962800865349
72.491,0.0036809002719677686,0.0036809002719677686
72.492,0.018196630846936013,-0.018196630846936013
72.49300000000001,0.049049990961141154,-0.049049990961141154
72.494,0.08966912023918305,-0.08966912023918305
72.495,0.13909009481277634,-0.13909009481277634
72.49600000000001,0.1924304734791612,-0.1924304734791612
72.497,0.24034405255339364,-0.24034405255339364
72.498,0.2707336918347797,-0.2707336918347797
72.49900000000001,0.2724205036406451,-0.2724205036406451
72.5,0.2395620430229749,-0.2395620430229749
72.501,0.1751153627640274,-0.1751153627640274
72.50200000000001,0.09178669256292726,-0.09178669256292726
72.503,0.009692097572251868,-0.009692097572251868
72.504,0.04888324030179714,0.04888324030179714
72.50500000000001,0.06611536285720088,0.06611536285720088
72.506,0.03449544865055687,0.03449544865055687
72.507,0.04016564953246138,-0.04016564953246138
72.50800000000001,0.139802682531466,-0.139802682531466
72.509,0.2391097798139793,-0.2391097798139793
72.51,0.31301384397643905,-0.31301384397643905
72.51100000000001,0.3442176398443175,-0.3442176398443175
72.512,0.32832857141213934,-0.32832857141213934
72.513,0.27486058272213665,-0.27486058272213665
72.51400000000001,0.20378070493574751,-0.20378070493574751
72.515,0.13878865510320815,-0.13878865510320815
72.516,0.0996306669840682,-0.0996306669840682
72.51700000000001,0.09605781640696509,-0.09605781640696509
72.518,0.12542981988503854,-0.12542981988503854
72.519,0.17465340692453157,-0.17465340692453157
72.52000000000001,0.2256011403990229,-0.2256011403990229
72.521,0.261939077445015,-0.261939077445015
72.522,0.2748398187951351,-0.2748398187951351
72.52300000000001,0.26553199437387787,-0.26553199437387787
72.524,0.2438589365711351,-0.2438589365711351
72.525,0.22353340293664514,-0.22353340293664514
72.52600000000001,0.21601789759650858,-0.21601789759650858
72.527,0.2254669588975753,-0.2254669588975753
72.528,0.2467470342644773,-0.2467470342644773
72.52900000000001,0.2673559046752283,-0.2673559046752283
72.53,0.27254343843008644,-0.27254343843008644
72.531,0.25166289613133985,-0.25166289613133985
72.53200000000001,0.20324536813272587,-0.20324536813272587
72.533,0.13670729195013598,-0.13670729195013598
72.534,0.06983423825114488,-0.06983423825114488
72.53500000000001,0.022784644373446628,-0.022784644373446628
72.536,0.010728187524611466,-0.010728187524611466
72.537,0.03785062083840052,-0.03785062083840052
72.53800000000001,0.09506547982078128,-0.09506547982078128
72.539,0.16248889626908103,-0.16248889626908103
72.54,0.21600811773331885,-0.21600811773331885
72.54100000000001,0.2357340198001019,-0.2357340198001019
72.542,0.2133472551782647,-0.2133472551782647
72.543,0.15563563935968872,-0.15563563935968872
72.54400000000001,0.08280123182947063,-0.08280123182947063
72.545,0.021948894780176698,-0.021948894780176698
72.546,0.0020973978177432073,0.0020973978177432073
72.54700000000001,0.02450282661073444,-0.02450282661073444
72.548,0.09944098536110568,-0.09944098536110568
72.549,0.20450055562423586,-0.20450055562423586
72.55000000000001,0.31120681616910806,-0.31120681616910806
72.551,0.38999604159695667,-0.38999604159695667
72.552,0.41977374175038806,-0.41977374175038806
72.55300000000001,0.39458673113144505,-0.39458673113144505
72.554,0.32514259946941826,-0.32514259946941826
72.555,0.23471726769393064,-0.23471726769393064
72.55600000000001,0.1509547185349287,-0.1509547185349287
72.557,0.09648367310304784,-0.09648367310304784
72.558,0.08164920603107184,-0.08164920603107184
72.55900000000001,0.10185447334064424,-0.10185447334064424
72.56,0.1403228983708077,-0.1403228983708077
72.561,0.17513479765103745,-0.17513479765103745
72.56200000000001,0.18787080644112109,-0.18787080644112109
72.563,0.17065427831025093,-0.17065427831025093
72.56400000000001,0.12901560426552405,-0.12901560426552405
72.56500000000001,0.07956736440368317,-0.07956736440368317
72.566,0.043405534923598,-0.043405534923598
72.56700000000001,0.037733951877447436,-0.037733951877447436
72.56800000000001,0.0688687995367454,-0.0688687995367454
72.569,0.12927595804101344,-0.12927595804101344
72.57000000000001,0.1998103906443447,-0.1998103906443447
72.57100000000001,0.2564053235432726,-0.2564053235432726
72.572,0.2788027458522778,-0.2788027458522778
72.57300000000001,0.25813372181875616,-0.25813372181875616
72.57400000000001,0.20053833200437743,-0.20053833200437743
72.575,0.12542817638745707,-0.12542817638745707
72.57600000000001,0.05893001427026168,-0.05893001427026168
72.57700000000001,0.02480547310781278,-0.02480547310781278
72.578,0.0360790589455946,-0.0360790589455946
72.57900000000001,0.09037988332681313,-0.09037988332681313
72.58000000000001,0.1706874910621119,-0.1706874910621119
72.581,0.2512396467346637,-0.2512396467346637
72.58200000000001,0.30650608545242375,-0.30650608545242375
72.58300000000001,0.32002724203303645,-0.32002724203303645
72.584,0.2899624430929768,-0.2899624430929768
72.58500000000001,0.22937502799336085,-0.22937502799336085
72.58600000000001,0.16117845458218039,-0.16117845458218039
72.587,0.10959485604482033,-0.10959485604482033
72.58800000000001,0.09123988749301559,-0.09123988749301559
72.58900000000001,0.10908709079547496,-0.10908709079547496
72.59,0.15152706587993803,-0.15152706587993803
72.59100000000001,0.19689134454058488,-0.19689134454058488
72.59200000000001,0.22182016020215467,-0.22182016020215467
72.593,0.2104344772223391,-0.2104344772223391
72.59400000000001,0.16094054869347418,-0.16094054869347418
72.59500000000001,0.08717723306557634,-0.08717723306557634
72.596,0.014405348449041067,-0.014405348449041067
72.59700000000001,0.029298371123081646,0.029298371123081646
72.59800000000001,0.02307659790109673,0.02307659790109673
72.599,0.038779735513099656,-0.038779735513099656
72.60000000000001,0.14387018941055518,-0.14387018941055518
72.60100000000001,0.26486204496065846,-0.26486204496065846
72.602,0.367858013750082,-0.367858013750082
72.60300000000001,0.423197833224918,-0.423197833224918
72.604,0.415069886368717,-0.415069886368717
72.605,0.34668575037843463,-0.34668575037843463
72.60600000000001,0.23926131743645052,-0.23926131743645052
72.607,0.12513761009666868,-0.12513761009666868
72.608,0.03734374374114979,-0.03734374374114979
72.60900000000001,0.0009182718098463827,0.0009182718098463827
72.61,0.016604438894055162,-0.016604438894055162
72.611,0.07778106749667357,-0.07778106749667357
72.61200000000001,0.15671426210314743,-0.15671426210314743
72.613,0.2227550589741345,-0.2227550589741345
72.614,0.25083786436084443,-0.25083786436084443
72.61500000000001,0.22969424671562233,-0.22969424671562233
72.616,0.16529714118255645,-0.16529714118255645
72.617,0.07853894859641741,-0.07853894859641741
72.61800000000001,0.0019206216304725743,0.0019206216304725743
72.619,0.049143124876874555,0.049143124876874555
72.62,0.046565541281599065,0.046565541281599065
72.62100000000001,0.006954780643642411,-0.006954780643642411
72.622,0.09718580842448477,-0.09718580842448477
72.623,0.1994168124119703,-0.1994168124119703
72.62400000000001,0.2864054375520094,-0.2864054375520094
72.625,0.3366886289165414,-0.3366886289165414
72.626,0.3406104141285412,-0.3406104141285412
72.62700000000001,0.30232083459736325,-0.30232083459736325
72.628,0.23741145447745093,-0.23741145447745093
72.629,0.16727387343439004,-0.16727387343439004
72.63000000000001,0.11222805549401138,-0.11222805549401138
72.631,0.08568359864161412,-0.08568359864161412
72.632,0.09105636614365042,-0.09105636614365042
72.63300000000001,0.1221079022849525,-0.1221079022849525
72.634,0.16620232134669077,-0.16620232134669077
72.635,0.209087654567212,-0.209087654567212
72.63600000000001,0.23947616651377612,-0.23947616651377612
72.637,0.2519766246307601,-0.2519766246307601
72.638,0.24766173527180113,-0.24766173527180113
72.63900000000001,0.23243692861275778,-0.23243692861275778
72.64,0.21409155075289488,-0.21409155075289488
72.641,0.19923299392070615,-0.19923299392070615
72.64200000000001,0.19116595574046313,-0.19116595574046313
72.643,0.1892905761709459,-0.1892905761709459
72.644,0.18997526178865054,-0.18997526178865054
72.64500000000001,0.1883528852015005,-0.1883528852015005
72.646,0.18026143660006388,-0.18026143660006388
72.647,0.16364392532118655,-0.16364392532118655
72.64800000000001,0.13905106143989332,-0.13905106143989332
72.649,0.10928811080394985,-0.10928811080394985
72.65,0.07854412583882964,-0.07854412583882964
72.65100000000001,0.05143291355858315,-0.05143291355858315
72.652,0.03225835016017198,-0.03225835016017198
72.653,0.02458288297233102,-0.02458288297233102
72.65400000000001,0.03096285918969799,-0.03096285918969799
72.655,0.052632723651226176,-0.052632723651226176
72.656,0.0890132725565651,-0.0890132725565651
72.65700000000001,0.13713565291701346,-0.13713565291701346
72.658,0.19129258826086137,-0.19129258826086137
72.659,0.24331851538566818,-0.24331851538566818
72.66000000000001,0.2837790603109507,-0.2837790603109507
72.661,0.3040305647050039,-0.3040305647050039
72.662,0.29870399826630645,-0.29870399826630645
72.66300000000001,0.2678453966139305,-0.2678453966139305
72.664,0.2178678644542611,-0.2178678644542611
72.665,0.16071833321640916,-0.16071833321640916
72.66600000000001,0.11119176259205488,-0.11119176259205488
72.667,0.0829723511549425,-0.0829723511549425
72.668,0.08451443862504504,-0.08451443862504504
72.66900000000001,0.11608094181639306,-0.11608094181639306
72.67,0.16902133572094125,-0.16902133572094125
72.671,0.22773415334523983,-0.22773415334523983
72.67200000000001,0.2739105882997078,-0.2739105882997078
72.673,0.2918767784296936,-0.2918767784296936
72.674,0.27341793800750014,-0.27341793800750014
72.67500000000001,0.22054780539397323,-0.22054780539397323
72.676,0.14528074721026185,-0.14528074721026185
72.677,0.06639173742254778,-0.06639173742254778
72.67800000000001,0.004109806912379166,-0.004109806912379166
72.679,0.025638222160039303,0.025638222160039303
72.68,0.015664964967670558,0.015664964967670558
72.68100000000001,0.030704009980668134,-0.030704009980668134
72.682,0.10100386814257256,-0.10100386814257256
72.683,0.17762497178441516,-0.17762497178441516
72.68400000000001,0.2430818777305861,-0.2430818777305861
72.685,0.28485303738613965,-0.28485303738613965
72.686,0.298303406782062,-0.298303406782062
72.68700000000001,0.286905084963196,-0.286905084963196
72.688,0.2599082033109371,-0.2599082033109371
72.68900000000001,0.22845733691802028,-0.22845733691802028
72.69000000000001,0.2016099600051956,-0.2016099600051956
72.691,0.18364609738776716,-0.18364609738776716
72.69200000000001,0.17350557850768777,-0.17350557850768777
72.69300000000001,0.16636535953249187,-0.16636535953249187
72.694,0.15657950753938898,-0.15657950753938898
72.69500000000001,0.14073371667182955,-0.14073371667182955
72.69600000000001,0.11957717943934376,-0.11957717943934376
72.697,0.09807056921166124,-0.09807056921166124
72.69800000000001,0.08354284496240816,-0.08354284496240816
72.69900000000001,0.08269504579962061,-0.08269504579962061
72.7,0.09864632055016076,-0.09864632055016076
72.70100000000001,0.12921572286503846,-0.12921572286503846
72.70200000000001,0.16717390493129258,-0.16717390493129258
72.703,0.20245331946951683,-0.20245331946951683
72.70400000000001,0.22555236121088995,-0.22555236121088995
72.70500000000001,0.23089080755428615,-0.23089080755428615
72.706,0.21885377846553822,-0.21885377846553822
72.70700000000001,0.19571426158574567,-0.19571426158574567
72.70800000000001,0.17139052748639994,-0.17139052748639994
72.709,0.15579733893899195,-0.15579733893899195
72.71000000000001,0.15509402661886074,-0.15509402661886074
72.71100000000001,0.16921315394987924,-0.16921315394987924
72.712,0.1916306589123462,-0.1916306589123462
72.71300000000001,0.21155375670821586,-0.21155375670821586
72.71400000000001,0.21783122270306854,-0.21783122270306854
72.715,0.20324284990030106,-0.20324284990030106
72.71600000000001,0.16763741461508364,-0.16763741461508364
72.71700000000001,0.11873851637067301,-0.11873851637067301
72.718,0.07021372269990911,-0.07021372269990911
72.71900000000001,0.03754167055464719,-0.03754167055464719
72.72000000000001,0.03299050102063472,-0.03299050102063472
72.721,0.06136718888342263,-0.06136718888342263
72.72200000000001,0.1179853597115531,-0.1179853597115531
72.72300000000001,0.1895940748501448,-0.1895940748501448
72.724,0.2580457253548747,-0.2580457253548747
72.72500000000001,0.3055805256350047,-0.3055805256350047
72.72600000000001,0.32006982187042565,-0.32006982187042565
72.727,0.29856857260106406,-0.29856857260106406
72.72800000000001,0.2480738249145007,-0.2480738249145007
72.729,0.1832859286087175,-0.1832859286087175
72.73,0.12212227185668911,-0.12212227185668911
72.73100000000001,0.08042618778705535,-0.08042618778705535
72.732,0.06752528857450402,-0.06752528857450402
72.733,0.0839670410867901,-0.0839670410867901
72.73400000000001,0.12201757774405386,-0.12201757774405386
72.735,0.1686090327068831,-0.1686090327068831
72.736,0.20966188438809286,-0.20966188438809286
72.73700000000001,0.23433495532988802,-0.23433495532988802
72.738,0.23787275661050689,-0.23787275661050689
72.739,0.22226574635195329,-0.22226574635195329
72.74000000000001,0.19471092938880974,-0.19471092938880974
72.741,0.16458817011752913,-0.16458817011752913
72.742,0.14010871388797452,-0.14010871388797452
72.74300000000001,0.12581224255943024,-0.12581224255943024
72.744,0.12170281800042937,-0.12170281800042937
72.745,0.1241764651326781,-0.1241764651326781
72.74600000000001,0.12823830758535526,-0.12823830758535526
72.747,0.13006571409130718,-0.13006571409130718
72.748,0.12889288821252198,-0.12889288821252198
72.74900000000001,0.12748697321243374,-0.12748697321243374
72.75,0.1310384645421402,-0.1310384645421402
72.751,0.14489426151378526,-0.14489426151378526
72.75200000000001,0.17200142793101791,-0.17200142793101791
72.753,0.21104864950188962,-0.21104864950188962
72.754,0.2560519171025222,-0.2560519171025222
72.75500000000001,0.29762010580716136,-0.29762010580716136
72.756,0.3255378294521527,-0.3255378294521527
72.757,0.3318286822303832,-0.3318286822303832
72.75800000000001,0.3132775502233065,-0.3132775502233065
72.759,0.27255932776643277,-0.27255932776643277
72.76,0.21758330273987414,-0.21758330273987414
72.76100000000001,0.15925718169787573,-0.15925718169787573
72.762,0.10839768392382032,-0.10839768392382032
72.763,0.07278818919108354,-0.07278818919108354
72.76400000000001,0.055317856238662144,-0.055317856238662144
72.765,0.05375781229641663,-0.05375781229641663
72.766,0.06217156596976814,-0.06217156596976814
72.76700000000001,0.07341109214133157,-0.07341109214133157
72.768,0.0818022153828194,-0.0818022153828194
72.769,0.08508784378645329,-0.08508784378645329
72.77000000000001,0.0849817179450938,-0.0849817179450938
72.771,0.08618598719647652,-0.08618598719647652
72.772,0.09426786927477182,-0.09426786927477182
72.77300000000001,0.11318682455574114,-0.11318682455574114
72.774,0.1433792318390339,-0.1433792318390339
72.775,0.18110538516130614,-0.18110538516130614
72.77600000000001,0.2193161464763207,-0.2193161464763207
72.777,0.2497600504300096,-0.2497600504300096
72.778,0.26561216542703614,-0.26561216542703614
72.77900000000001,0.2637156757704283,-0.2637156757704283
72.78,0.24565214731688256,-0.24565214731688256
72.781,0.21725455343565458,-0.21725455343565458
72.78200000000001,0.18671219965231933,-0.18671219965231933
72.783,0.16190497019029304,-0.16190497019029304
72.784,0.14787713491979604,-0.14787713491979604
72.78500000000001,0.14532225365966067,-0.14532225365966067
72.786,0.15061027103538416,-0.15061027103538416
72.787,0.15735879190313007,-0.15735879190313007
72.78800000000001,0.1590116681705066,-0.1590116681705066
72.789,0.1515241244047445,-0.1515241244047445
72.79,0.13519271961144197,-0.13519271961144197
72.79100000000001,0.11493777371679159,-0.11493777371679159
72.792,0.09886136681291524,-0.09886136681291524
72.793,0.09549669127400795,-0.09549669127400795
72.79400000000001,0.11063588107785705,-0.11063588107785705
72.795,0.1448112569227158,-0.1448112569227158
72.796,0.19233803376583458,-0.19233803376583458
72.79700000000001,0.24235006381105872,-0.24235006381105872
72.798,0.28162271766349667,-0.28162271766349667
72.799,0.29838344771553604,-0.29838344771553604
72.80000000000001,0.2859558739799284,-0.2859558739799284
72.801,0.2450884835637318,-0.2450884835637318
72.802,0.1841909695670485,-0.1841909695670485
72.80300000000001,0.11732847795388346,-0.11732847795388346
72.804,0.06051167268060931,-0.06051167268060931
72.805,0.02735202263866987,-0.02735202263866987
72.80600000000001,0.025358164864977883,-0.025358164864977883
72.807,0.05396364978167356,-0.05396364978167356
72.808,0.10485549607206102,-0.10485549607206102
72.80900000000001,0.16447913871399478,-0.16447913871399478
72.81,0.21794484869607855,-0.21794484869607855
72.811,0.253154953658953,-0.253154953658953
72.81200000000001,0.26393302022120524,-0.26393302022120524
72.813,0.25127166351786123,-0.25127166351786123
72.81400000000001,0.2224136489183599,-0.2224136489183599
72.81500000000001,0.18814985616129332,-0.18814985616129332
72.816,0.1592474714741129,-0.1592474714741129
72.81700000000001,0.14315087986374375,-0.14315087986374375
72.81800000000001,0.141963208514016,-0.141963208514016
72.819,0.1522717357562432,-0.1522717357562432
72.82000000000001,0.1667753539952732,-0.1667753539952732
72.82100000000001,0.17710318001315173,-0.17710318001315173
72.822,0.17685900851317304,-0.17685900851317304
72.82300000000001,0.16389148214179639,-0.16389148214179639
72.82400000000001,0.14107444781549205,-0.14107444781549205
72.825,0.11538425801246088,-0.11538425801246088
72.82600000000001,0.09561337130623004,-0.09561337130623004
72.82700000000001,0.08948521695472089,-0.08948521695472089
72.828,0.10110365976209046,-0.10110365976209046
72.82900000000001,0.12953804576286188,-0.12953804576286188
72.83000000000001,0.16896535210085595,-0.16896535210085595
72.831,0.21029394414837776,-0.21029394414837776
72.83200000000001,0.24373972642612907,-0.24373972642612907
72.83300000000001,0.26155470439071715,-0.26155470439071715
72.834,0.2600953651970318,-0.2600953651970318
72.83500000000001,0.24065422152769533,-0.24065422152769533
72.83600000000001,0.2088756802790962,-0.2088756802790962
72.837,0.17300527879848693,-0.17300527879848693
72.83800000000001,0.14154662210219016,-0.14154662210219016
72.83900000000001,0.1210312791257302,-0.1210312791257302
72.84,0.11451840975550232,-0.11451840975550232
72.84100000000001,0.1211774630457968,-0.1211774630457968
72.84200000000001,0.13696339493666265,-0.13696339493666265
72.843,0.15608024335528303,-0.15608024335528303
72.84400000000001,0.1727365804881279,-0.1727365804881279
72.84500000000001,0.18267017708615785,-0.18267017708615785
72.846,0.18404858496748078,-0.18404858496748078
72.84700000000001,0.17758052896813514,-0.17758052896813514
72.84800000000001,0.16591995560022998,-0.16591995560022998
72.849,0.15263458168414856,-0.15263458168414856
72.85000000000001,0.14109528866394028,-0.14109528866394028
72.85100000000001,0.13361170964305746,-0.13361170964305746
72.852,0.13101897601417678,-0.13101897601417678
72.85300000000001,0.1327596264266263,-0.1327596264266263
72.854,0.1373561121273169,-0.1373561121273169
72.855,0.14307359811416098,-0.14307359811416098
72.85600000000001,0.1485479577685912,-0.1485479577685912
72.857,0.15319479172608996,-0.15319479172608996
72.858,0.15729988342232193,-0.15729988342232193
72.85900000000001,0.1617907778319213,-0.1617907778319213
72.86,0.16777671992224474,-0.16777671992224474
72.861,0.17600196365060117,-0.17600196365060117
72.86200000000001,0.18637720833324978,-0.18637720833324978
72.863,0.19773544890335215,-0.19773544890335215
72.864,0.20790704936680915,-0.20790704936680915
72.86500000000001,0.21413328350586336,-0.21413328350586336
72.866,0.21375043732378052,-0.21375043732378052
72.867,0.20499441199114343,-0.20499441199114343
72.86800000000001,0.18771854137724542,-0.18771854137724542
72.869,0.16380492345873376,-0.16380492345873376
72.87,0.1370955972161475,-0.1370955972161475
72.87100000000001,0.11277464146803884,-0.11277464146803884
72.872,0.09627773074620516,-0.09627773074620516
72.873,0.09195615162605997,-0.09195615162605997
72.87400000000001,0.1018319870167177,-0.1018319870167177
72.875,0.12480786245228548,-0.12480786245228548
72.876,0.15661515342017074,-0.15661515342017074
72.87700000000001,0.1906066700879595,-0.1906066700879595
72.878,0.21926518048089771,-0.21926518048089771
72.879,0.23607430686375763,-0.23607430686375763
72.88000000000001,0.23725579233554372,-0.23725579233554372
72.881,0.2228713094276783,-0.2228713094276783
72.882,0.19693365332032242,-0.19693365332032242
72.88300000000001,0.16643896292894356,-0.16643896292894356
72.884,0.13954420640609566,-0.13954420640609566
72.885,0.12337745618258056,-0.12337745618258056
72.88600000000001,0.12209670432796582,-0.12209670432796582
72.887,0.1357588633756912,-0.1357588633756912
72.888,0.1603333532688589,-0.1603333532688589
72.88900000000001,0.18885978801485392,-0.18885978801485392
72.89,0.21340930456078966,-0.21340930456078966
72.891,0.22727103246304137,-0.22727103246304137
72.89200000000001,0.22672525543919164,-0.22672525543919164
72.893,0.21190237871819595,-0.21190237871819595
72.894,0.18651722475091148,-0.18651722475091148
72.89500000000001,0.1566169425410021,-0.1566169425410021
72.896,0.12877494820240742,-0.12877494820240742
72.897,0.10830919287875862,-0.10830919287875862
72.89800000000001,0.09805776502932373,-0.09805776502932373
72.899,0.09803011110837989,-0.09803011110837989
72.9,0.10594602625912175,-0.10594602625912175
72.90100000000001,0.11838362742656172,-0.11838362742656172
72.902,0.13207966724247966,-0.13207966724247966
72.903,0.14491625830477806,-0.14491625830477806
72.90400000000001,0.15628216006862816,-0.15628216006862816
72.905,0.16675183365397006,-0.16675183365397006
72.906,0.17728556335456735,-0.17728556335456735
72.90700000000001,0.18832475305877316,-0.18832475305877316
72.908,0.19917911938963329,-0.19917911938963329
72.909,0.20797374346762543,-0.20797374346762543
72.91000000000001,0.21219608416612934,-0.21219608416612934
72.911,0.2096434070858565,-0.2096434070858565
72.912,0.1994092429861577,-0.1994092429861577
72.91300000000001,0.18252246318780807,-0.18252246318780807
72.914,0.16197180084752527,-0.16197180084752527
72.915,0.14206647976907438,-0.14206647976907438
72.91600000000001,0.12731922080150082,-0.12731922080150082
72.917,0.1212058200878654,-0.1212058200878654
72.918,0.1251970635800329,-0.1251970635800329
72.91900000000001,0.13836276765481592,-0.13836276765481592
72.92,0.15765302746664633,-0.15765302746664633
72.921,0.17874103543875153,-0.17874103543875153
72.92200000000001,0.1971436043207423,-0.1971436043207423
72.923,0.2092748677397105,-0.2092748677397105
72.924,0.21314800158491476,-0.21314800158491476
72.92500000000001,0.208586884825551,-0.208586884825551
72.926,0.1969823360274805,-0.1969823360274805
72.927,0.18075995311137238,-0.18075995311137238
72.92800000000001,0.16277484064071912,-0.16277484064071912
72.929,0.14580690184447065,-0.14580690184447065
72.93,0.13223090747310207,-0.13223090747310207
72.93100000000001,0.12383193852405272,-0.12383193852405272
72.932,0.12167971793262622,-0.12167971793262622
72.933,0.1259895992643606,-0.1259895992643606
72.93400000000001,0.13597131733339507,-0.13597131733339507
72.935,0.14975522556259324,-0.14975522556259324
72.936,0.16453446198278932,-0.16453446198278932
72.93700000000001,0.17703019249688656,-0.17703019249688656
72.938,0.18427207733343942,-0.18427207733343942
72.93900000000001,0.1845264784708066,-0.1845264784708066
72.94000000000001,0.178069956428202,-0.178069956428202
72.941,0.16746707482014345,-0.16746707482014345
72.94200000000001,0.15711146869702175,-0.15711146869702175
72.94300000000001,0.15201640802699945,-0.15201640802699945
72.944,0.15612772789629126,-0.15612772789629126
72.94500000000001,0.17067293501013758,-0.17067293501013758
72.94600000000001,0.19315101788174738,-0.19315101788174738
72.947,0.21744624029494286,-0.21744624029494286
72.94800000000001,0.2352273993731493,-0.2352273993731493
72.94900000000001,0.23836153394391524,-0.23836153394391524
72.95,0.22167166471825306,-0.22167166471825306
72.95100000000001,0.18515173078338354,-0.18515173078338354
72.95200000000001,0.13481927886590794,-0.13481927886590794
72.953,0.08174701412928442,-0.08174701412928442
72.95400000000001,0.0393732813383717,-0.0393732813383717
72.95500000000001,0.019774390644653028,-0.019774390644653028
72.956,0.029989491212361052,-0.029989491212361052
72.95700000000001,0.06956664023549841,-0.06956664023549841
72.95800000000001,0.13019412575300404,-0.13019412575300404
72.959,0.19766916096469334,-0.19766916096469334
72.96000000000001,0.2557221642270816,-0.2557221642270816
72.96100000000001,0.2905971494894838,-0.2905971494894838
72.962,0.2949991538548429,-0.2949991538548429
72.96300000000001,0.2701696591131898,-0.2701696591131898
72.96400000000001,0.22540902563028853,-0.22540902563028853
72.965,0.17516110218842096,-0.17516110218842096
72.96600000000001,0.13455372395181708,-0.13455372395181708
72.96700000000001,0.11479229133624158,-0.11479229133624158
72.968,0.11985999573064687,-0.11985999573064687
72.96900000000001,0.14556134966995715,-0.14556134966995715
72.97000000000001,0.1811872311001257,-0.1811872311001257
72.971,0.213227673387843,-0.213227673387843
72.97200000000001,0.22989527343902194,-0.22989527343902194
72.97300000000001,0.22496856495387507,-0.22496856495387507
72.974,0.19970579215365358,-0.19970579215365358
72.97500000000001,0.16223386711326582,-0.16223386711326582
72.97600000000001,0.12466422998879367,-0.12466422998879367
72.977,0.09894145801525889,-0.09894145801525889
72.97800000000001,0.09283866563644294,-0.09283866563644294
72.979,0.10744128696763966,-0.10744128696763966
72.98,0.13693697598800647,-0.13693697598800647
72.98100000000001,0.1707365611194096,-0.1707365611194096
72.982,0.19716163990633806,-0.19716163990633806
72.983,0.20741694145983358,-0.20741694145983358
72.98400000000001,0.1984925874304715,-0.1984925874304715
72.985,0.17403129842022136,-0.17403129842022136
72.986,0.1429081161366199,-0.1429081161366199
72.98700000000001,0.11605641108463727,-0.11605641108463727
72.988,0.10266330929518352,-0.10266330929518352
72.989,0.10705152827875009,-0.10705152827875009
72.99000000000001,0.12730348105050893,-0.12730348105050893
72.991,0.15606536050998243,-0.15606536050998243
72.992,0.1832127169265091,-0.1832127169265091
72.99300000000001,0.19942704105008635,-0.19942704105008635
72.994,0.19943932912771145,-0.19943932912771145
72.995,0.18383489643085427,-0.18383489643085427
72.99600000000001,0.1588267115967501,-0.1588267115967501
72.997,0.13410782200925142,-0.13410782200925142
72.998,0.11954198787767245,-0.11954198787767245
72.99900000000001,0.12182579504215685,-0.12182579504215685
73.0,0.1422359681567843,-0.1422359681567843
73.001,0.1761814652133722,-0.1761814652133722
73.00200000000001,0.21465771016886215,-0.21465771016886215
73.003,0.24706911939700849,-0.24706911939700849
73.004,0.26445950751365477,-0.26445950751365477
73.00500000000001,0.26210277779295343,-0.26210277779295343
73.006,0.2406712893676377,-0.2406712893676377
73.007,0.20570830167071907,-0.20570830167071907
73.00800000000001,0.1656980032807286,-0.1656980032807286
73.009,0.12945647880034672,-0.12945647880034672
73.01,0.10372313038124448,-0.10372313038124448
73.01100000000001,0.09168129904103872,-0.09168129904103872
73.012,0.09275458490212563,-0.09275458490212563
73.013,0.1035625473213776,-0.1035625473213776
73.01400000000001,0.11954416295962667,-0.11954416295962667
73.015,0.13659385451223005,-0.13659385451223005
73.016,0.15214177862566058,-0.15214177862566058
73.01700000000001,0.16539241153186512,-0.16539241153186512
73.018,0.1767912116999657,-0.1767912116999657
73.019,0.18707872756071242,-0.18707872756071242
73.02000000000001,0.196411119044836,-0.196411119044836
73.021,0.20394422897883735,-0.20394422897883735
73.022,0.2080433012463654,-0.2080433012463654
73.02300000000001,0.20699668464586973,-0.20699668464586973
73.024,0.19989640407863762,-0.19989640407863762
73.025,0.18728450914929395,-0.18728450914929395
73.02600000000001,0.1712699647198549,-0.1712699647198549
73.027,0.15504578243450406,-0.15504578243450406
73.028,0.14198345239176602,-0.14198345239176602
73.02900000000001,0.13464950518894347,-0.13464950518894347
73.03,0.13411119649667036,-0.13411119649667036
73.031,0.13977053738753875,-0.13977053738753875
73.03200000000001,0.1497457145563691,-0.1497457145563691
73.033,0.16160073307627887,-0.16160073307627887
73.034,0.1730994436197737,-0.1730994436197737
73.03500000000001,0.18267964743301612,-0.18267964743301612
73.036,0.18949541717113327,-0.18949541717113327
73.037,0.1930925363789897,-0.1930925363789897
73.03800000000001,0.19296573161348474,-0.19296573161348474
73.039,0.18831217949100942,-0.18831217949100942
73.04,0.17820784703836656,-0.17820784703836656
73.04100000000001,0.16222235433113585,-0.16222235433113585
73.042,0.14124168622282907,-0.14124168622282907
73.043,0.1180962807584055,-0.1180962807584055
73.04400000000001,0.09758215297227202,-0.09758215297227202
73.045,0.0856408796353787,-0.0856408796353787
73.046,0.08777944106801105,-0.08777944106801105
73.04700000000001,0.1071493621052666,-0.1071493621052666
73.048,0.14293059263396246,-0.14293059263396246
73.049,0.1896737629851335,-0.1896737629851335
73.05000000000001,0.23801399928835543,-0.23801399928835543
73.051,0.2767423299930283,-0.2767423299930283
73.052,0.2957454199655912,-0.2957454199655912
73.05300000000001,0.2889697394114267,-0.2889697394114267
73.054,0.2564706642575044,-0.2564706642575044
73.055,0.20482532618203275,-0.20482532618203275
73.05600000000001,0.14566659821647843,-0.14566659821647843
73.057,0.09268539432043243,-0.09268539432043243
73.058,0.05795361161688084,-0.05795361161688084
73.05900000000001,0.04866528027621131,-0.04866528027621131
73.06,0.06528675737274192,-0.06528675737274192
73.061,0.10167433478471077,-0.10167433478471077
73.06200000000001,0.14709802679159678,-0.14709802679159678
73.063,0.18950873450059647,-0.18950873450059647
73.06400000000001,0.21900398587744596,-0.21900398587744596
73.06500000000001,0.23041284199016654,-0.23041284199016654
73.066,0.2242424365425042,-0.2242424365425042
73.06700000000001,0.20579369852196716,-0.20579369852196716
73.06800000000001,0.18286585142859457,-0.18286585142859457
73.069,0.1629178355861114,-0.1629178355861114
73.07000000000001,0.1506890178614202,-0.1506890178614202
73.07100000000001,0.14706281267822197,-0.14706281267822197
73.072,0.14947138501643775,-0.14947138501643775
73.07300000000001,0.153566733381858,-0.153566733381858
73.07400000000001,0.15543065149552837,-0.15543065149552837
73.075,0.15342446395013365,-0.15342446395013365
73.07600000000001,0.14894627614947387,-0.14894627614947387
73.07700000000001,0.14580235806403208,-0.14580235806403208
73.078,0.1484450368957796,-0.1484450368957796
73.07900000000001,0.1597787305471039,-0.1597787305471039
73.08000000000001,0.17942108981307991,-0.17942108981307991
73.081,0.20315712640966277,-0.20315712640966277
73.08200000000001,0.22389281666746852,-0.22389281666746852
73.08300000000001,0.23385697312121512,-0.23385697312121512
73.084,0.22731957340825792,-0.22731957340825792
73.08500000000001,0.20286840268828144,-0.20286840268828144
73.08600000000001,0.16440050992418787,-0.16440050992418787
73.087,0.12040518615965223,-0.12040518615965223
73.08800000000001,0.08169569584259795,-0.08169569584259795
73.08900000000001,0.058284461368244056,-0.058284461368244056
73.09,0.05640177879420416,-0.05640177879420416
73.09100000000001,0.07662384920746634,-0.07662384920746634
73.09200000000001,0.11371362163163967,-0.11371362163163967
73.093,0.15821375002244853,-0.15821375002244853
73.09400000000001,0.1992599807139409,-0.1992599807139409
73.09500000000001,0.22770030400265373,-0.22770030400265373
73.096,0.23853643084915843,-0.23853643084915843
73.09700000000001,0.23196431483624214,-0.23196431483624214
73.09800000000001,0.2127801338188835,-0.2127801338188835
73.099,0.18846169501736632,-0.18846169501736632
73.10000000000001,0.16664464412487845,-0.16664464412487845
73.10100000000001,0.1528544957378697,-0.1528544957378697
73.102,0.14919539583184982,-0.14919539583184982
73.10300000000001,0.15430865524400228,-0.15430865524400228
73.104,0.1644495365764238,-0.1644495365764238
73.105,0.17516002929162322,-0.17516002929162322
73.10600000000001,0.18286554365946728,-0.18286554365946728
73.107,0.18583365182457712,-0.18583365182457712
73.108,0.18424350640762466,-0.18424350640762466
73.10900000000001,0.17949334256048155,-0.17949334256048155
73.11,0.17316890058408152,-0.17316890058408152
73.111,0.16619517106445691,-0.16619517106445691
73.11200000000001,0.1585664818027318,-0.1585664818027318
73.113,0.1497561834002078,-0.1497561834002078
73.114,0.13957386627298973,-0.13957386627298973
73.11500000000001,0.12900728251042515,-0.12900728251042515
73.116,0.12055862413135021,-0.12055862413135021
73.117,0.11777906211085387,-0.11777906211085387
73.11800000000001,0.12404906847638042,-0.12404906847638042
73.119,0.14100842145346082,-0.14100842145346082
73.12,0.16726058155363233,-0.16726058155363233
73.12100000000001,0.19795960492260345,-0.19795960492260345
73.122,0.22562082397299865,-0.22562082397299865
73.123,0.2420638241905706,-0.2420638241905706
73.12400000000001,0.24095215594907393,-0.24095215594907393
73.125,0.22010724934859283,-0.22010724934859283
73.126,0.18276379020300204,-0.18276379020300204
73.12700000000001,0.13722410799398788,-0.13722410799398788
73.128,0.09487464513406507,-0.09487464513406507
73.129,0.06708061628246731,-0.06708061628246731
73.13000000000001,0.06188298756598731,-0.06188298756598731
73.131,0.08153588925724131,-0.08153588925724131
73.132,0.12169157977097211,-0.12169157977097211
73.13300000000001,0.1725320133493713,-0.1725320133493713
73.134,0.22152658594237506,-0.22152658594237506
73.135,0.2569720336516167,-0.2569720336516167
73.13600000000001,0.2712200416483491,-0.2712200416483491
73.137,0.262606340143659,-0.262606340143659
73.138,0.2355253614098819,-0.2355253614098819
73.13900000000001,0.19870071905963338,-0.19870071905963338
73.14,0.1622786796861937,-0.1622786796861937
73.141,0.1347263876467245,-0.1347263876467245
73.14200000000001,0.12053447467641731,-0.12053447467641731
73.143,0.11940763538659016,-0.11940763538659016
73.144,0.12709403499815364,-0.12709403499815364
73.14500000000001,0.13744405549981453,-0.13744405549981453
73.146,0.1448944768809718,-0.1448944768809718
73.147,0.14647622634491964,-0.14647622634491964
73.14800000000001,0.14266543158929235,-0.14266543158929235
73.149,0.13684886591184953,-0.13684886591184953
73.15,0.1336877035775178,-0.1336877035775178
73.15100000000001,0.1370527092369913,-0.1370527092369913
73.152,0.14833396260138731,-0.14833396260138731
73.153,0.16576016918205105,-0.16576016918205105
73.15400000000001,0.18496621442111583,-0.18496621442111583
73.155,0.20057354841421282,-0.20057354841421282
73.156,0.20817175543443056,-0.20817175543443056
73.15700000000001,0.20594754713518204,-0.20594754713518204
73.158,0.19534767837775757,-0.19534767837775757
73.159,0.18052904249041235,-0.18052904249041235
73.16000000000001,0.16680435580217923,-0.16680435580217923
73.161,0.158666530764349,-0.158666530764349
73.162,0.1581314351758566,-0.1581314351758566
73.16300000000001,0.16402074668842137,-0.16402074668842137
73.164,0.17245853560357194,-0.17245853560357194
73.165,0.17840549071966527,-0.17840549071966527
73.16600000000001,0.17766834950980404,-0.17766834950980404
73.167,0.168640425570301,-0.168640425570301
73.168,0.15311860897117202,-0.15311860897117202
73.16900000000001,0.13587079669086066,-0.13587079669086066
73.17,0.12307695190823476,-0.12307695190823476
73.171,0.12017527155067187,-0.12017527155067187
73.17200000000001,0.12986585532454276,-0.12986585532454276
73.173,0.15097903794303902,-0.15097903794303902
73.174,0.17862066836506152,-0.17862066836506152
73.17500000000001,0.20556712029249236,-0.20556712029249236
73.176,0.22445394251665018,-0.22445394251665018
73.177,0.23003355561717753,-0.23003355561717753
73.17800000000001,0.22076058259038822,-0.22076058259038822
73.179,0.19919984011795033,-0.19919984011795033
73.18,0.17115471150629324,-0.17115471150629324
73.18100000000001,0.1438395772796205,-0.1438395772796205
73.182,0.12372195255551643,-0.12372195255551643
73.183,0.11473848478779747,-0.11473848478779747
73.18400000000001,0.11742593998240636,-0.11742593998240636
73.185,0.1291708571274448,-0.1291708571274448
73.186,0.1453952116212045,-0.1453952116212045
73.18700000000001,0.16119736953609154,-0.16119736953609154
73.188,0.172857234056766,-0.172857234056766
73.18900000000001,0.17871930116885804,-0.17871930116885804
73.19000000000001,0.17923609022075393,-0.17923609022075393
73.191,0.17627904713621234,-0.17627904713621234
73.19200000000001,0.1720816784803284,-0.1720816784803284
73.19300000000001,0.16827865739927317,-0.16827865739927317
73.194,0.16541725457587708,-0.16541725457587708
73.19500000000001,0.16308796058667463,-0.16308796058667463
73.19600000000001,0.16054654648083966,-0.16054654648083966
73.197,0.15749109121245475,-0.15749109121245475
73.19800000000001,0.15459674725959993,-0.15459674725959993
73.19900000000001,0.15352017278811392,-0.15352017278811392
73.2,0.15631885654693511,-0.15631885654693511
73.20100000000001,0.1644929810022343,-0.1644929810022343
73.20200000000001,0.17804204110242383,-0.17804204110242383
73.203,0.19495801513256816,-0.19495801513256816
73.20400000000001,0.21143445043796982,-0.21143445043796982
73.20500000000001,0.22280676592517767,-0.22280676592517767
73.206,0.2249526122789669,-0.2249526122789669
73.20700000000001,0.21568288356353438,-0.21568288356353438
73.20800000000001,0.19562370636703552,-0.19562370636703552
73.209,0.16824532328444486,-0.16824532328444486
73.21000000000001,0.13898322324735835,-0.13898322324735835
73.21100000000001,0.11371653020174632,-0.11371653020174632
73.212,0.09710128249128802,-0.09710128249128802
73.21300000000001,0.0913145374031692,-0.0913145374031692
73.21400000000001,0.09562492029843739,-0.09562492029843739
73.215,0.10691492522544843,-0.10691492522544843
73.21600000000001,0.12094441685202717,-0.12094441685202717
73.21700000000001,0.13388563758056804,-0.13388563758056804
73.218,0.1435725947701767,-0.1435725947701767
73.21900000000001,0.1500243375135698,-0.1500243375135698
73.22000000000001,0.1550794914475847,-0.1550794914475847
73.221,0.16131571434775582,-0.16131571434775582
73.22200000000001,0.17069735089388516,-0.17069735089388516
73.22300000000001,0.1834963559165479,-0.1834963559165479
73.224,0.197926224748721,-0.197926224748721
73.22500000000001,0.2106540930535057,-0.2106540930535057
73.22600000000001,0.21801420851876818,-0.21801420851876818
73.227,0.21746531336049446,-0.21746531336049446
73.22800000000001,0.208722922696162,-0.208722922696162
73.229,0.19410131324739133,-0.19410131324739133
73.23,0.1778855108056363,-0.1778855108056363
73.23100000000001,0.16491786811758158,-0.16491786811758158
73.232,0.15889187706809726,-0.15889187706809726
73.233,0.16097986972885647,-0.16097986972885647
73.23400000000001,0.16932497624807086,-0.16932497624807086
73.235,0.17962891484462862,-0.17962891484462862
73.236,0.18666976048401596,-0.18666976048401596
73.23700000000001,0.18623153565053097,-0.18623153565053097
73.238,0.17675216764364055,-0.17675216764364055
73.239,0.16006927928817483,-0.16006927928817483
73.24000000000001,0.14094707089973368,-0.14094707089973368
73.241,0.12549990738555583,-0.12549990738555583
73.242,0.11903648600873062,-0.11903648600873062
73.24300000000001,0.1240834055092288,-0.1240834055092288
73.244,0.13931683719701604,-0.13931683719701604
73.245,0.15983636942491408,-0.15983636942491408
73.24600000000001,0.1787514834406818,-0.1787514834406818
73.247,0.18957779172301803,-0.18957779172301803
73.248,0.18862537450473982,-0.18862537450473982
73.24900000000001,0.1765231081781653,-0.1765231081781653
73.25,0.15828509594146478,-0.15828509594146478
73.251,0.141807741650384,-0.141807741650384
73.25200000000001,0.13522869178705943,-0.13522869178705943
73.253,0.1439959112723198,-0.1439959112723198
73.254,0.16863847966472745,-0.16863847966472745
73.25500000000001,0.20404198585925215,-0.20404198585925215
73.256,0.24056409406578438,-0.24056409406578438
73.257,0.2667291330131273,-0.2667291330131273
73.25800000000001,0.2727104331965068,-0.2727104331965068
73.259,0.2535230021178958,-0.2535230021178958
73.26,0.21090599629692286,-0.21090599629692286
73.26100000000001,0.15326116482951957,-0.15326116482951957
73.262,0.09360840012134264,-0.09360840012134264
73.263,0.04613266338262845,-0.04613266338262845
73.26400000000001,0.022331993846169684,-0.022331993846169684
73.265,0.02789665114382278,-0.02789665114382278
73.266,0.06122001008153721,-0.06122001008153721
73.26700000000001,0.11394048994858752,-0.11394048994858752
73.268,0.17330351689433288,-0.17330351689433288
73.269,0.2256065099559088,-0.2256065099559088
73.27000000000001,0.25970824812699356,-0.25970824812699356
73.271,0.2696230573211653,-0.2696230573211653
73.272,0.25555121888808974,-0.25555121888808974
73.27300000000001,0.22319982475068867,-0.22319982475068867
73.274,0.1817552254211332,-0.1817552254211332
73.275,0.1412209509620198,-0.1412209509620198
73.27600000000001,0.10993593897038301,-0.10993593897038301
73.277,0.09292841109648142,-0.09292841109648142
73.278,0.0914178564547119,-0.0914178564547119
73.27900000000001,0.10338211489439642,-0.10338211489439642
73.28,0.12479477777497594,-0.12479477777497594
73.281,0.15100470257114207,-0.15100470257114207
73.28200000000001,0.17779787683145964,-0.17779787683145964
73.283,0.2019019050261237,-0.2019019050261237
73.284,0.22096480351401027,-0.22096480351401027
73.28500000000001,0.23325271576110396,-0.23325271576110396
73.286,0.23738758434545726,-0.23738758434545726
73.287,0.23236701634498713,-0.23236701634498713
73.28800000000001,0.21791907377566755,-0.21791907377566755
73.289,0.19503214264952584,-0.19503214264952584
73.29,0.16635922921228508,-0.16635922921228508
73.29100000000001,0.13619129884037073,-0.13619129884037073
73.292,0.10983401635247503,-0.10983401635247503
73.293,0.09245544049825871,-0.09245544049825871
73.29400000000001,0.08770782623496565,-0.08770782623496565
73.295,0.0965685617959201,-0.0965685617959201
73.296,0.11682946397711425,-0.11682946397711425
73.29700000000001,0.14348402352705647,-0.14348402352705647
73.298,0.16997464576693067,-0.16997464576693067
73.299,0.18996554562865653,-0.18996554562865653
73.30000000000001,0.19910861724600448,-0.19910861724600448
73.301,0.19624499119387762,-0.19624499119387762
73.302,0.18365015868381507,-0.18365015868381507
73.30300000000001,0.16623449681071534,-0.16623449681071534
73.304,0.14995238998081217,-0.14995238998081217
73.305,0.13993508409642086,-0.13993508409642086
73.30600000000001,0.13895363753018553,-0.13895363753018553
73.307,0.14670553996120872,-0.14670553996120872
73.308,0.16013878740765985,-0.16013878740765985
73.30900000000001,0.17467553040600758,-0.17467553040600758
73.31,0.18589432398293082,-0.18589432398293082
73.311,0.19107961122437644,-0.19107961122437644
73.31200000000001,0.19010093711312637,-0.19010093711312637
73.313,0.18532358084210798,-0.18532358084210798
73.31400000000001,0.18059388109006524,-0.18059388109006524
73.31500000000001,0.17966827662159057,-0.17966827662159057
73.316,0.18465233245227708,-0.18465233245227708
73.31700000000001,0.1950165272572938,-0.1950165272572938
73.31800000000001,0.2075589132352832,-0.2075589132352832
73.319,0.21735826349940668,-0.21735826349940668
73.32000000000001,0.21941676958852718,-0.21941676958852718
73.32100000000001,0.21044653886772846,-0.21044653886772846
73.322,0.19019268514110732,-0.19019268514110732
73.32300000000001,0.1618289319013898,-0.1618289319013898
73.32400000000001,0.13126146523263638,-0.13126146523263638
73.325,0.1055330518892924,-0.1055330518892924
73.32600000000001,0.09081385742960868,-0.09081385742960868
73.32700000000001,0.09060138967857012,-0.09060138967857012
73.328,0.10468659894845467,-0.10468659894845467
73.32900000000001,0.12920034911674116,-0.12920034911674116
73.33000000000001,0.15771577995328911,-0.15771577995328911
73.331,0.18305836392237285,-0.18305836392237285
73.33200000000001,0.199269630140405,-0.199269630140405
73.33300000000001,0.20314406033539723,-0.20314406033539723
73.334,0.19491293845867597,-0.19491293845867597
73.33500000000001,0.1779271351636117,-0.1779271351636117
73.33600000000001,0.15749895010075154,-0.15749895010075154
73.337,0.1393024898063182,-0.1393024898063182
73.33800000000001,0.12783161706207313,-0.12783161706207313
73.33900000000001,0.1253526495261824,-0.1253526495261824
73.34,0.13159762237970918,-0.13159762237970918
73.34100000000001,0.14419461365599306,-0.14419461365599306
73.34200000000001,0.1596092655439555,-0.1596092655439555
73.343,0.1742453485001132,-0.1742453485001132
73.34400000000001,0.18535342993345716,-0.18535342993345716
73.34500000000001,0.19151145299329442,-0.19151145299329442
73.346,0.1926182623215662,-0.1926182623215662
73.34700000000001,0.18951321822638867,-0.18951321822638867
73.34800000000001,0.18344264433702295,-0.18344264433702295
73.349,0.17560602908025846,-0.17560602908025846
73.35000000000001,0.1669379462422661,-0.1669379462422661
73.35100000000001,0.15815401764026205,-0.15815401764026205
73.352,0.14996516709295937,-0.14996516709295937
73.35300000000001,0.14329287184460748,-0.14329287184460748
73.354,0.1393247694093388,-0.1393247694093388
73.355,0.1393286806168188,-0.1393286806168188
73.35600000000001,0.14425958769535907,-0.14425958769535907
73.357,0.15429997959450514,-0.15429997959450514
73.358,0.16852561360865448,-0.16852561360865448
73.35900000000001,0.1848638388734457,-0.1848638388734457
73.36,0.20041746389667525,-0.20041746389667525
73.361,0.21209767597610074,-0.21209767597610074
73.36200000000001,0.21739256088543057,-0.21739256088543057
73.363,0.21503722612206344,-0.21503722612206344
73.364,0.20537115115893256,-0.20537115115893256
73.36500000000001,0.19026303287340873,-0.19026303287340873
73.366,0.17262086084431205,-0.17262086084431205
73.367,0.15563760571208596,-0.15563760571208596
73.36800000000001,0.14200477910007991,-0.14200477910007991
73.369,0.13332935207915442,-0.13332935207915442
73.37,0.12991409801902332,-0.12991409801902332
73.37100000000001,0.1309349611735623,-0.1309349611735623
73.372,0.13491664203982645,-0.13491664203982645
73.373,0.14031556702898385,-0.14031556702898385
73.37400000000001,0.14599881883303345,-0.14599881883303345
73.375,0.15146332602752122,-0.15146332602752122
73.376,0.15674897237861196,-0.15674897237861196
73.37700000000001,0.1621205830567164,-0.1621205830567164
73.378,0.16768155863823853,-0.16768155863823853
73.379,0.1731037119918789,-0.1731037119918789
73.38000000000001,0.17760582863989072,-0.17760582863989072
73.381,0.18020749459881225,-0.18020749459881225
73.382,0.1801652167309118,-0.1801652167309118
73.38300000000001,0.17741104039336153,-0.17741104039336153
73.384,0.17279482883262687,-0.17279482883262687
73.385,0.16799079823357688,-0.16799079823357688
73.38600000000001,0.16504845153250391,-0.16504845153250391
73.387,0.1657060917574028,-0.1657060917574028
73.388,0.17069103646840178,-0.17069103646840178
73.38900000000001,0.17926295165157502,-0.17926295165157502
73.39,0.18919823052404505,-0.18919823052404505
73.391,0.19727854537820322,-0.19727854537820322
73.39200000000001,0.2001780273161482,-0.2001780273161482
73.393,0.19549770652719745,-0.19549770652719745
73.394,0.18262474553542518,-0.18262474553542518
73.39500000000001,0.16312644280221278,-0.16312644280221278
73.396,0.14051983613825358,-0.14051983613825358
73.397,0.11944824371403695,-0.11944824371403695
73.39800000000001,0.10448572575977388,-0.10448572575977388
73.399,0.09891659730331925,-0.09891659730331925
73.4,0.10385603342569882,-0.10385603342569882
73.40100000000001,0.11797992885435149,-0.11797992885435149
73.402,0.13794635683100853,-0.13794635683100853
73.403,0.15937590906045385,-0.15937590906045385
73.40400000000001,0.1780835958789434,-0.1780835958789434
73.405,0.19117856530763355,-0.19117856530763355
73.406,0.1976958566907,-0.1976958566907
73.40700000000001,0.19858199292305512,-0.19858199292305512
73.408,0.19607187954766803,-0.19607187954766803
73.409,0.19269647228980458,-0.19269647228980458
73.41000000000001,0.19028085571553133,-0.19028085571553133
73.411,0.18928931938740157,-0.18928931938740157
73.412,0.1887475983141197,-0.1887475983141197
73.41300000000001,0.18676473348722533,-0.18676473348722533
73.414,0.18145883108428518,-0.18145883108428518
73.415,0.17193834135485841,-0.17193834135485841
73.41600000000001,0.15895850734390293,-0.15895850734390293
73.417,0.14497612924918457,-0.14497612924918457
73.418,0.1335328605807483,-0.1335328605807483
73.41900000000001,0.1281388838448616,-0.1281388838448616
73.42,0.13102147803812103,-0.13102147803812103
73.421,0.14217698362844844,-0.14217698362844844
73.42200000000001,0.1590886611565474,-0.1590886611565474
73.423,0.17726618826628693,-0.17726618826628693
73.424,0.19149018940024087,-0.19149018940024087
73.42500000000001,0.1973976574632501,-0.1973976574632501
73.426,0.19290709645647874,-0.19290709645647874
73.427,0.17900720352217625,-0.17900720352217625
73.42800000000001,0.15961844618858,-0.15961844618858
73.429,0.14052712238704768,-0.14052712238704768
73.43,0.12769325614781324,-0.12769325614781324
73.43100000000001,0.12544682613917013,-0.12544682613917013
73.432,0.13513783062565177,-0.13513783062565177
73.433,0.1546732684186657,-0.1546732684186657
73.43400000000001,0.17909777864943366,-0.17909777864943366
73.435,0.20204294377434218,-0.20204294377434218
73.436,0.21759188787473493,-0.21759188787473493
73.43700000000001,0.2219735366101382,-0.2219735366101382
73.438,0.21455983647807875,-0.21455983647807875
73.43900000000001,0.19787075847546387,-0.19787075847546387
73.44000000000001,0.1766191217619626,-0.1766191217619626
73.441,0.15614034730055015,-0.15614034730055015
73.44200000000001,0.14074556932855709,-0.14074556932855709
73.44300000000001,0.13254491863327478,-0.13254491863327478
73.444,0.1311093636164712,-0.1311093636164712
73.44500000000001,0.1340369443664361,-0.1340369443664361
73.44600000000001,0.13816868977480135,-0.13816868977480135
73.447,0.14097392022591115,-0.14097392022591115
73.44800000000001,0.1415741920295447,-0.1415741920295447
73.44900000000001,0.14101849724685434,-0.14101849724685434
73.45,0.14170905617267182,-0.14170905617267182
73.45100000000001,0.14620431822713753,-0.14620431822713753
73.45200000000001,0.15587412074781504,-0.15587412074781504
73.453,0.16995763250840334,-0.16995763250840334
73.45400000000001,0.18544419270364698,-0.18544419270364698
73.45500000000001,0.1979009587012337,-0.1979009587012337
73.456,0.2030118047920244,-0.2030118047920244
73.45700000000001,0.19829882213269123,-0.19829882213269123
73.45800000000001,0.18438239687418367,-0.18438239687418367
73.459,0.16525054834506736,-0.16525054834506736
73.46000000000001,0.14732515481560982,-0.14732515481560982
73.46100000000001,0.13753024637864375,-0.13753024637864375
73.462,0.14094299137419564,-0.14094299137419564
73.46300000000001,0.15880601749168355,-0.15880601749168355
73.46400000000001,0.1876201209517121,-0.1876201209517121
73.465,0.21972459140448497,-0.21972459140448497
73.46600000000001,0.2453010401622675,-0.2453010401622675
73.46700000000001,0.2552575473035057,-0.2552575473035057
73.468,0.24412436977267005,-0.24412436977267005
73.46900000000001,0.2120365563647315,-0.2120365563647315
73.47000000000001,0.16512286162861622,-0.16512286162861622
73.471,0.11409577300955076,-0.11409577300955076
73.47200000000001,0.07139695894719289,-0.07139695894719289
73.47300000000001,0.047716984052098343,-0.047716984052098343
73.474,0.04892556447245999,-0.04892556447245999
73.47500000000001,0.07434430953534299,-0.07434430953534299
73.47600000000001,0.11689629149777436,-0.11689629149777436
73.477,0.16509924096044326,-0.16509924096044326
73.47800000000001,0.20631026105756545,-0.20631026105756545
73.479,0.23025559149194041,-0.23025559149194041
73.48,0.23180536101842752,-0.23180536101842752
73.48100000000001,0.21219981832994317,-0.21219981832994317
73.482,0.17841758152388532,-0.17841758152388532
73.483,0.14094157682430697,-0.14094157682430697
73.48400000000001,0.11064623167028986,-0.11064623167028986
73.485,0.09575789043481986,-0.09575789043481986
73.486,0.09976789117973017,-0.09976789117973017
73.48700000000001,0.12084070673427816,-0.12084070673427816
73.488,0.15277678662599237,-0.15277678662599237
73.489,0.1871204224130194,-0.1871204224130194
73.49000000000001,0.21569320523088376,-0.21569320523088376
73.491,0.2327697068231701,-0.2327697068231701
73.492,0.23629558822193486,-0.23629558822193486
73.49300000000001,0.2279011982788146,-0.2279011982788146
73.494,0.21185872576522713,-0.21185872576522713
73.495,0.19343756131098333,-0.19343756131098333
73.49600000000001,0.17724047443948232,-0.17724047443948232
73.497,0.1660296856311697,-0.1660296856311697
73.498,0.16032360364713616,-0.16032360364713616
73.49900000000001,0.15875610286498332,-0.15875610286498332
73.5,0.1589455848384682,-0.1589455848384682
73.501,0.1584985302555908,-0.1584985302555908
73.50200000000001,0.1557976260468258,-0.1557976260468258
73.503,0.1503675297857584,-0.1503675297857584
73.504,0.14280222616600535,-0.14280222616600535
73.50500000000001,0.13439773585186088,-0.13439773585186088
73.506,0.12670548249142355,-0.12670548249142355
73.507,0.12118987504887435,-0.12118987504887435
73.50800000000001,0.11906798493636506,-0.11906798493636506
73.509,0.12128765483737636,-0.12128765483737636
73.51,0.12852317284587456,-0.12852317284587456
73.51100000000001,0.1410708574792141,-0.1410708574792141
73.512,0.1586072299054535,-0.1586072299054535
73.513,0.17988910576768236,-0.17988910576768236
73.51400000000001,0.2025677166984855,-0.2025677166984855
73.515,0.2233050500296443,-0.2233050500296443
73.516,0.2382989228710607,-0.2382989228710607
73.51700000000001,0.24416629331022832,-0.24416629331022832
73.518,0.23896149257544474,-0.23896149257544474
73.519,0.22299159591605133,-0.22299159591605133
73.52000000000001,0.1990936288306976,-0.1990936288306976
73.521,0.17217480111840844,-0.17217480111840844
73.522,0.1480520509379003,-0.1480520509379003
73.52300000000001,0.13188223767113683,-0.13188223767113683
73.524,0.12665462064167765,-0.12665462064167765
73.525,0.13224735478468297,-0.13224735478468297
73.52600000000001,0.1454038830393778,-0.1454038830393778
73.527,0.1607007768846792,-0.1607007768846792
73.528,0.17224694984247035,-0.17224694984247035
73.52900000000001,0.17558998038658413,-0.17558998038658413
73.53,0.16920624651781968,-0.16920624651781968
73.531,0.15506195199948902,-0.15506195199948902
73.53200000000001,0.1380240379302604,-0.1380240379302604
73.533,0.12428008513205613,-0.12428008513205613
73.534,0.11926638572137604,-0.11926638572137604
73.53500000000001,0.12578447226469214,-0.12578447226469214
73.536,0.14294126589393097,-0.14294126589393097
73.537,0.16628619756058582,-0.16628619756058582
73.53800000000001,0.18912511703041668,-0.18912511703041668
73.539,0.20459772110968655,-0.20459772110968655
73.54,0.2078466847370284,-0.2078466847370284
73.54100000000001,0.19757192293214076,-0.19757192293214076
73.542,0.1764653718123339,-0.1764653718123339
73.543,0.15039196387785503,-0.15039196387785503
73.54400000000001,0.12659491039877002,-0.12659491039877002
73.545,0.111517883070956,-0.111517883070956
73.546,0.10894788754548679,-0.10894788754548679
73.54700000000001,0.11905636231054806,-0.11905636231054806
73.548,0.1386004233723348,-0.1386004233723348
73.549,0.162153714499921,-0.162153714499921
73.55000000000001,0.1839035518795995,-0.1839035518795995
73.551,0.19939023348630414,-0.19939023348630414
73.552,0.2066245480343195,-0.2066245480343195
73.55300000000001,0.20627064322998534,-0.20627064322998534
73.554,0.20092707585226077,-0.20092707585226077
73.555,0.19385240227731027,-0.19385240227731027
73.55600000000001,0.18765243256567188,-0.18765243256567188
73.557,0.1834191165063176,-0.1834191165063176
73.558,0.1806047906850744,-0.1806047906850744
73.55900000000001,0.17761412462357262,-0.17761412462357262
73.56,0.17281604363364056,-0.17281604363364056
73.561,0.16552432078267787,-0.16552432078267787
73.56200000000001,0.15652334094963138,-0.15652334094963138
73.563,0.14790986123094962,-0.14790986123094962
73.56400000000001,0.14230446682173925,-0.14230446682173925
73.56500000000001,0.14174706280676908,-0.14174706280676908
73.566,0.146727772680034,-0.146727772680034
73.56700000000001,0.15576442210682406,-0.15576442210682406
73.56800000000001,0.16573467067761705,-0.16573467067761705
73.569,0.17288150940226743,-0.17288150940226743
73.57000000000001,0.174145346156811,-0.174145346156811
73.57100000000001,0.1683361530434907,-0.1683361530434907
73.572,0.15670035033293228,-0.15670035033293228
73.57300000000001,0.14264672763307962,-0.14264672763307962
73.57400000000001,0.13069784276096807,-0.13069784276096807
73.575,0.125016790357507,-0.125016790357507
73.57600000000001,0.1280188722836122,-0.1280188722836122
73.57700000000001,0.13955368241119603,-0.13955368241119603
73.578,0.15694325507242668,-0.15694325507242668
73.57900000000001,0.17585891487645022,-0.17585891487645022
73.58000000000001,0.1917239598113747,-0.1917239598113747
73.581,0.20114890139382724,-0.20114890139382724
73.58200000000001,0.20290538495189603,-0.20290538495189603
73.58300000000001,0.19812217061641957,-0.19812217061641957
73.584,0.18967416891701283,-0.18967416891701283
73.58500000000001,0.18102596253414083,-0.18102596253414083
73.58600000000001,0.17497729192601197,-0.17497729192601197
73.587,0.1727727671167899,-0.1727727671167899
73.58800000000001,0.17387977656464337,-0.17387977656464337
73.58900000000001,0.17647058135054516,-0.17647058135054516
73.59,0.17837105691342692,-0.17837105691342692
73.59100000000001,0.17806461251393135,-0.17806461251393135
73.59200000000001,0.17533152922756434,-0.17533152922756434
73.593,0.17126306995549656,-0.17126306995549656
73.59400000000001,0.16765298089257308,-0.16765298089257308
73.59500000000001,0.1660323069237739,-0.1660323069237739
73.596,0.16677175894826024,-0.16677175894826024
73.59700000000001,0.1686639374884975,-0.1686639374884975
73.59800000000001,0.16921591371780798,-0.16921591371780798
73.599,0.1655980568622497,-0.1655980568622497
73.60000000000001,0.15591678439469847,-0.15591678439469847
73.60100000000001,0.14031730442247958,-0.14031730442247958
73.602,0.12144622969594299,-0.12144622969594299
73.60300000000001,0.10401303063565182,-0.10401303063565182
73.604,0.0935125753791689,-0.0935125753791689
73.605,0.0944912731663049,-0.0944912731663049
73.60600000000001,0.1089361045219781,-0.1089361045219781
73.607,0.1353604306053301,-0.1353604306053301
73.608,0.16894664101355306,-0.16894664101355306
73.60900000000001,0.20275378744629124,-0.20275378744629124
73.61,0.2296312850724137,-0.2296312850724137
73.611,0.24422901713420575,-0.24422901713420575
73.61200000000001,0.2444517902650718,-0.2444517902650718
73.613,0.23189038017907204,-0.23189038017907204
73.614,0.21110924127027608,-0.21110924127027608
73.61500000000001,0.1880597254401546,-0.1880597254401546
73.616,0.16817929205046223,-0.16817929205046223
73.617,0.15482821133486202,-0.15482821133486202
73.61800000000001,0.1485745754588811,-0.1485745754588811
73.619,0.14751887961814847,-0.14751887961814847
73.62,0.14846866888827537,-0.14846866888827537
73.62100000000001,0.14847123264662943,-0.14847123264662943
73.622,0.14609818625201554,-0.14609818625201554
73.623,0.14199022534158412,-0.14199022534158412
73.62400000000001,0.13846875591915608,-0.13846875591915608
73.625,0.13839040316873596,-0.13839040316873596
73.626,0.14372081224715028,-0.14372081224715028
73.62700000000001,0.1544211650543852,-0.1544211650543852
73.628,0.1681281379532027,-0.1681281379532027
73.629,0.1808054630976631,-0.1808054630976631
73.63000000000001,0.1881649283620399,-0.1881649283620399
73.631,0.18733997272707237,-0.18733997272707237
73.632,0.17816763683215253,-0.17816763683215253
73.63300000000001,0.16354859693802837,-0.16354859693802837
73.634,0.1486754568101072,-0.1486754568101072
73.635,0.13933366541302328,-0.13933366541302328
73.63600000000001,0.13983681593578634,-0.13983681593578634
73.637,0.15132488608322947,-0.15132488608322947
73.638,0.17106256301876444,-0.17106256301876444
73.63900000000001,0.1930496854744569,-0.1930496854744569
73.64,0.20980663383684883,-0.20980663383684883
73.641,0.21478087678926294,-0.21478087678926294
73.64200000000001,0.20458508509648843,-0.20458508509648843
73.643,0.1803089703731665,-0.1803089703731665
73.644,0.14743992972015785,-0.14743992972015785
73.64500000000001,0.11438364516700628,-0.11438364516700628
73.646,0.09003935674447616,-0.09003935674447616
73.647,0.08119691205879553,-0.08119691205879553
73.64800000000001,0.09057778305748054,-0.09057778305748054
73.649,0.11612336553436509,-0.11612336553436509
73.65,0.15171890389388054,-0.15171890389388054
73.65100000000001,0.18907443860121564,-0.18907443860121564
73.652,0.22012437554893072,-0.22012437554893072
73.653,0.23917296464094884,-0.23917296464094884
73.65400000000001,0.2441413265820016,-0.2441413265820016
73.655,0.23660782809280556,-0.23660782809280556
73.656,0.22075266322061993,-0.22075266322061993
73.65700000000001,0.2016707671103145,-0.2016707671103145
73.658,0.18368568398191554,-0.18368568398191554
73.659,0.16923270458166884,-0.16923270458166884
73.66000000000001,0.15861985512390875,-0.15861985512390875
73.661,0.15062602692182503,-0.15062602692182503
73.662,0.14358975187358103,-0.14358975187358103
73.66300000000001,0.13649020967113856,-0.13649020967113856
73.664,0.12957170078034197,-0.12957170078034197
73.665,0.12428364805341363,-0.12428364805341363
73.66600000000001,0.1226059485408777,-0.1226059485408777
73.667,0.12608397101262625,-0.12608397101262625
73.668,0.13500933453095953,-0.13500933453095953
73.66900000000001,0.1481112056371312,-0.1481112056371312
73.67,0.16290102071133217,-0.16290102071133217
73.671,0.17653360663289674,-0.17653360663289674
73.67200000000001,0.18682463459131382,-0.18682463459131382
73.673,0.19299032281831552,-0.19299032281831552
73.674,0.1957829200063138,-0.1957829200063138
73.67500000000001,0.19694432701151632,-0.19694432701151632
73.676,0.19819175050667748,-0.19819175050667748
73.677,0.20016492249301876,-0.20016492249301876
73.67800000000001,0.20181203727062036,-0.20181203727062036
73.679,0.20054282827542413,-0.20054282827542413
73.68,0.1931810517905409,-0.1931810517905409
73.68100000000001,0.17741503778791712,-0.17741503778791712
73.682,0.153204554708689,-0.153204554708689
73.683,0.12355652664565409,-0.12355652664565409
73.68400000000001,0.09426300828948497,-0.09426300828948497
73.685,0.07254895939411121,-0.07254895939411121
73.686,0.06498241657330417,-0.06498241657330417
73.68700000000001,0.07530703072330946,-0.07530703072330946
73.688,0.10294609384177156,-0.10294609384177156
73.68900000000001,0.14275170112900792,-0.14275170112900792
73.69000000000001,0.1861806914204378,-0.1861806914204378
73.691,0.22359955975012424,-0.22359955975012424
73.69200000000001,0.24702006179675895,-0.24702006179675895
73.69300000000001,0.25239080678786474,-0.25239080678786474
73.694,0.24068862430853244,-0.24068862430853244
73.69500000000001,0.21743577287232196,-0.21743577287232196
73.69600000000001,0.19079002943818468,-0.19079002943818468
73.697,0.16883702474876705,-0.16883702474876705
73.69800000000001,0.15698965776069518,-0.15698965776069518
73.69900000000001,0.15636843357322927,-0.15636843357322927
73.7,0.16370457410236605,-0.16370457410236605
73.70100000000001,0.1727853060456136,-0.1727853060456136
73.70200000000001,0.17692655057450468,-0.17692655057450468
73.703,0.1715977261427133,-0.1715977261427133
73.70400000000001,0.15626394135728805,-0.15626394135728805
73.70500000000001,0.1347767188772363,-0.1347767188772363
73.706,0.11414692561207807,-0.11414692561207807
73.70700000000001,0.10210092745249377,-0.10210092745249377
73.70800000000001,0.10425691836400153,-0.10425691836400153
73.709,0.12191013887343649,-0.12191013887343649
73.71000000000001,0.15122723438288488,-0.15122723438288488
73.71100000000001,0.18418201226951925,-0.18418201226951925
73.712,0.21097465049821862,-0.21097465049821862
73.71300000000001,0.22316439292460566,-0.22316439292460566
73.71400000000001,0.21648697925182092,-0.21648697925182092
73.715,0.19241235730545503,-0.19241235730545503
73.71600000000001,0.15789961609055692,-0.15789961609055692
73.71700000000001,0.12339160647867875,-0.12339160647867875
73.718,0.09966668638536902,-0.09966668638536902
73.71900000000001,0.094538870296069,-0.094538870296069
73.72000000000001,0.1104478747735943,-0.1104478747735943
73.721,0.14369301851531557,-0.14369301851531557
73.72200000000001,0.18553729782195294,-0.18553729782195294
73.72300000000001,0.22481543196981102,-0.22481543196981102
73.724,0.2512155132045487,-0.2512155132045487
73.72500000000001,0.25821505471975115,-0.25821505471975115
73.72600000000001,0.24479195216757843,-0.24479195216757843
73.727,0.21544374071871097,-0.21544374071871097
73.72800000000001,0.17859208464181064,-0.17859208464181064
73.72900000000001,0.14394406314998076,-0.14394406314998076
73.73,0.11967123136497759,-0.11967123136497759
73.73100000000001,0.1102691522346787,-0.1102691522346787
73.732,0.11568930838881186,-0.11568930838881186
73.733,0.1318952288473798,-0.1318952288473798
73.73400000000001,0.15253799499081044,-0.15253799499081044
73.735,0.17112199544293227,-0.17112199544293227
73.736,0.18293590047053787,-0.18293590047053787
73.73700000000001,0.18617054907789554,-0.18617054907789554
73.738,0.1819675033877528,-0.1819675033877528
73.739,0.17351843107682152,-0.17351843107682152
73.74000000000001,0.1646358893814721,-0.1646358893814721
73.741,0.15834568616979983,-0.15834568616979983
73.742,0.1559804346137441,-0.1559804346137441
73.74300000000001,0.1570248791367963,-0.1570248791367963
73.744,0.1596694228765262,-0.1596694228765262
73.745,0.16177800269488163,-0.16177800269488163
73.74600000000001,0.16185532877322173,-0.16185532877322173
73.747,0.15963962251117403,-0.15963962251117403
73.748,0.15612290342644097,-0.15612290342644097
73.74900000000001,0.15303728209789247,-0.15303728209789247
73.75,0.15205105150305454,-0.15205105150305454
73.751,0.15401797815279106,-0.15401797815279106
73.75200000000001,0.15858556748909314,-0.15858556748909314
73.753,0.16431415396058335,-0.16431415396058335
73.754,0.1692516608579544,-0.1692516608579544
73.75500000000001,0.17172919460227087,-0.17172919460227087
73.756,0.17105759221524008,-0.17105759221524008
73.757,0.1678445253868045,-0.1678445253868045
73.75800000000001,0.16379848306703904,-0.16379848306703904
73.759,0.16108317129628824,-0.16108317129628824
73.76,0.1614592728888924,-0.1614592728888924
73.76100000000001,0.16553581237322823,-0.16553581237322823
73.762,0.17241950489765412,-0.17241950489765412
73.763,0.17991016900226098,-0.17991016900226098
73.76400000000001,0.18519465147467318,-0.18519465147467318
73.765,0.18581115578608476,-0.18581115578608476
73.766,0.18055462764450425,-0.18055462764450425
73.76700000000001,0.17000735582357707,-0.17000735582357707
73.768,0.15650189245938928,-0.15650189245938928
73.769,0.14351247681184387,-0.14351247681184387
73.77000000000001,0.13466097986801462,-0.13466097986801462
73.771,0.13264967324507948,-0.13264967324507948
73.772,0.1384547059163811,-0.1384547059163811
73.77300000000001,0.15102638660100443,-0.15102638660100443
73.774,0.16757741471440935,-0.16757741471440935
73.775,0.18435487733525346,-0.18435487733525346
73.77600000000001,0.19764740323284058,-0.19764740323284058
73.777,0.20472031094550958,-0.20472031094550958
73.778,0.20441330657140744,-0.20441330657140744
73.77900000000001,0.19725787034652564,-0.19725787034652564
73.78,0.1851300430124475,-0.1851300430124475
73.781,0.17059499607982775,-0.17059499607982775
73.78200000000001,0.15617817479000162,-0.15617817479000162
73.783,0.1437932792375014,-0.1437932792375014
73.784,0.1344782554070052,-0.1344782554070052
73.78500000000001,0.1284693638783897,-0.1284693638783897
73.786,0.12552439843770424,-0.12552439843770424
73.787,0.1253292565832731,-0.1253292565832731
73.78800000000001,0.1278100703950844,-0.1278100703950844
73.789,0.13322508858926163,-0.13322508858926163
73.79,0.14200395958130563,-0.14200395958130563
73.79100000000001,0.1544020685041676,-0.1544020685041676
73.792,0.1701093950033601,-0.1701093950033601
73.793,0.18797401843251382,-0.18797401843251382
73.79400000000001,0.2059654171636801,-0.2059654171636801
73.795,0.22142611018813319,-0.22142611018813319
73.796,0.23156844208498062,-0.23156844208498062
73.79700000000001,0.23409578637982698,-0.23409578637982698
73.798,0.22778687474997972,-0.22778687474997972
73.799,0.21288807185852177,-0.21288807185852177
73.80000000000001,0.191206393222617,-0.191206393222617
73.801,0.16586977050180896,-0.16586977050180896
73.802,0.14079928827140376,-0.14079928827140376
73.80300000000001,0.12000132764738214,-0.12000132764738214
73.804,0.1068229538672758,-0.1068229538672758
73.805,0.10331737273070185,-0.10331737273070185
73.80600000000001,0.10984139520951042,-0.10984139520951042
73.807,0.12496181031994702,-0.12496181031994702
73.808,0.14569198904159386,-0.14569198904159386
73.80900000000001,0.16802268446896884,-0.16802268446896884
73.81,0.18765909385827106,-0.18765909385827106
73.811,0.20083609224474097,-0.20083609224474097
73.81200000000001,0.2050612620904907,-0.2050612620904907
73.813,0.19963685275082044,-0.19963685275082044
73.81400000000001,0.1858413935591685,-0.1858413935591685
73.81500000000001,0.16670949257811696,-0.16670949257811696
73.816,0.1464278931807158,-0.1464278931807158
73.81700000000001,0.12945304320325024,-0.12945304320325024
73.81800000000001,0.11953022460295593,-0.11953022460295593
73.819,0.11883524460490691,-0.11883524460490691
73.82000000000001,0.1274503438382869,-0.1274503438382869
73.82100000000001,0.1433211860422383,-0.1433211860422383
73.822,0.1627315961035085,-0.1627315961035085
73.82300000000001,0.1812018960623457,-0.1812018960623457
73.82400000000001,0.1945994431012299,-0.1945994431012299
73.825,0.20018069733188215,-0.20018069733188215
73.82600000000001,0.19728694229311394,-0.19728694229311394
73.82700000000001,0.18749594473321818,-0.18749594473321818
73.828,0.17417234900352396,-0.17417234900352396
73.82900000000001,0.1615242312327514,-0.1615242312327514
73.83000000000001,0.1534159390185278,-0.1534159390185278
73.831,0.15226541786044534,-0.15226541786044534
73.83200000000001,0.15834145923925114,-0.15834145923925114
73.83300000000001,0.1696719079832426,-0.1696719079832426
73.834,0.18260418740182127,-0.18260418740182127
73.83500000000001,0.19287153937929413,-0.19287153937929413
73.83600000000001,0.19686666034667544,-0.19686666034667544
73.837,0.19275495450239288,-0.19275495450239288
73.83800000000001,0.1810957563930332,-0.1810957563930332
73.83900000000001,0.16477439146507888,-0.16477439146507888
73.84,0.14824419419062884,-0.14824419419062884
73.84100000000001,0.1362795174529271,-0.1362795174529271
73.84200000000001,0.13258904870822097,-0.13258904870822097
73.843,0.1386885002542868,-0.1386885002542868
73.84400000000001,0.15336619622939363,-0.15336619622939363
73.84500000000001,0.17291119032024582,-0.17291119032024582
73.846,0.19205756284515174,-0.19205756284515174
73.84700000000001,0.20539272024498456,-0.20539272024498456
73.84800000000001,0.20884184588967947,-0.20884184588967947
73.849,0.20081504740214107,-0.20081504740214107
73.85000000000001,0.182696098417097,-0.182696098417097
73.85100000000001,0.15853538363027808,-0.15853538363027808
73.852,0.13403149505167633,-0.13403149505167633
73.85300000000001,0.11508184841791824,-0.11508184841791824
73.85400000000001,0.10629683189570394,-0.10629683189570394
73.855,0.10987312379019787,-0.10987312379019787
73.85600000000001,0.12511219957259434,-0.12511219957259434
73.857,0.14868421289060674,-0.14868421289060674
73.858,0.1755311957149439,-0.1755311957149439
73.85900000000001,0.20013683090859957,-0.20013683090859957
73.86,0.21780897585192438,-0.21780897585192438
73.861,0.22564451093399795,-0.22564451093399795
73.86200000000001,0.22296094057982518,-0.22296094057982518
73.863,0.21114588051039707,-0.21114588051039707
73.864,0.19304120314000217,-0.19304120314000217
73.86500000000001,0.1720938620711241,-0.1720938620711241
73.866,0.1515396645542919,-0.1515396645542919
73.867,0.13383618696621435,-0.13383618696621435
73.86800000000001,0.12045013909826874,-0.12045013909826874
73.869,0.11197406095003237,-0.11197406095003237
73.87,0.10844193354000486,-0.10844193354000486
73.87100000000001,0.1096662529275606,-0.1096662529275606
73.872,0.11544157095938556,-0.11544157095938556
73.873,0.12553805285568465,-0.12553805285568465
73.87400000000001,0.13951095527597646,-0.13951095527597646
73.875,0.15643885068454988,-0.15643885068454988
73.876,0.17474265940572464,-0.17474265940572464
73.87700000000001,0.19221495983613857,-0.19221495983613857
73.878,0.2063131854683119,-0.2063131854683119
73.879,0.21466902233234342,-0.21466902233234342
73.88000000000001,0.21567662605917237,-0.21567662605917237
73.881,0.20897724794892547,-0.20897724794892547
73.882,0.1956749437162062,-0.1956749437162062
73.88300000000001,0.17819296890470937,-0.17819296890470937
73.884,0.15978875523360936,-0.15978875523360936
73.885,0.14385082476168087,-0.14385082476168087
73.88600000000001,0.13316827262772224,-0.13316827262772224
73.887,0.12937017315961397,-0.12937017315961397
73.888,0.13267668829501433,-0.13267668829501433
73.88900000000001,0.14200509251657534,-0.14200509251657534
73.89,0.15536593153408496,-0.15536593153408496
73.891,0.17040323169503124,-0.17040323169503124
73.89200000000001,0.1849043134233349,-0.1849043134233349
73.893,0.1971367527106761,-0.1971367527106761
73.894,0.20594864314519468,-0.20594864314519468
73.89500000000001,0.21066368914958855,-0.21066368914958855
73.896,0.21087949208465306,-0.21087949208465306
73.897,0.2063074256840135,-0.2063074256840135
73.89800000000001,0.19676463388144627,-0.19676463388144627
73.899,0.18235308321130073,-0.18235308321130073
73.9,0.16376537883290399,-0.16376537883290399
73.90100000000001,0.14257862341881844,-0.14257862341881844
73.902,0.1213679270951874,-0.1213679270951874
73.903,0.10350625544482028,-0.10350625544482028
73.90400000000001,0.09261079376073056,-0.09261079376073056
73.905,0.09172030649894758,-0.09172030649894758
73.906,0.10240249963866077,-0.10240249963866077
73.90700000000001,0.12405452404199246,-0.12405452404199246
73.908,0.15364628111183032,-0.15364628111183032
73.909,0.1860609720254971,-0.1860609720254971
73.91000000000001,0.2150319836619894,-0.2150319836619894
73.911,0.2345017880920397,-0.2345017880920397
73.912,0.2400877225936039,-0.2400877225936039
73.91300000000001,0.23027571495098687,-0.23027571495098687
73.914,0.20700082034003775,-0.20700082034003775
73.915,0.17540948764692732,-0.17540948764692732
73.91600000000001,0.142801186109891,-0.142801186109891
73.917,0.1169643621144516,-0.1169643621144516
73.918,0.10429495948194267,-0.10429495948194267
73.91900000000001,0.10816557301329355,-0.10816557301329355
73.92,0.12797357880116733,-0.12797357880116733
73.921,0.15914228318135537,-0.15914228318135537
73.92200000000001,0.19411608564500027,-0.19411608564500027
73.923,0.22413699753826066,-0.22413699753826066
73.924,0.2413813483847116,-0.2413813483847116
73.92500000000001,0.24092838065659083,-0.24092838065659083
73.926,0.22205826222289327,-0.22205826222289327
73.927,0.18853361153508874,-0.18853361153508874
73.92800000000001,0.14776932793484132,-0.14776932793484132
73.929,0.10907779367812032,-0.10907779367812032
73.93,0.08141745108575582,-0.08141745108575582
73.93100000000001,0.07120802124195302,-0.07120802124195302
73.932,0.08076688057380854,-0.08076688057380854
73.933,0.1077671873548296,-0.1077671873548296
73.93400000000001,0.14585689817300762,-0.14585689817300762
73.935,0.18627644603526694,-0.18627644603526694
73.936,0.22005172297839748,-0.22005172297839748
73.93700000000001,0.24018921428290074,-0.24018921428290074
73.938,0.24330374255732634,-0.24330374255732634
73.93900000000001,0.2302667699404355,-0.2302667699404355
73.94000000000001,0.20573218626993606,-0.20573218626993606
73.941,0.17670268467528005,-0.17670268467528005
73.94200000000001,0.15055751507922766,-0.15055751507922766
73.94300000000001,0.13309901697581727,-0.13309901697581727
73.944,0.12715267595746949,-0.12715267595746949
73.94500000000001,0.13208142064816875,-0.13208142064816875
73.94600000000001,0.14430165894506397,-0.14430165894506397
73.947,0.15859745018932958,-0.15859745018932958
73.94800000000001,0.1698064013089322,-0.1698064013089322
73.94900000000001,0.174361322157776,-0.174361322157776
73.95,0.17123927007137918,-0.17123927007137918
73.95100000000001,0.16206990242327846,-0.16206990242327846
73.95200000000001,0.15042305286068236,-0.15042305286068236
73.953,0.14054626736075992,-0.14054626736075992
73.95400000000001,0.13597889237057215,-0.13597889237057215
73.95500000000001,0.1384842134846841,-0.1384842134846841
73.956,0.147615282827551,-0.147615282827551
73.95700000000001,0.16100906487306765,-0.16100906487306765
73.95800000000001,0.17526277789270528,-0.17526277789270528
73.959,0.18706560579134668,-0.18706560579134668
73.96000000000001,0.19419584017913638,-0.19419584017913638
73.96100000000001,0.19606435689573698,-0.19606435689573698
73.962,0.1936605895754987,-0.1936605895754987
73.96300000000001,0.18897238521081605,-0.18897238521081605
73.96400000000001,0.1841299080559865,-0.1841299080559865
73.965,0.18060462879694394,-0.18060462879694394
73.96600000000001,0.1787522688327935,-0.1787522688327935
73.96700000000001,0.17784295460634802,-0.17784295460634802
73.968,0.1765294342027942,-0.1765294342027942
73.96900000000001,0.1735377825982154,-0.1735377825982154
73.97000000000001,0.16828666019617977,-0.16828666019617977
73.971,0.16117938319001957,-0.16117938319001957
73.97200000000001,0.15345205647590943,-0.15345205647590943
73.97300000000001,0.14664647035519474,-0.14664647035519474
73.974,0.14193558411393858,-0.14193558411393858
73.97500000000001,0.1395983802889832,-0.1395983802889832
73.97600000000001,0.13888942184176623,-0.13888942184176623
73.977,0.1383925004007407,-0.1383925004007407
73.97800000000001,0.13674491548428103,-0.13674491548428103
73.97900000000001,0.1334479696081311,-0.1334479696081311
73.98,0.12941089131638384,-0.12941089131638384
73.98100000000001,0.1269446490025804,-0.1269446490025804
73.982,0.12911300145000737,-0.12911300145000737
73.983,0.13859666751612398,-0.13859666751612398
73.98400000000001,0.1564419160857734,-0.1564419160857734
73.985,0.1811619679554075,-0.1811619679554075
73.986,0.2085908260697914,-0.2085908260697914
73.98700000000001,0.23266470045216892,-0.23266470045216892
73.988,0.24699405166072097,-0.24699405166072097
73.989,0.24679426861900566,-0.24679426861900566
73.99000000000001,0.23057138575998426,-0.23057138575998426
73.991,0.2009809035208434,-0.2009809035208434
73.992,0.16449936738666449,-0.16449936738666449
73.99300000000001,0.12990755128506803,-0.12990755128506803
73.994,0.10596774597703162,-0.10596774597703162
73.995,0.09895855349874216,-0.09895855349874216
73.99600000000001,0.11081050047524599,-0.11081050047524599
73.997,0.13843006616783038,-0.13843006616783038
73.998,0.1744511929037087,-0.1744511929037087
73.99900000000001,0.20922002171017906,-0.20922002171017906
74.0,0.23343889232690285,-0.23343889232690285
74.001,0.24069255695641123,-0.24069255695641123
74.00200000000001,0.22911933026811515,-0.22911933026811515
74.003,0.20175946271484924,-0.20175946271484924
74.004,0.165524086067116,-0.165524086067116
74.00500000000001,0.1291466877189983,-0.1291466877189983
74.006,0.10077062260457337,-0.10077062260457337
74.007,0.08590045159077919,-0.08590045159077919
74.00800000000001,0.08628566740221288,-0.08628566740221288
74.009,0.09997442877218121,-0.09997442877218121
74.01,0.12238938742887062,-0.12238938742887062
74.01100000000001,0.14796864746866578,-0.14796864746866578
74.012,0.17178199235850733,-0.17178199235850733
74.013,0.1906104125654462,-0.1906104125654462
74.01400000000001,0.20322526092509563,-0.20322526092509563
74.015,0.20992320293556999,-0.20992320293556999
74.016,0.2116442707700127,-0.2116442707700127
74.01700000000001,0.2091251126906961,-0.2091251126906961
74.018,0.2024779059865095,-0.2024779059865095
74.019,0.19136845915189304,-0.19136845915189304
74.02000000000001,0.17568427924810404,-0.17568427924810404
74.021,0.15634860301415499,-0.15634860301415499
74.022,0.13584460788638508,-0.13584460788638508
74.02300000000001,0.11810541221156945,-0.11810541221156945
74.024,0.10766955488832375,-0.10766955488832375
74.025,0.10830766500491418,-0.10830766500491418
74.02600000000001,0.1215760426181115,-0.1215760426181115
74.027,0.14584553186557814,-0.14584553186557814
74.028,0.17624323542668696,-0.17624323542668696
74.02900000000001,0.20565845670859506,-0.20565845670859506
74.03,0.22659747607955094,-0.22659747607955094
74.031,0.23335330591123826,-0.23335330591123826
74.03200000000001,0.22380390651130622,-0.22380390651130622
74.033,0.20022871284077814,-0.20022871284077814
74.034,0.16882325870997106,-0.16882325870997106
74.03500000000001,0.1380040704317852,-0.1380040704317852
74.036,0.1159940157814574,-0.1159940157814574
74.037,0.10842614884339108,-0.10842614884339108
74.03800000000001,0.11671429023945934,-0.11671429023945934
74.039,0.1377030777455177,-0.1377030777455177
74.04,0.1647043487999652,-0.1647043487999652
74.04100000000001,0.18958425124649925,-0.18958425124649925
74.042,0.20523330313928323,-0.20523330313928323
74.043,0.20763964145182223,-0.20763964145182223
74.04400000000001,0.19692938890529932,-0.19692938890529932
74.045,0.17708664014856634,-0.17708664014856634
74.046,0.15449981478957386,-0.15449981478957386
74.04700000000001,0.13585465451804812,-0.13585465451804812
74.048,0.1260836160909945,-0.1260836160909945
74.049,0.12702832467795688,-0.12702832467795688
74.05000000000001,0.13720136588279352,-0.13720136588279352
74.051,0.15264481849536626,-0.15264481849536626
74.052,0.1685124305632224,-0.1685124305632224
74.05300000000001,0.1807770519138886,-0.1807770519138886
74.054,0.18745787318033236,-0.18745787318033236
74.055,0.1889681129819979,-0.1889681129819979
74.05600000000001,0.18752331290224677,-0.18752331290224677
74.057,0.18589848378134854,-0.18589848378134854
74.058,0.18605389112019233,-0.18605389112019233
74.05900000000001,0.1881831942996559,-0.1881831942996559
74.06,0.19056501616541022,-0.19056501616541022
74.061,0.19028524882318087,-0.19028524882318087
74.06200000000001,0.18455822595429716,-0.18455822595429716
74.063,0.172134686965147,-0.172134686965147
74.06400000000001,0.15423187616106593,-0.15423187616106593
74.06500000000001,0.1345776294231551,-0.1345776294231551
74.066,0.11847258030610064,-0.11847258030610064
74.06700000000001,0.11113329190950039,-0.11113329190950039
74.06800000000001,0.11585710359286783,-0.11585710359286783
74.069,0.13264642575126595,-0.13264642575126595
74.07000000000001,0.15780759296781766,-0.15780759296781766
74.07100000000001,0.18473411821446295,-0.18473411821446295
74.072,0.20569629900906716,-0.20569629900906716
74.07300000000001,0.21411783985590205,-0.21411783985590205
74.07400000000001,0.20664024762330413,-0.20664024762330413
74.075,0.1843190314421701,-0.1843190314421701
74.07600000000001,0.1525506012474166,-0.1525506012474166
74.07700000000001,0.11971446482346726,-0.11971446482346726
74.078,0.09490906429842161,-0.09490906429842161
74.07900000000001,0.0854369744601664,-0.0854369744601664
74.08000000000001,0.0947704186269116,-0.0947704186269116
74.081,0.12158067384146609,-0.12158067384146609
74.08200000000001,0.1600946788002069,-0.1600946788002069
74.08300000000001,0.20165117543140865,-0.20165117543140865
74.084,0.23698765180747594,-0.23698765180747594
74.08500000000001,0.258598897288041,-0.258598897288041
74.08600000000001,0.26251840981347696,-0.26251840981347696
74.087,0.249071967867026,-0.249071967867026
74.08800000000001,0.2224691183141373,-0.2224691183141373
74.08900000000001,0.18943236970898225,-0.18943236970898225
74.09,0.15731607926846725,-0.15731607926846725
74.09100000000001,0.13226948875348354,-0.13226948875348354
74.09200000000001,0.11793308672360014,-0.11793308672360014
74.093,0.114957910377675,-0.114957910377675
74.09400000000001,0.12137414993789286,-0.12137414993789286
74.09500000000001,0.1335917362540896,-0.1335917362540896
74.096,0.14766119250179488,-0.14766119250179488
74.09700000000001,0.16039441284539746,-0.16039441284539746
74.09800000000001,0.17003773163176206,-0.17003773163176206
74.099,0.17636359990226957,-0.17636359990226957
74.10000000000001,0.18024220992238627,-0.18024220992238627
74.10100000000001,0.18291007338376697,-0.18291007338376697
74.102,0.18522601917502457,-0.18522601917502457
74.10300000000001,0.187181828710545,-0.187181828710545
74.10400000000001,0.18782998542524476,-0.18782998542524476
74.105,0.1856424405430691,-0.1856424405430691
74.10600000000001,0.17916919329409742,-0.17916919329409742
74.107,0.16776669719428383,-0.16776669719428383
74.108,0.1521405953955155,-0.1521405953955155
74.10900000000001,0.13450003810143085,-0.13450003810143085
74.11,0.11823498549929845,-0.11823498549929845
74.111,0.10717037982778166,-0.10717037982778166
74.11200000000001,0.10458181395259758,-0.10458181395259758
74.113,0.11223967511426203,-0.11223967511426203
74.114,0.12975869059638867,-0.12975869059638867
74.11500000000001,0.1544621108675538,-0.1544621108675538
74.116,0.1818397105656494,-0.1818397105656494
74.117,0.20651901031418363,-0.20651901031418363
74.11800000000001,0.22352203729208986,-0.22352203729208986
74.119,0.22948711809441036,-0.22948711809441036
74.12,0.22352604231020867,-0.22352604231020867
74.12100000000001,0.2074695751991127,-0.2074695751991127
74.122,0.1854114320858603,-0.1854114320858603
74.123,0.16265241138135078,-0.16265241138135078
74.12400000000001,0.14431926426269737,-0.14431926426269737
74.125,0.13403538427918849,-0.13403538427918849
74.126,0.13301801274484948,-0.13301801274484948
74.12700000000001,0.13986399310119946,-0.13986399310119946
74.128,0.15109096685441314,-0.15109096685441314
74.129,0.16227820934012194,-0.16227820934012194
74.13000000000001,0.16946787957495368,-0.16946787957495368
74.131,0.17040172141736842,-0.17040172141736842
74.132,0.1652110465773705,-0.1652110465773705
74.13300000000001,0.15634083661523834,-0.15634083661523834
74.134,0.14772498175427207,-0.14772498175427207
74.135,0.14346646504540217,-0.14346646504540217
74.13600000000001,0.14643801383397403,-0.14643801383397403
74.137,0.15725122055289642,-0.15725122055289642
74.138,0.17393148010745207,-0.17393148010745207
74.13900000000001,0.19241479163908803,-0.19241479163908803
74.14,0.20772025078532186,-0.20772025078532186
74.141,0.21543382776926878,-0.21543382776926878
74.14200000000001,0.21303694251793992,-0.21303694251793992
74.143,0.20066228912494566,-0.20066228912494566
74.144,0.181044373522514,-0.181044373522514
74.14500000000001,0.15869263829642843,-0.15869263829642843
74.146,0.13856432856353518,-0.13856432856353518
74.147,0.12466916729975286,-0.12466916729975286
74.14800000000001,0.11904705244580938,-0.11904705244580938
74.149,0.12142174556679675,-0.12142174556679675
74.15,0.12959694249369325,-0.12959694249369325
74.15100000000001,0.14040907926139778,-0.14040907926139778
74.152,0.15087152048954233,-0.15087152048954233
74.153,0.15909914592321062,-0.15909914592321062
74.15400000000001,0.1647044901925866,-0.1647044901925866
74.155,0.1685671072185858,-0.1685671072185858
74.156,0.17211823977041008,-0.17211823977041008
74.15700000000001,0.17646390231635034,-0.17646390231635034
74.158,0.1817236600639902,-0.1817236600639902
74.159,0.18686914398516408,-0.18686914398516408
74.16000000000001,0.19014031899625483,-0.19014031899625483
74.161,0.18987664751206146,-0.18987664751206146
74.162,0.18541755568292917,-0.18541755568292917
74.16300000000001,0.17767551799210501,-0.17767551799210501
74.164,0.1690913332485574,-0.1690913332485574
74.165,0.16291126680160684,-0.16291126680160684
74.16600000000001,0.1619972175837241,-0.1619972175837241
74.167,0.1675913953644962,-0.1675913953644962
74.168,0.17852107904325054,-0.17852107904325054
74.16900000000001,0.19121192062738324,-0.19121192062738324
74.17,0.2006107595674873,-0.2006107595674873
74.171,0.20178968398649577,-0.20178968398649577
74.17200000000001,0.19172917320827487,-0.19172917320827487
74.173,0.17066376815156892,-0.17066376815156892
74.174,0.14247160862250452,-0.14247160862250452
74.17500000000001,0.11387889076533841,-0.11387889076533841
74.176,0.09264166080070602,-0.09264166080070602
74.177,0.08522909961301117,-0.08522909961301117
74.17800000000001,0.09473671250416182,-0.09473671250416182
74.179,0.1197253988270881,-0.1197253988270881
74.18,0.1544125665982763,-0.1544125665982763
74.18100000000001,0.1902156540219616,-0.1902156540219616
74.182,0.21820496893444397,-0.21820496893444397
74.183,0.2317111615527533,-0.2317111615527533
74.18400000000001,0.22826237925302084,-0.22826237925302084
74.185,0.21022778106699946,-0.21022778106699946
74.186,0.18395656835297625,-0.18395656835297625
74.18700000000001,0.15769091801106705,-0.15769091801106705
74.188,0.13893419458441847,-0.13893419458441847
74.18900000000001,0.13213575937837152,-0.13213575937837152
74.19000000000001,0.13744716992628547,-0.13744716992628547
74.191,0.1509444510376554,-0.1509444510376554
74.19200000000001,0.16621687475434677,-0.16621687475434677
74.19300000000001,0.17676079014358737,-0.17676079014358737
74.194,0.17834475345954415,-0.17834475345954415
74.19500000000001,0.17052371454024917,-0.17052371454024917
74.19600000000001,0.15677351364084224,-0.15677351364084224
74.197,0.1431942029102028,-0.1431942029102028
74.19800000000001,0.1362296484170451,-0.1362296484170451
74.19900000000001,0.14020034891171962,-0.14020034891171962
74.2,0.155524666736787,-0.155524666736787
74.20100000000001,0.17828046097020722,-0.17828046097020722
74.20200000000001,0.20130697648658546,-0.20130697648658546
74.203,0.21651736910359587,-0.21651736910359587
74.20400000000001,0.2176652206606473,-0.2176652206606473
74.20500000000001,0.2026309154851691,-0.2026309154851691
74.206,0.1744299882583713,-0.1744299882583713
74.20700000000001,0.14055430972254934,-0.14055430972254934
74.20800000000001,0.11080472834683286,-0.11080472834683286
74.209,0.09427898674810276,-0.09427898674810276
74.21000000000001,0.09647246565787992,-0.09647246565787992
74.21100000000001,0.11743188231378576,-0.11743188231378576
74.212,0.15157650495205965,-0.15157650495205965
74.21300000000001,0.18927264722255466,-0.18927264722255466
74.21400000000001,0.219687183670626,-0.219687183670626
74.215,0.23403671045276375,-0.23403671045276375
74.21600000000001,0.22822297574435912,-0.22822297574435912
74.21700000000001,0.20404151687890004,-0.20404151687890004
74.218,0.16860324851412556,-0.16860324851412556
74.21900000000001,0.13216994744459043,-0.13216994744459043
74.22000000000001,0.10509325652053259,-0.10509325652053259
74.221,0.09480868050605995,-0.09480868050605995
74.22200000000001,0.1037929914257738,-0.1037929914257738
74.22300000000001,0.12906725696100263,-0.12906725696100263
74.224,0.16333035817598507,-0.16333035817598507
74.22500000000001,0.19730279916884375,-0.19730279916884375
74.22600000000001,0.22250816646634453,-0.22250816646634453
74.227,0.2336252037390414,-0.2336252037390414
74.22800000000001,0.2297255197225866,-0.2297255197225866
74.22900000000001,0.21409925523962858,-0.21409925523962858
74.23,0.19282968556684976,-0.19282968556684976
74.23100000000001,0.172657392424859,-0.172657392424859
74.232,0.15885825532901143,-0.15885825532901143
74.233,0.1537998623714807,-0.1537998623714807
74.23400000000001,0.15657248533599344,-0.15657248533599344
74.235,0.163713989121005,-0.163713989121005
74.236,0.17069277823517204,-0.17069277823517204
