Czas,AbsSum,Sum
146.70600000000002,0.1848031496446485,-0.1848031496446485
146.707,0.027188667646723452,-0.027188667646723452
146.708,0.13946908426114835,0.13946908426114835
146.709,0.28162539573917367,0.28162539573917367
146.71,0.37109051257953407,0.37109051257953407
146.711,0.3914664221320292,0.3914664221320292
146.71200000000002,0.34173390799816716,0.34173390799816716
146.713,0.23615707206355108,0.23615707206355108
146.714,0.10059495850318023,0.10059495850318023
146.715,0.03380947034685533,-0.03380947034685533
146.716,0.13797452011385014,-0.13797452011385014
146.717,0.19146316222031512,-0.19146316222031512
146.71800000000002,0.18675276036826882,-0.18675276036826882
146.719,0.13026059842632065,-0.13026059842632065
146.72,0.04002582594033255,-0.04002582594033255
146.721,0.059226653198299894,0.059226653198299894
146.722,0.1423045759967112,0.1423045759967112
146.723,0.1894652514932913,0.1894652514932913
146.72400000000002,0.19061152476223087,0.19061152476223087
146.725,0.14686495630606977,0.14686495630606977
146.726,0.06933562972801077,0.06933562972801077
146.727,0.024366484141213673,-0.024366484141213673
146.728,0.11479765902048322,-0.11479765902048322
146.729,0.1852318094635539,-0.1852318094635539
146.73000000000002,0.2249585790231562,-0.2249585790231562
146.731,0.23064393806550176,-0.23064393806550176
146.732,0.20567637332595923,-0.20567637332595923
146.733,0.15799560145109226,-0.15799560145109226
146.734,0.09727293040756724,-0.09727293040756724
146.735,0.03238345224703154,-0.03238345224703154
146.73600000000002,0.030121272219337802,0.030121272219337802
146.737,0.0862705745729122,0.0862705745729122
146.738,0.13388068228026917,0.13388068228026917
146.739,0.1712953228910017,0.1712953228910017
146.74,0.19637001525131237,0.19637001525131237
146.741,0.20625209223103202,0.20625209223103202
146.74200000000002,0.19813512243622866,0.19813512243622866
146.743,0.1707183458216004,0.1707183458216004
146.744,0.12574921764255698,0.12574921764255698
146.745,0.06890868780114667,0.06890868780114667
146.746,0.00947074787662694,0.00947074787662694
146.747,0.04141865258933064,-0.04141865258933064
146.74800000000002,0.07348296333071369,-0.07348296333071369
146.749,0.08028389182903983,-0.08028389182903983
146.75,0.06144015435371153,-0.06144015435371153
146.751,0.023266345299219338,-0.023266345299219338
146.752,0.02254595489572675,0.02254595489572675
146.753,0.06196433580354488,0.06196433580354488
146.75400000000002,0.08254685582653432,0.08254685582653432
146.755,0.0771023222142162,0.0771023222142162
146.756,0.04593553917455573,0.04593553917455573
146.757,0.0030689688124811987,-0.0030689688124811987
146.758,0.05661597575717181,-0.05661597575717181
146.759,0.09980771891666174,-0.09980771891666174
146.76000000000002,0.1204536985879372,-0.1204536985879372
146.761,0.11257659654687224,-0.11257659654687224
146.762,0.07805606029085854,-0.07805606029085854
146.763,0.025936678446285333,-0.025936678446285333
146.764,0.030341921387129656,0.030341921387129656
146.765,0.07689533271013915,0.07689533271013915
146.76600000000002,0.10328713300334691,0.10328713300334691
146.767,0.10519081124003504,0.10519081124003504
146.768,0.08508595972747579,0.08508595972747579
146.769,0.05091086104249465,0.05091086104249465
146.77,0.013244332596655806,0.013244332596655806
146.77100000000002,0.017982116492276545,-0.017982116492276545
146.77200000000002,0.036168595358495925,-0.036168595358495925
146.773,0.0393449418917553,-0.0393449418917553
146.774,0.02983434581932154,-0.02983434581932154
146.775,0.012613348477025665,-0.012613348477025665
146.776,0.006883287990830489,0.006883287990830489
146.77700000000002,0.024647892356846945,0.024647892356846945
146.77800000000002,0.03901986138766844,0.03901986138766844
146.779,0.05042435247622179,0.05042435247622179
146.78,0.06020582735629665,0.06020582735629665
146.781,0.06918582328375278,0.06918582328375278
146.782,0.07665576129925533,0.07665576129925533
146.78300000000002,0.08030007498367353,0.08030007498367353
146.78400000000002,0.07712349501833615,0.07712349501833615
146.785,0.06500050945549263,0.06500050945549263
146.786,0.04416059659088334,0.04416059659088334
146.787,0.017897731858372623,0.017897731858372623
146.788,0.007933517388198252,-0.007933517388198252
146.78900000000002,0.02659870692415045,-0.02659870692415045
146.79000000000002,0.03281068902818152,-0.03281068902818152
146.791,0.02485546169707098,-0.02485546169707098
146.792,0.005663214817090423,-0.005663214817090423
146.793,0.017701973999115772,0.017701973999115772
146.794,0.03610665643353772,0.03610665643353772
146.79500000000002,0.041356471001883666,0.041356471001883666
146.79600000000002,0.029143500766275476,0.029143500766275476
146.797,0.0008785013001506581,0.0008785013001506581
146.798,0.03631325776827421,-0.03631325776827421
146.799,0.07154259118837536,-0.07154259118837536
146.8,0.093483442088238,-0.093483442088238
146.80100000000002,0.09400010682321214,-0.09400010682321214
146.80200000000002,0.07085403157641712,-0.07085403157641712
146.803,0.02855073079247228,-0.02855073079247228
146.804,0.022993573373549125,0.022993573373549125
146.805,0.0715402479643199,0.0715402479643199
146.806,0.10633542717884015,0.10633542717884015
146.80700000000002,0.12134359617246337,0.12134359617246337
146.80800000000002,0.11681009792220709,0.11681009792220709
146.809,0.09863916336536804,0.09863916336536804
146.81,0.07584482640066947,0.07584482640066947
146.811,0.05701708222623525,0.05701708222623525
146.812,0.0470988448585401,0.0470988448585401
146.81300000000002,0.04565962525335743,0.04565962525335743
146.81400000000002,0.047312174855169475,0.047312174855169475
146.815,0.04413615365285439,0.04413615365285439
146.816,0.029225869636356094,0.029225869636356094
146.817,3.731506198900725e-05,3.731506198900725e-05
146.818,0.039761129616256996,-0.039761129616256996
146.81900000000002,0.08072919395797573,-0.08072919395797573
146.82000000000002,0.11037646187607464,-0.11037646187607464
146.821,0.11732568116305053,-0.11732568116305053
146.822,0.09551724233147163,-0.09551724233147163
146.823,0.04696799137141194,-0.04696799137141194
146.824,0.01797150604635589,0.01797150604635589
146.82500000000002,0.0831053146015408,0.0831053146015408
146.82600000000002,0.1309485518676201,0.1309485518676201
146.827,0.1479562073267966,0.1479562073267966
146.828,0.12876181445722223,0.12876181445722223
146.829,0.07804455569328761,0.07804455569328761
146.83,0.009384309844835181,0.009384309844835181
146.83100000000002,0.05857860167428952,-0.05857860167428952
146.832,0.10750476616392624,-0.10750476616392624
146.833,0.1245879458273188,-0.1245879458273188
146.834,0.106066221313171,-0.106066221313171
146.835,0.05798608049977427,-0.05798608049977427
146.836,0.005925980942240727,0.005925980942240727
146.83700000000002,0.06852803670606478,0.06852803670606478
146.838,0.1142768088212538,0.1142768088212538
146.839,0.13344006305805634,0.13344006305805634
146.84,0.12429186652545976,0.12429186652545976
146.841,0.09277943130985067,0.09277943130985067
146.842,0.04997518607401896,0.04997518607401896
146.84300000000002,0.008297479173769329,0.008297479173769329
146.844,0.022212211006425786,-0.022212211006425786
146.845,0.03640509150786109,-0.03640509150786109
146.846,0.03468646494197458,-0.03468646494197458
146.847,0.021848796820341132,-0.021848796820341132
146.848,0.004705648426771791,-0.004705648426771791
146.84900000000002,0.010512392851077301,0.010512392851077301
146.85,0.020071376854660317,0.020071376854660317
146.851,0.023385566911213074,0.023385566911213074
146.852,0.02236316473304778,0.02236316473304778
146.853,0.019897128662599073,0.019897128662599073
146.854,0.018233724117252992,0.018233724117252992
146.85500000000002,0.017928834152155515,0.017928834152155515
146.856,0.017801614521919973,0.017801614521919973
146.857,0.015846341131453112,0.015846341131453112
146.858,0.010647053187075928,0.010647053187075928
146.859,0.002618884315567671,0.002618884315567671
146.86,0.005540488612542194,-0.005540488612542194
146.86100000000002,0.009489996154549818,-0.009489996154549818
146.862,0.004825720295074554,-0.004825720295074554
146.863,0.010956281508557986,0.010956281508557986
146.864,0.03688307641592958,0.03688307641592958
146.865,0.06800272836538723,0.06800272836538723
146.866,0.09629651196620315,0.09629651196620315
146.86700000000002,0.11284489883585191,0.11284489883585191
146.868,0.11061334649435683,0.11061334649435683
146.869,0.0869501718599508,0.0869501718599508
146.87,0.044921009717534766,0.044921009717534766
146.871,0.007056483703848149,-0.007056483703848149
146.872,0.057274287467860674,-0.057274287467860674
146.87300000000002,0.09392666579310238,-0.09392666579310238
146.874,0.10847410733626317,-0.10847410733626317
146.875,0.09812890249547124,-0.09812890249547124
146.876,0.06666397114584566,-0.06666397114584566
146.877,0.02326274392461558,-0.02326274392461558
146.878,0.020255675189240874,0.020255675189240874
146.87900000000002,0.05298421632852102,0.05298421632852102
146.88,0.06814588662804022,0.06814588662804022
146.881,0.06497825701493953,0.06497825701493953
146.882,0.048698549968271054,0.048698549968271054
146.883,0.028568664219439377,0.028568664219439377
146.884,0.014679953571526294,0.014679953571526294
146.88500000000002,0.014483398273910986,0.014483398273910986
146.886,0.03017403752208847,0.03017403752208847
146.887,0.05777314398769362,0.05777314398769362
146.888,0.08822087243897458,0.08822087243897458
146.889,0.1101616948385824,0.1101616948385824
146.89,0.11357085190315885,0.11357085190315885
146.89100000000002,0.09309780852767235,0.09309780852767235
146.892,0.050076602910408274,0.050076602910408274
146.893,0.00744911856775643,-0.00744911856775643
146.894,0.06673784664796523,-0.06673784664796523
146.895,0.11382942163178078,-0.11382942163178078
146.89600000000002,0.1374703814805467,-0.1374703814805467
146.89700000000002,0.13231861179898885,-0.13231861179898885
146.898,0.10046679040765627,-0.10046679040765627
146.899,0.05082155739148453,-0.05082155739148453
146.9,0.0034847583569697083,0.0034847583569697083
146.901,0.04888291360367192,0.04888291360367192
146.90200000000002,0.07522715311274597,0.07522715311274597
146.90300000000002,0.07857551084474346,0.07857551084474346
146.904,0.06206397271722763,0.06206397271722763
146.905,0.03462679925621037,0.03462679925621037
146.906,0.007972592281100255,0.007972592281100255
146.907,0.007238127035123831,-0.007238127035123831
146.90800000000002,0.00481903467825584,-0.00481903467825584
146.90900000000002,0.014988136772098759,0.014988136772098759
146.91,0.04565243749080028,0.04565243749080028
146.911,0.07654962872183857,0.07654962872183857
146.912,0.09652457284641147,0.09652457284641147
146.913,0.09768157884053896,0.09768157884053896
146.91400000000002,0.07816979561384296,0.07816979561384296
146.91500000000002,0.04302861377961675,0.04302861377961675
146.916,0.002763744017848513,0.002763744017848513
146.917,0.029946793618614853,-0.029946793618614853
146.918,0.044396221736536456,-0.044396221736536456
146.919,0.035510814550296255,-0.035510814550296255
146.92000000000002,0.005808927607909853,-0.005808927607909853
146.92100000000002,0.035053923891903205,0.035053923891903205
146.922,0.07310668955147448,0.07310668955147448
146.923,0.09443354486895195,0.09443354486895195
146.924,0.0897427485393596,0.0897427485393596
146.925,0.057666526477379465,0.057666526477379465
146.92600000000002,0.005677803839647222,0.005677803839647222
146.92700000000002,0.05176729562372551,-0.05176729562372551
146.928,0.0973805932749574,-0.0973805932749574
146.929,0.11626201499663247,-0.11626201499663247
146.93,0.10059017360865319,-0.10059017360865319
146.931,0.05230973185306531,-0.05230973185306531
146.93200000000002,0.017063697757981888,0.017063697757981888
146.93300000000002,0.08951812434786821,0.08951812434786821
146.934,0.14560361374471809,0.14560361374471809
146.935,0.16996036641968804,0.16996036641968804
146.936,0.155656237064403,0.155656237064403
146.937,0.10604734863826049,0.10604734863826049
146.93800000000002,0.03364853982387528,0.03364853982387528
146.93900000000002,0.04357668796470415,-0.04357668796470415
146.94,0.10732056472582185,-0.10732056472582185
146.941,0.14385909412397346,-0.14385909412397346
146.942,0.14735465229026135,-0.14735465229026135
146.943,0.12065827700006182,-0.12065827700006182
146.94400000000002,0.0735626436641037,-0.0735626436641037
146.94500000000002,0.019255507930283522,-0.019255507930283522
146.946,0.029766100237194726,0.029766100237194726
146.947,0.06499416808558123,0.06499416808558123
146.948,0.08347116826319367,0.08347116826319367
146.949,0.08733506987339301,0.08733506987339301
146.95000000000002,0.08178361369118048,0.08178361369118048
146.95100000000002,0.07240208576988505,0.07240208576988505
146.952,0.06293122089279768,0.06293122089279768
146.953,0.054280099747006094,0.054280099747006094
146.954,0.04503254889591668,0.04503254889591668
146.955,0.03307489312027645,0.03307489312027645
146.95600000000002,0.017526124842294433,0.017526124842294433
146.957,4.636721460116178e-05,4.636721460116178e-05
146.958,0.015128443514126566,-0.015128443514126566
146.959,0.022537282286870575,-0.022537282286870575
146.96,0.01774492586237364,-0.01774492586237364
146.961,0.00041025284632878467,0.00041025284632878467
146.96200000000002,0.02854444466963013,0.02854444466963013
146.963,0.05908773934462053,0.05908773934462053
146.964,0.0823338095948849,0.0823338095948849
146.965,0.08958292862398465,0.08958292862398465
146.966,0.07631297363114298,0.07631297363114298
146.967,0.04421807459077809,0.04421807459077809
146.96800000000002,0.0012850978816116854,0.0012850978816116854
146.969,0.040269681173956795,-0.040269681173956795
146.97,0.06763311197752353,-0.06763311197752353
146.971,0.0714493008061362,-0.0714493008061362
146.972,0.048954394886228436,-0.048954394886228436
146.973,0.005120552626337149,-0.005120552626337149
146.97400000000002,0.04861522318072686,0.04861522318072686
146.975,0.09765817511654662,0.09765817511654662
146.976,0.12853914247509568,0.12853914247509568
146.977,0.13279511026863644,0.13279511026863644
146.978,0.10922043785704294,0.10922043785704294
146.979,0.06383049450336054,0.06383049450336054
146.98000000000002,0.007660133381025114,0.007660133381025114
146.981,0.04676428318741044,-0.04676428318741044
146.982,0.08903926781141092,-0.08903926781141092
146.983,0.11339255131035697,-0.11339255131035697
146.984,0.11935935125755015,-0.11935935125755015
146.985,0.11060428500618458,-0.11060428500618458
146.98600000000002,0.09254296050585831,-0.09254296050585831
146.987,0.06981656105308642,-0.06981656105308642
146.988,0.044653021724116004,-0.044653021724116004
146.989,0.01672746703816863,-0.01672746703816863
146.99,0.015517611377826368,0.015517611377826368
146.991,0.05275797902167079,0.05275797902167079
146.99200000000002,0.09289733647254783,0.09289733647254783
146.993,0.13035625875918222,0.13035625875918222
146.994,0.15703457839740542,0.15703457839740542
146.995,0.16475571581017,0.16475571581017
146.996,0.14835619856251459,0.14835619856251459
146.997,0.10823582804422682,0.10823582804422682
146.99800000000002,0.05128404644063367,0.05128404644063367
146.999,0.010370629510558005,-0.010370629510558005
147.0,0.06256107672940603,-0.06256107672940603
147.001,0.09326011115040633,-0.09326011115040633
147.002,0.09633813200106656,-0.09633813200106656
147.003,0.07356582636292108,-0.07356582636292108
147.00400000000002,0.034083048950760864,-0.034083048950760864
147.005,0.00858270547394624,0.00858270547394624
147.006,0.04099756435240476,0.04099756435240476
147.007,0.05429317651662524,0.05429317651662524
147.008,0.04708149897698788,0.04708149897698788
147.009,0.025774496106588662,0.025774496106588662
147.01000000000002,0.0021606374182581156,0.0021606374182581156
147.011,0.010948674540177117,-0.010948674540177117
147.012,0.004497480024158507,-0.004497480024158507
147.013,0.023289472155680224,0.023289472155680224
147.014,0.06589662974811761,0.06589662974811761
147.015,0.11041992800275224,0.11041992800275224
147.01600000000002,0.14176539153669943,0.14176539153669943
147.017,0.14772208164316458,0.14772208164316458
147.018,0.12317365651064405,0.12317365651064405
147.019,0.07200303830834232,0.07200303830834232
147.02,0.006037568358217671,0.006037568358217671
147.02100000000002,0.058601190509836476,-0.058601190509836476
147.02200000000002,0.10649518363509813,-0.10649518363509813
147.023,0.1275849458544619,-0.1275849458544619
147.024,0.11994089446802048,-0.11994089446802048
147.025,0.089789871412146,-0.089789871412146
147.026,0.04889995803089631,-0.04889995803089631
147.02700000000002,0.010330088501575685,-0.010330088501575685
147.02800000000002,0.015923185767368953,0.015923185767368953
147.029,0.025878317547094243,0.025878317547094243
147.03,0.02217645239195698,0.02217645239195698
147.031,0.012275362983700022,0.012275362983700022
147.032,0.005029654762525704,0.005029654762525704
147.03300000000002,0.0070061025039556135,0.0070061025039556135
147.03400000000002,0.01992160173548352,0.01992160173548352
147.035,0.04011960133000869,0.04011960133000869
147.036,0.06020570747848075,0.06020570747848075
147.037,0.07214601511411423,0.07214601511411423
147.038,0.07059616464093854,0.07059616464093854
147.03900000000002,0.05516848917032546,0.05516848917032546
147.04000000000002,0.030772176162076503,0.030772176162076503
147.041,0.0059080191450766595,0.0059080191450766595
147.042,0.010420871559301048,-0.010420871559301048
147.043,0.012002564327413645,-0.012002564327413645
147.044,0.0023304393663559075,0.0023304393663559075
147.04500000000002,0.028324159520342507,0.028324159520342507
147.04600000000002,0.05791654194537288,0.05791654194537288
147.047,0.08219792136288451,0.08219792136288451
147.048,0.09457088051350038,0.09457088051350038
147.049,0.09290236899397786,0.09290236899397786
147.05,0.07986730494127303,0.07986730494127303
147.05100000000002,0.06139768418232672,0.06139768418232672
147.05200000000002,0.04389832028145246,0.04389832028145246
147.053,0.031379861924434316,0.031379861924434316
147.054,0.023698937821050148,0.023698937821050148
147.055,0.016663300903707823,0.016663300903707823
147.056,0.004017730270293063,0.004017730270293063
147.05700000000002,0.019441977538001143,-0.019441977538001143
147.05800000000002,0.054874449660257896,-0.054874449660257896
147.059,0.09778497924869434,-0.09778497924869434
147.06,0.13859294003488953,-0.13859294003488953
147.061,0.1653519560431519,-0.1653519560431519
147.062,0.16775707704237108,-0.16775707704237108
147.06300000000002,0.14101883312090902,-0.14101883312090902
147.06400000000002,0.08814149452374387,-0.08814149452374387
147.065,0.019649653158999025,-0.019649653158999025
147.066,0.049303967766216816,0.049303967766216816
147.067,0.10356149226380484,0.10356149226380484
147.068,0.13275534424986057,0.13275534424986057
147.06900000000002,0.13458968010396855,0.13458968010396855
147.07000000000002,0.11540149817721779,0.11540149817721779
147.071,0.08772916364175498,0.08772916364175498
147.072,0.06567938503847648,0.06567938503847648
147.073,0.05969552224870811,0.05969552224870811
147.074,0.07259053086850753,0.07259053086850753
147.07500000000002,0.09830804534109538,0.09830804534109538
147.07600000000002,0.12394085765391005,0.12394085765391005
147.077,0.1343874099970943,0.1343874099970943
147.078,0.11806736922147265,0.11806736922147265
147.079,0.07169132074546947,0.07169132074546947
147.08,0.002349047623106504,0.002349047623106504
147.08100000000002,0.07393488080491728,-0.07393488080491728
147.082,0.13682825737395254,-0.13682825737395254
147.083,0.16804564916467046,-0.16804564916467046
147.084,0.15734862286081652,-0.15734862286081652
147.085,0.1061846133822757,-0.1061846133822757
147.086,0.02771190799697132,-0.02771190799697132
147.08700000000002,0.05686068286901391,0.05686068286901391
147.088,0.12448304789475495,0.12448304789475495
147.089,0.1570578365482489,0.1570578365482489
147.09,0.1466820705422407,0.1466820705422407
147.091,0.09772900805268092,0.09772900805268092
147.092,0.025206352069629956,0.025206352069629956
147.09300000000002,0.0499753586843551,-0.0499753586843551
147.094,0.1072398698008562,-0.1072398698008562
147.095,0.1321061317639446,-0.1321061317639446
147.096,0.11975520829390351,-0.11975520829390351
147.097,0.0754909592629418,-0.0754909592629418
147.098,0.01223193756590324,-0.01223193756590324
147.09900000000002,0.05390001651370935,0.05390001651370935
147.1,0.10832658443409104,0.10832658443409104
147.101,0.14159005401872649,0.14159005401872649
147.102,0.15081813549126988,0.15081813549126988
147.103,0.13896008510068714,0.13896008510068714
147.104,0.11245374268526787,0.11245374268526787
147.10500000000002,0.07843518012625106,0.07843518012625106
147.106,0.04259409690531557,0.04259409690531557
147.107,0.00835213251321787,0.00835213251321787
147.108,0.02260437502813495,-0.02260437502813495
147.109,0.04900074679386224,-0.04900074679386224
147.11,0.06873102211995563,-0.06873102211995563
147.11100000000002,0.07847537211750555,-0.07847537211750555
147.112,0.0745165985072308,-0.0745165985072308
147.113,0.054495745131379336,-0.054495745131379336
147.114,0.01934447562863273,-0.01934447562863273
147.115,0.02555802302504606,0.02555802302504606
147.116,0.0707407474439643,0.0707407474439643
147.11700000000002,0.10469517220721025,0.10469517220721025
147.118,0.11713288632542573,0.11713288632542573
147.119,0.10240558181309622,0.10240558181309622
147.12,0.061859793919258665,0.061859793919258665
147.121,0.004165948695778132,0.004165948695778132
147.122,0.05669203485361485,-0.05669203485361485
147.12300000000002,0.10527425366069121,-0.10527425366069121
147.124,0.12921972403099768,-0.12921972403099768
147.125,0.12299166149247409,-0.12299166149247409
147.126,0.08957044897756772,-0.08957044897756772
147.127,0.039482097381078995,-0.039482097381078995
147.128,0.012569417178142084,0.012569417178142084
147.12900000000002,0.05238892732606537,0.05238892732606537
147.13,0.07076397448244998,0.07076397448244998
147.131,0.0662539921774874,0.0662539921774874
147.132,0.0453817052562131,0.0453817052562131
147.133,0.02018177864886095,0.02018177864886095
147.134,0.003943068369425706,0.003943068369425706
147.13500000000002,0.006575761996590712,0.006575761996590712
147.136,0.031144014855994273,0.031144014855994273
147.137,0.07269737597532888,0.07269737597532888
147.138,0.11975597002481919,0.11975597002481919
147.139,0.1579242053759149,0.1579242053759149
147.14,0.1744234345029556,0.1744234345029556
147.14100000000002,0.16206901624259995,0.16206901624259995
147.142,0.12144641458326078,0.12144641458326078
147.143,0.0606694334488056,0.0606694334488056
147.144,0.007094725419522274,-0.007094725419522274
147.145,0.06744910730773301,-0.06744910730773301
147.14600000000002,0.1086842924783632,-0.1086842924783632
147.14700000000002,0.12459689118917705,-0.12459689118917705
147.148,0.11546361158197394,-0.11546361158197394
147.149,0.08707927563270046,-0.08707927563270046
147.15,0.04839208847131138,-0.04839208847131138
147.151,0.008655622931492912,-0.008655622931492912
147.15200000000002,0.024946860070885535,0.024946860070885535
147.15300000000002,0.048543839499523234,0.048543839499523234
147.154,0.06150883068755597,0.06150883068755597
147.155,0.06539971248901244,0.06539971248901244
147.156,0.06252784879871331,0.06252784879871331
147.157,0.05481394087609259,0.05481394087609259
147.15800000000002,0.04335801187052524,0.04335801187052524
147.15900000000002,0.028772061902887502,0.028772061902887502
147.16,0.011959878872481067,0.011959878872481067
147.161,0.005171715791027154,-0.005171715791027154
147.162,0.01954566822018422,-0.01954566822018422
147.163,0.027509604474874827,-0.027509604474874827
147.16400000000002,0.026047503585403753,-0.026047503585403753
147.16500000000002,0.014146794721028089,-0.014146794721028089
147.166,0.006274492792784914,0.006274492792784914
147.167,0.0303653427321271,0.0303653427321271
147.168,0.051427779888675085,0.051427779888675085
147.169,0.0628412388691677,0.0628412388691677
147.17000000000002,0.06022634868409593,0.06022634868409593
147.17100000000002,0.04310238099944019,0.04310238099944019
147.172,0.015412548796262637,0.015412548796262637
147.173,0.015354775109790775,-0.015354775109790775
147.174,0.04025242935306361,-0.04025242935306361
147.175,0.05155216265798879,-0.05155216265798879
147.17600000000002,0.04517457787107937,-0.04517457787107937
147.17700000000002,0.02208679072055253,-0.02208679072055253
147.178,0.011800519551214084,0.011800519551214084
147.179,0.04723271676644636,0.04723271676644636
147.18,0.07423280979102032,0.07423280979102032
147.181,0.08495568615085847,0.08495568615085847
147.18200000000002,0.07592559317622638,0.07592559317622638
147.18300000000002,0.049013503225181054,0.049013503225181054
147.184,0.010906866053280284,0.010906866053280284
147.185,0.028724024127301906,-0.028724024127301906
147.186,0.05979513559434657,-0.05979513559434657
147.187,0.07437523821894365,-0.07437523821894365
147.18800000000002,0.06857052664568375,-0.06857052664568375
147.18900000000002,0.043295081377953015,-0.043295081377953015
147.19,0.003835160002997995,-0.003835160002997995
147.191,0.04156388706553704,0.04156388706553704
147.192,0.08364836963088695,0.08364836963088695
147.193,0.11414530243476317,0.11414530243476317
147.19400000000002,0.1273680995170714,0.1273680995170714
147.19500000000002,0.1211780542432146,0.1211780542432146
147.196,0.09721704218817595,0.09721704218817595
147.197,0.060465884666473624,0.060465884666473624
147.198,0.018263462431121535,0.018263462431121535
147.199,0.021044823975883475,-0.021044823975883475
147.20000000000002,0.049645298747850286,-0.049645298747850286
147.20100000000002,0.06177440493887443,-0.06177440493887443
147.202,0.05497654368613214,-0.05497654368613214
147.203,0.030836851904504248,-0.030836851904504248
147.204,0.005051216923289692,0.005051216923289692
147.205,0.044018538694092335,0.044018538694092335
147.20600000000002,0.076097534662666,0.076097534662666
147.207,0.09234760710185608,0.09234760710185608
147.208,0.08721322138008358,0.08721322138008358
147.209,0.06028647119862596,0.06028647119862596
147.21,0.016906166392469002,0.016906166392469002
147.211,0.03272502777266384,-0.03272502777266384
147.21200000000002,0.07583392589805749,-0.07583392589805749
147.213,0.10028536005996302,-0.10028536005996302
147.214,0.09788682028762896,-0.09788682028762896
147.215,0.06686295956937982,-0.06686295956937982
147.216,0.012740049876146742,-0.012740049876146742
147.217,0.05270832053369445,0.05270832053369445
147.21800000000002,0.11425828606751853,0.11425828606751853
147.219,0.15706368225568879,0.15706368225568879
147.22,0.17047873921324808,0.17047873921324808
147.221,0.15081457384508945,0.15081457384508945
147.222,0.10226005555126383,0.10226005555126383
147.223,0.035721507068360525,0.035721507068360525
147.22400000000002,0.03406694344712302,-0.03406694344712302
147.225,0.09232312091478645,-0.09232312091478645
147.226,0.12781839281146323,-0.12781839281146323
147.227,0.1353275385412741,-0.1353275385412741
147.228,0.11633371088255207,-0.11633371088255207
147.229,0.07793367739303003,-0.07793367739303003
147.23000000000002,0.030411340103583706,-0.030411340103583706
147.231,0.015706827920335398,0.015706827920335398
147.232,0.052229497137140646,0.052229497137140646
147.233,0.07483290855250191,0.07483290855250191
147.234,0.0832667562113325,0.0832667562113325
147.235,0.08039613031525583,0.08039613031525583
147.23600000000002,0.07058325691783951,0.07058325691783951
147.237,0.05804733286768382,0.05804733286768382
147.238,0.045743294221502584,0.045743294221502584
147.239,0.035027731913789495,0.035027731913789495
147.24,0.026046436959549224,0.026046436959549224
147.241,0.018510408286596558,0.018510408286596558
147.24200000000002,0.012419368802399022,0.012419368802399022
147.243,0.008372025959556995,0.008372025959556995
147.244,0.007326020669622624,0.007326020669622624
147.245,0.009940653521736786,0.009940653521736786
147.246,0.015840956307449305,0.015840956307449305
147.247,0.023199844838270867,0.023199844838270867
147.24800000000002,0.028922411080724464,0.028922411080724464
147.249,0.029476324300740098,0.029476324300740098
147.25,0.02213794340897124,0.02213794340897124
147.251,0.006222413785672565,0.006222413785672565
147.252,0.016181103857343726,-0.016181103857343726
147.253,0.040316132070973065,-0.040316132070973065
147.25400000000002,0.05978492885459674,-0.05978492885459674
147.255,0.06825603137389746,-0.06825603137389746
147.256,0.061364737710167705,-0.061364737710167705
147.257,0.0382209700398064,-0.0382209700398064
147.258,0.0020322879470090482,-0.0020322879470090482
147.259,0.04039474566247492,0.04039474566247492
147.26000000000002,0.08017675818088654,0.08017675818088654
147.261,0.10849498356078824,0.10849498356078824
147.262,0.11877054948874521,0.11877054948874521
147.263,0.10828584412280562,0.10828584412280562
147.264,0.07883452965107285,0.07883452965107285
147.265,0.036265800124142045,0.036265800124142045
147.26600000000002,0.010907593111406766,-0.010907593111406766
147.267,0.05343479769836057,-0.05343479769836057
147.268,0.08328243778169353,-0.08328243778169353
147.269,0.09516396869240584,-0.09516396869240584
147.27,0.08734917391729635,-0.08734917391729635
147.27100000000002,0.061675397192967996,-0.061675397192967996
147.27200000000002,0.02287995339520199,-0.02287995339520199
147.273,0.022499115516600776,0.022499115516600776
147.274,0.06736996495043823,0.06736996495043823
147.275,0.10523903842211224,0.10523903842211224
147.276,0.13111030554776915,0.13111030554776915
147.27700000000002,0.14206090895880696,0.14206090895880696
147.27800000000002,0.1374839669316097,0.1374839669316097
147.279,0.11901729558176277,0.11901729558176277
147.28,0.09018342342848906,0.09018342342848906
147.281,0.0557732222791536,0.0557732222791536
147.282,0.021030482382051074,0.021030482382051074
147.28300000000002,0.00925944502896614,-0.00925944502896614
147.28400000000002,0.031622568802406104,-0.031622568802406104
147.285,0.04450688977671147,-0.04450688977671147
147.286,0.048485376386798174,-0.048485376386798174
147.287,0.045963669699324305,-0.045963669699324305
147.288,0.04042966790894009,-0.04042966790894009
147.28900000000002,0.0354190102019708,-0.0354190102019708
147.29000000000002,0.03347278887764915,-0.03347278887764915
147.291,0.0353902885126951,-0.0353902885126951
147.292,0.04001117217422678,-0.04001117217422678
147.293,0.04461136966081214,-0.04461136966081214
147.294,0.04580844419823393,-0.04580844419823393
147.29500000000002,0.04070603378606674,-0.04070603378606674
147.29600000000002,0.02792027256156815,-0.02792027256156815
147.297,0.008157107571472477,-0.008157107571472477
147.298,0.015855598019962613,0.015855598019962613
147.299,0.04007435203417109,0.04007435203417109
147.3,0.060272408876495875,0.060272408876495875
147.30100000000002,0.07324588115635144,0.07324588115635144
147.30200000000002,0.07771391332819833,0.07771391332819833
147.303,0.07462883071154325,0.07462883071154325
147.304,0.06679992855920092,0.06679992855920092
147.305,0.05795305884076574,0.05795305884076574
147.306,0.05152605062221283,0.05152605062221283
147.30700000000002,0.04957997772146583,0.04957997772146583
147.30800000000002,0.052164098746412924,0.052164098746412924
147.309,0.057324140193399487,0.057324140193399487
147.31,0.061739758022624436,0.061739758022624436
147.311,0.061784187213036246,0.061784187213036246
147.312,0.0546777746820335,0.0546777746820335
147.31300000000002,0.03939198264120791,0.03939198264120791
147.31400000000002,0.0170503539132838,0.0170503539132838
147.315,0.009266774849299386,-0.009266774849299386
147.316,0.03523089243570843,-0.03523089243570843
147.317,0.056267557536864854,-0.056267557536864854
147.318,0.06857283423754912,-0.06857283423754912
147.31900000000002,0.06989129248423565,-0.06989129248423565
147.32000000000002,0.05989726131161344,-0.05989726131161344
147.321,0.04014479625967082,-0.04014479625967082
147.322,0.013663054559654553,-0.013663054559654553
147.323,0.015658716883825585,0.015658716883825585
147.324,0.04373973916179219,0.04373973916179219
147.32500000000002,0.06690551314820792,0.06690551314820792
147.32600000000002,0.08234481925246828,0.08234481925246828
147.327,0.08840579132808046,0.08840579132808046
147.328,0.08473911998245165,0.08473911998245165
147.329,0.07229981444029487,0.07229981444029487
147.33,0.05320818343470224,0.05320818343470224
147.33100000000002,0.030463227859131914,0.030463227859131914
147.332,0.007512104009438358,0.007512104009438358
147.333,0.012288459735277257,-0.012288459735277257
147.334,0.0262387588625016,-0.0262387588625016
147.335,0.032774472717226666,-0.032774472717226666
147.336,0.031733511076939225,-0.031733511076939225
147.33700000000002,0.024322804930899444,-0.024322804930899444
147.338,0.012769755264679272,-0.012769755264679272
147.339,0.00026521283377411997,0.00026521283377411997
147.34,0.012359136491604028,0.012359136491604028
147.341,0.02188758788599854,0.02188758788599854
147.342,0.028308231958056318,0.028308231958056318
147.34300000000002,0.03208163687297372,0.03208163687297372
147.344,0.034261474112116774,0.034261474112116774
147.345,0.03589960101684131,0.03589960101684131
147.346,0.037480845536155494,0.037480845536155494
147.347,0.0386004748669142,0.0386004748669142
147.348,0.038020618895085345,0.038020618895085345
147.34900000000002,0.03411274104811857,0.03411274104811857
147.35,0.025553625068230446,0.025553625068230446
147.351,0.012040184365240458,0.012040184365240458
147.352,0.005238877014054011,-0.005238877014054011
147.353,0.023575339950078322,-0.023575339950078322
147.354,0.03922470684309698,-0.03922470684309698
147.35500000000002,0.04830213350778756,-0.04830213350778756
147.356,0.047849264112545975,-0.047849264112545975
147.357,0.036756559888014184,-0.036756559888014184
147.358,0.01624895751476474,-0.01624895751476474
147.359,0.010240783832764055,0.010240783832764055
147.36,0.03781048780483842,0.03781048780483842
147.36100000000002,0.0612556211558557,0.0612556211558557
147.362,0.07634938838577154,0.07634938838577154
147.363,0.08087933634121347,0.08087933634121347
147.364,0.07514840174520754,0.07514840174520754
147.365,0.061799705368073,0.061799705368073
147.366,0.04501777604191015,0.04501777604191015
147.36700000000002,0.029336780175331034,0.029336780175331034
147.368,0.018396214714624604,0.018396214714624604
147.369,0.013994627889918121,0.013994627889918121
147.37,0.01570047821769127,0.01570047821769127
147.371,0.021114452453566246,0.021114452453566246
147.372,0.026688736049242268,0.026688736049242268
147.37300000000002,0.02885126131715432,0.02885126131715432
147.374,0.02510194112666153,0.02510194112666153
147.375,0.014765161693161888,0.014765161693161888
147.376,0.0008088995448463088,-0.0008088995448463088
147.377,0.0186358151420547,-0.0186358151420547
147.378,0.03494934198378008,-0.03494934198378008
147.37900000000002,0.0462520780731025,-0.0462520780731025
147.38,0.05025128681543434,-0.05025128681543434
147.381,0.04641005802430476,-0.04641005802430476
147.382,0.035966472017221585,-0.035966472017221585
147.383,0.021437687250727033,-0.021437687250727033
147.384,0.005782274771213958,-0.005782274771213958
147.38500000000002,0.008504462991689277,0.008504462991689277
147.386,0.0200717885407109,0.0200717885407109
147.387,0.02895624781158812,0.02895624781158812
147.388,0.03631427161160783,0.03631427161160783
147.389,0.04374143173102718,0.04374143173102718
147.39,0.05241563302575214,0.05241563302575214
147.39100000000002,0.06236881301861619,0.06236881301861619
147.392,0.07216161186341785,0.07216161186341785
147.393,0.07911339399179873,0.07911339399179873
147.394,0.08006068877592365,0.08006068877592365
147.395,0.07243527377161385,0.07243527377161385
147.39600000000002,0.05532732881865954,0.05532732881865954
147.39700000000002,0.030173529755485706,0.030173529755485706
147.398,0.0007995360259342998,0.0007995360259342998
147.399,0.0272699056764949,-0.0272699056764949
147.4,0.04809453731228319,-0.04809453731228319
147.401,0.056859203149862814,-0.056859203149862814
147.40200000000002,0.05122942853799295,-0.05122942853799295
147.40300000000002,0.032106495523774536,-0.032106495523774536
147.404,0.003524925184719474,-0.003524925184719474
147.405,0.028317068022900793,0.028317068022900793
147.406,0.05664029242135071,0.05664029242135071
147.407,0.0758305319552619,0.0758305319552619
147.40800000000002,0.08283468680289907,0.08283468680289907
147.40900000000002,0.07779018452746267,0.07779018452746267
147.41,0.06370217687116653,0.06370217687116653
147.411,0.045280685762698614,0.045280685762698614
147.412,0.027319755134774137,0.027319755134774137
147.413,0.013153554341275742,0.013153554341275742
147.41400000000002,0.0037054269599625655,0.0037054269599625655
147.41500000000002,0.0025454474564372553,-0.0025454474564372553
147.416,0.008662125051386527,-0.008662125051386527
147.417,0.01771982517034043,-0.01771982517034043
147.418,0.031188781777056196,-0.031188781777056196
147.419,0.047830672609694314,-0.047830672609694314
147.42000000000002,0.06356525033374394,-0.06356525033374394
147.42100000000002,0.07245375475641103,-0.07245375475641103
147.422,0.06856496773858156,-0.06856496773858156
147.423,0.04816261512713249,-0.04816261512713249
147.424,0.011492403205782598,-0.011492403205782598
147.425,0.0364828127700938,0.0364828127700938
147.42600000000002,0.08675952322728775,0.08675952322728775
147.42700000000002,0.12831109769479632,0.12831109769479632
147.428,0.15093934036177314,0.15093934036177314
147.429,0.1481521312063736,0.1481521312063736
147.43,0.11919801057366475,0.11919801057366475
147.431,0.06959850056020267,0.06959850056020267
147.43200000000002,0.009945442785019187,0.009945442785019187
147.43300000000002,0.046752568679576556,-0.046752568679576556
147.434,0.0884431589959247,-0.0884431589959247
147.435,0.1071558328064357,-0.1071558328064357
147.436,0.10097016911551049,-0.10097016911551049
147.437,0.07425380828646955,-0.07425380828646955
147.43800000000002,0.03611559199505476,-0.03611559199505476
147.43900000000002,0.002441294291701368,0.002441294291701368
147.44,0.031789128904355035,0.031789128904355035
147.441,0.04637074962200205,0.04637074962200205
147.442,0.04601276014795541,0.04601276014795541
147.443,0.03549226848199938,0.03549226848199938
147.44400000000002,0.022547600251495492,0.022547600251495492
147.44500000000002,0.015014489266653053,0.015014489266653053
147.446,0.018039574220304777,0.018039574220304777
147.447,0.03228601248079088,0.03228601248079088
147.448,0.053713557773695575,0.053713557773695575
147.449,0.07499472203701107,0.07499472203701107
147.45000000000002,0.08808808360007658,0.08808808360007658
147.45100000000002,0.08710500722261605,0.08710500722261605
147.452,0.07050298883003614,0.07050298883003614
147.453,0.041852800613246366,0.041852800613246366
147.454,0.008890137294059741,0.008890137294059741
147.455,0.01887347466818845,-0.01887347466818845
147.45600000000002,0.03322406126375388,-0.03322406126375388
147.45700000000002,0.0300049733309794,-0.0300049733309794
147.458,0.010645413928286995,-0.010645413928286995
147.459,0.01807967734039484,0.01807967734039484
147.46,0.04603446291161695,0.04603446291161695
147.461,0.0628639493731431,0.0628639493731431
147.46200000000002,0.061319557312446316,0.061319557312446316
147.463,0.0397146573773719,0.0397146573773719
147.464,0.00270963311762884,0.00270963311762884
147.465,0.03986285854765703,-0.03986285854765703
147.466,0.07581202112769148,-0.07581202112769148
147.467,0.09420516275017088,-0.09420516275017088
147.46800000000002,0.08868808247035631,-0.08868808247035631
147.469,0.05949052882703609,-0.05949052882703609
147.47,0.013493088938354547,-0.013493088938354547
147.471,0.03767849950695967,0.03767849950695967
147.472,0.0809648425870928,0.0809648425870928
147.473,0.10559768316026275,0.10559768316026275
147.47400000000002,0.10612570314739744,0.10612570314739744
147.475,0.08385014919314537,0.08385014919314537
147.476,0.046269772333742853,0.046269772333742853
147.477,0.004740496276102624,0.004740496276102624
147.478,0.02891182154614036,-0.02891182154614036
147.479,0.045790057281348884,-0.045790057281348884
147.48000000000002,0.042326082286935796,-0.042326082286935796
147.481,0.021006173346033385,-0.021006173346033385
147.482,0.01072421728890971,0.01072421728890971
147.483,0.04296365803151536,0.04296365803151536
147.484,0.06644095537621642,0.06644095537621642
147.485,0.07521704076345936,0.07521704076345936
147.48600000000002,0.0681981673897547,0.0681981673897547
147.487,0.04906282947597673,0.04906282947597673
147.488,0.02471870489120187,0.02471870489120187
147.489,0.002860762115653559,0.002860762115653559
147.49,0.010544335584251052,-0.010544335584251052
147.491,0.013042022710298307,-0.013042022710298307
147.49200000000002,0.006212061711588834,-0.006212061711588834
147.493,0.00516791745473677,0.00516791745473677
147.494,0.014971332106871627,0.014971332106871627
147.495,0.0179276384545195,0.0179276384545195
147.496,0.011444931864500463,0.011444931864500463
147.497,0.003526019556793436,-0.003526019556793436
147.49800000000002,0.022820498300682335,-0.022820498300682335
147.499,0.04041509652133435,-0.04041509652133435
147.5,0.050319737388237695,-0.050319737388237695
147.501,0.048373406711175404,-0.048373406711175404
147.502,0.0333854465674166,-0.0333854465674166
147.503,0.007319487126897117,-0.007319487126897117
147.50400000000002,0.02544497265509138,0.02544497265509138
147.505,0.05943890442201627,0.05943890442201627
147.506,0.0895242748119105,0.0895242748119105
147.507,0.11194274863910647,0.11194274863910647
147.508,0.12471884519058452,0.12471884519058452
147.509,0.12741926278532478,0.12741926278532478
147.51000000000002,0.12051992273168044,0.12051992273168044
147.511,0.10476132483548595,0.10476132483548595
147.512,0.08083483498752164,0.08083483498752164
147.513,0.04955721364391774,0.04955721364391774
147.514,0.012435813708698396,0.012435813708698396
147.515,0.02769143191487422,-0.02769143191487422
147.51600000000002,0.06634515291733845,-0.06634515291733845
147.517,0.0977400632210852,-0.0977400632210852
147.518,0.11584646754622396,-0.11584646754622396
147.519,0.1159541614123566,-0.1159541614123566
147.52,0.09626323556648608,-0.09626323556648608
147.52100000000002,0.05893055938514058,-0.05893055938514058
147.52200000000002,0.010113179338906764,-0.010113179338906764
147.523,0.04115311967046398,0.04115311967046398
147.524,0.0850152113126379,0.0850152113126379
147.525,0.11323782756841183,0.11323782756841183
147.526,0.12127776349922637,0.12127776349922637
147.52700000000002,0.10933849584491884,0.10933849584491884
147.52800000000002,0.08205526881942449,0.08205526881942449
147.529,0.04690469911517692,0.04690469911517692
147.53,0.011861427221879328,0.011861427221879328
147.531,0.016915375519378273,-0.016915375519378273
147.532,0.03659002694708535,-0.03659002694708535
147.53300000000002,0.047859381467698414,-0.047859381467698414
147.53400000000002,0.053835096324446385,-0.053835096324446385
147.535,0.05805891482275183,-0.05805891482275183
147.536,0.06244361279067312,-0.06244361279067312
147.537,0.06598198898943741,-0.06598198898943741
147.538,0.06480172266572015,-0.06480172266572015
147.53900000000002,0.05364713203303684,-0.05364713203303684
147.54000000000002,0.028311061496657186,-0.028311061496657186
147.541,0.011875792710712485,0.011875792710712485
147.542,0.06250202752491463,0.06250202752491463
147.543,0.11422787183588845,0.11422787183588845
147.544,0.15482711034175867,0.15482711034175867
147.54500000000002,0.17263885568138582,0.17263885568138582
147.54600000000002,0.16038919038694055,0.16038919038694055
147.547,0.11810428102812698,0.11810428102812698
147.548,0.05402708587773253,0.05402708587773253
147.549,0.01696776493149066,-0.01696776493149066
147.55,0.07716784218475803,-0.07716784218475803
147.55100000000002,0.11097864765191334,-0.11097864765191334
147.55200000000002,0.10954449993620441,-0.10954449993620441
147.553,0.07356048152091066,-0.07356048152091066
147.554,0.01331188870385136,-0.01331188870385136
147.555,0.05417300890520527,0.05417300890520527
147.556,0.11005221633806395,0.11005221633806395
147.55700000000002,0.139190530574407,0.139190530574407
147.55800000000002,0.13456129858851185,0.13456129858851185
147.559,0.09915121508766811,0.09915121508766811
147.56,0.04477512443788423,0.04477512443788423
147.561,0.01180502923042881,-0.01180502923042881
147.562,0.05419715826838878,-0.05419715826838878
147.56300000000002,0.07141526681685839,-0.07141526681685839
147.56400000000002,0.06102518218352271,-0.06102518218352271
147.565,0.029427388271151322,-0.029427388271151322
147.566,0.010739020503501173,0.010739020503501173
147.567,0.04513211578091214,0.04513211578091214
147.568,0.06261103268544721,0.06261103268544721
147.56900000000002,0.05883978211611396,0.05883978211611396
147.57000000000002,0.03739363478020441,0.03739363478020441
147.571,0.008047128849617335,0.008047128849617335
147.572,0.01709644420164136,-0.01709644420164136
147.573,0.028226768681789416,-0.028226768681789416
147.574,0.021536474763820923,-0.021536474763820923
147.57500000000002,0.0006820948915692293,-0.0006820948915692293
147.57600000000002,0.024545331850059693,0.024545331850059693
147.577,0.04189008916190495,0.04189008916190495
147.578,0.0413501019980369,0.0413501019980369
147.579,0.019254508273572446,0.019254508273572446
147.58,0.0197976063439399,-0.0197976063439399
147.58100000000002,0.06391497420291614,-0.06391497420291614
147.58200000000002,0.09757970357352153,-0.09757970357352153
147.583,0.1068246501303084,-0.1068246501303084
147.584,0.08418699586116374,-0.08418699586116374
147.585,0.03172908212264902,-0.03172908212264902
147.586,0.03897021459392347,0.03897021459392347
147.58700000000002,0.10995375400864527,0.10995375400864527
147.588,0.16220774825637685,0.16220774825637685
147.589,0.18147773238127485,0.18147773238127485
147.59,0.16270367470718905,0.16270367470718905
147.591,0.1116345498311544,0.1116345498311544
147.592,0.04309559744568214,0.04309559744568214
147.59300000000002,0.023533144977730625,-0.023533144977730625
147.594,0.07017229278838333,-0.07017229278838333
147.595,0.08536672949967405,-0.08536672949967405
147.596,0.06741620860174202,-0.06741620860174202
147.597,0.024395081876345648,-0.024395081876345648
147.598,0.028830845998857102,0.028830845998857102
147.59900000000002,0.07552005061581757,0.07552005061581757
147.6,0.10225222033790993,0.10225222033790993
147.601,0.1027372821016388,0.1027372821016388
147.602,0.07910101540379721,0.07910101540379721
147.603,0.040398951321051424,0.040398951321051424
147.604,0.0009603463596571382,-0.0009603463596571382
147.60500000000002,0.033545643105582945,-0.033545643105582945
147.606,0.05047944412859329,-0.05047944412859329
147.607,0.05110544006670159,-0.05110544006670159
147.608,0.0403239815595825,-0.0403239815595825
147.609,0.026013875378526397,-0.026013875378526397
147.61,0.015610830659577135,-0.015610830659577135
147.61100000000002,0.013153995838841692,-0.013153995838841692
147.612,0.017873043895256235,-0.017873043895256235
147.613,0.02477245884462187,-0.02477245884462187
147.614,0.02691128016258637,-0.02691128016258637
147.615,0.01845384947649431,-0.01845384947649431
147.616,0.0026981346802594786,0.0026981346802594786
147.61700000000002,0.03370251332539054,0.03370251332539054
147.618,0.06746432156517645,0.06746432156517645
147.619,0.09496632006035188,0.09496632006035188
147.62,0.10838586448266585,0.10838586448266585
147.621,0.10385482999070272,0.10385482999070272
147.622,0.08285467112564282,0.08285467112564282
147.62300000000002,0.05174124528706425,0.05174124528706425
147.624,0.01957594691683906,0.01957594691683906
147.625,0.004949640311279424,-0.004949640311279424
147.626,0.016390464084210632,-0.016390464084210632
147.627,0.014207973366105464,-0.014207973366105464
147.628,0.002650299069590689,-0.002650299069590689
147.62900000000002,0.011057824927993343,0.011057824927993343
147.63,0.019516543169413758,0.019516543169413758
147.631,0.01790093270172033,0.01790093270172033
147.632,0.005660527280043182,0.005660527280043182
147.633,0.013420803142386029,-0.013420803142386029
147.634,0.032773687303516486,-0.032773687303516486
147.63500000000002,0.04557223771389074,-0.04557223771389074
147.636,0.04726178856734853,-0.04726178856734853
147.637,0.03712586234381643,-0.03712586234381643
147.638,0.018318704842931632,-0.018318704842931632
147.639,0.0036078432528863225,0.0036078432528863225
147.64,0.023064839743262677,0.023064839743262677
147.64100000000002,0.036705174243499394,0.036705174243499394
147.642,0.04467792505106072,0.04467792505106072
147.643,0.050313897758557324,0.050313897758557324
147.644,0.058323798622632594,0.058323798622632594
147.645,0.07220693956357915,0.07220693956357915
147.64600000000002,0.0919358670180015,0.0919358670180015
147.64700000000002,0.11294760486586641,0.11294760486586641
147.648,0.12702866304371607,0.12702866304371607
147.649,0.12497611434699651,0.12497611434699651
147.65,0.10020347817006647,0.10020347817006647
147.651,0.052006269937273863,0.052006269937273863
147.65200000000002,0.012805949029599195,-0.012805949029599195
147.65300000000002,0.08073390943747194,-0.08073390943747194
147.654,0.1348833678262068,-0.1348833678262068
147.655,0.1598657874667061,-0.1598657874667061
147.656,0.14680032257556308,-0.14680032257556308
147.657,0.09674976509150601,-0.09674976509150601
147.65800000000002,0.021321722603713456,-0.021321722603713456
147.65900000000002,0.059980581458166204,0.059980581458166204
147.66,0.12503316956717825,0.12503316956717825
147.661,0.1554809816072653,0.1554809816072653
147.662,0.14230088177755063,0.14230088177755063
147.663,0.08877954535138866,0.08877954535138866
147.66400000000002,0.009902737833329178,0.009902737833329178
147.66500000000002,0.07175218852505216,-0.07175218852505216
147.666,0.1324406917167007,-0.1324406917167007
147.667,0.15408158752936707,-0.15408158752936707
147.668,0.1294463382591785,-0.1294463382591785
147.669,0.06416279487981913,-0.06416279487981913
147.67000000000002,0.02502889398317354,0.02502889398317354
147.67100000000002,0.11518392201729855,0.11518392201729855
147.672,0.18369289842032543,0.18369289842032543
147.673,0.21447146823272223,0.21447146823272223
147.674,0.20199128217415852,0.20199128217415852
147.675,0.1520730299153017,0.1520730299153017
147.67600000000002,0.07939735330631525,0.07939735330631525
147.67700000000002,0.0026918848233450365,0.0026918848233450365
147.678,0.06079450301165823,-0.06079450301165823
147.679,0.09980827469963316,-0.09980827469963316
147.68,0.11131698265181766,-0.11131698265181766
147.681,0.09998374735662008,-0.09998374735662008
147.68200000000002,0.07534521043348208,-0.07534521043348208
147.68300000000002,0.04785267110114633,-0.04785267110114633
147.684,0.025210838904483612,-0.025210838904483612
147.685,0.010226815577272341,-0.010226815577272341
147.686,0.0007663983305798983,-0.0007663983305798983
147.687,0.008364413948451777,0.008364413948451777
147.68800000000002,0.02246366504074837,0.02246366504074837
147.68900000000002,0.04408937061487439,0.04408937061487439
147.69,0.07141498491120268,0.07141498491120268
147.691,0.09839467039797634,0.09839467039797634
147.692,0.11667319855800073,0.11667319855800073
147.693,0.11854437761500525,0.11854437761500525
147.69400000000002,0.09989304893073969,0.09989304893073969
147.69500000000002,0.062068065067391265,0.062068065067391265
147.696,0.012010932106306216,0.012010932106306216
147.697,0.03943400224316851,-0.03943400224316851
147.698,0.08048928248790166,-0.08048928248790166
147.699,0.10173982019054995,-0.10173982019054995
147.70000000000002,0.09871461921447688,-0.09871461921447688
147.70100000000002,0.07297611426586925,-0.07297611426586925
147.702,0.031443512069429524,-0.031443512069429524
147.703,0.015753961123895266,0.015753961123895266
147.704,0.0581564177538374,0.0581564177538374
147.705,0.0876730043125844,0.0876730043125844
147.70600000000002,0.10032240587376617,0.10032240587376617
147.70700000000002,0.0966089669583472,0.0966089669583472
147.708,0.0806014637763981,0.0806014637763981
147.709,0.058184557898051326,0.058184557898051326
147.71,0.03515572819273505,0.03515572819273505
147.711,0.01579170476805003,0.01579170476805003
147.71200000000002,0.002249435059570093,0.002249435059570093
147.713,0.005189413727855641,-0.005189413727855641
147.714,0.0073348420826918614,-0.0073348420826918614
147.715,0.005227591383779817,-0.005227591383779817
147.716,0.00038288407449060813,0.00038288407449060813
147.717,0.009020176758872012,0.009020176758872012
147.71800000000002,0.02000738512254152,0.02000738512254152
147.719,0.031859103784444676,0.031859103784444676
147.72,0.04194676147353671,0.04194676147353671
147.721,0.04674608195319552,0.04674608195319552
147.722,0.042728267956057886,0.042728267956057886
147.723,0.027659259473253428,0.027659259473253428
147.72400000000002,0.0018446676333676582,0.0018446676333676582
147.725,0.031201416090178347,-0.031201416090178347
147.726,0.06504205271851327,-0.06504205271851327
147.727,0.09163027454480888,-0.09163027454480888
147.728,0.10335811634279002,-0.10335811634279002
147.729,0.09525943142614868,-0.09525943142614868
147.73000000000002,0.06667474598127487,-0.06667474598127487
147.731,0.02180820085737556,-0.02180820085737556
147.732,0.031071512993264827,0.031071512993264827
147.733,0.08161440685663335,0.08161440685663335
147.734,0.12000553226267296,0.12000553226267296
147.735,0.1394524922367706,0.1394524922367706
147.73600000000002,0.1378127280026611,0.1378127280026611
147.737,0.11789349632869128,0.11789349632869128
147.738,0.08636984742652576,0.08636984742652576
147.739,0.05169142852712971,0.05169142852712971
147.74,0.021648997315893315,0.021648997315893315
147.741,0.0013505056205991295,0.0013505056205991295
147.74200000000002,0.007806582447443811,-0.007806582447443811
147.743,0.007925979182635157,-0.007925979182635157
147.744,0.0033353696678357636,-0.0033353696678357636
147.745,0.0012529117739090712,0.0012529117739090712
147.746,0.0024832468830200405,0.0024832468830200405
147.747,0.0005866677927429675,-0.0005866677927429675
147.74800000000002,0.00643238996577622,-0.00643238996577622
147.749,0.01196461371703239,-0.01196461371703239
147.75,0.014002166786297954,-0.014002166786297954
147.751,0.010739866056372782,-0.010739866056372782
147.752,0.0026498359441018415,-0.0026498359441018415
147.753,0.0075324591256811235,0.0075324591256811235
147.75400000000002,0.015752126426088253,0.015752126426088253
147.755,0.018184318518928988,0.018184318518928988
147.756,0.012837611019790751,0.012837611019790751
147.757,0.0006218848973567059,0.0006218848973567059
147.758,0.014543465031767067,-0.014543465031767067
147.759,0.02669144727597228,-0.02669144727597228
147.76000000000002,0.02959118093485935,-0.02959118093485935
147.761,0.018819083473928355,-0.018819083473928355
147.762,0.006536135155145617,0.006536135155145617
147.763,0.04310125173483903,0.04310125173483903
147.764,0.08367808358851203,0.08367808358851203
147.765,0.1188682306772908,0.1188682306772908
147.76600000000002,0.1394449538735385,0.1394449538735385
147.767,0.13882329694923823,0.13882329694923823
147.768,0.11493782013843212,0.11493782013843212
147.769,0.07099547366252379,0.07099547366252379
147.77,0.014880849600496182,0.014880849600496182
147.77100000000002,0.042638940229387634,-0.042638940229387634
147.77200000000002,0.09043817148098243,-0.09043817148098243
147.773,0.11962451412723019,-0.11962451412723019
147.774,0.1255330188056627,-0.1255330188056627
147.775,0.10862976005579617,-0.10862976005579617
147.776,0.07413240670579291,-0.07413240670579291
147.77700000000002,0.030495124399248397,-0.030495124399248397
147.77800000000002,0.012806374171073331,0.012806374171073331
147.779,0.047591318575091135,0.047591318575091135
147.78,0.06879448043938097,0.06879448043938097
147.781,0.07535064746854014,0.07535064746854014
147.782,0.069968792835845,0.069968792835845
147.78300000000002,0.05792303606261351,0.05792303606261351
147.78400000000002,0.04524406269509762,0.04524406269509762
147.785,0.03684079831986442,0.03684079831986442
147.786,0.035082337689985366,0.035082337689985366
147.787,0.039227331560241385,0.039227331560241385
147.788,0.0458421593077043,0.0458421593077043
147.78900000000002,0.05006681306661087,0.05006681306661087
147.79000000000002,0.04734475340103783,0.04734475340103783
147.791,0.03509653236990595,0.03509653236990595
147.792,0.013825861015512197,0.013825861015512197
147.793,0.012698301109143606,-0.012698301109143606
147.794,0.03827854849388834,-0.03827854849388834
147.79500000000002,0.055942050688312595,-0.055942050688312595
147.79600000000002,0.059957131688615606,-0.059957131688615606
147.797,0.04763241091066939,-0.04763241091066939
147.798,0.020353593976995876,-0.020353593976995876
147.799,0.01648921621429622,0.01648921621429622
147.8,0.05472156045361021,0.05472156045361021
147.80100000000002,0.08545500048816534,0.08545500048816534
147.80200000000002,0.1014483887683959,0.1014483887683959
147.803,0.09909223064413886,0.09909223064413886
147.804,0.07943350942368155,0.07943350942368155
147.805,0.047919907784473637,0.047919907784473637
147.806,0.012908748958460725,0.012908748958460725
147.80700000000002,0.016649569039917766,-0.016649569039917766
147.80800000000002,0.033691982257985975,-0.033691982257985975
147.809,0.03496624067889764,-0.03496624067889764
147.81,0.02183382128464262,-0.02183382128464262
147.811,0.00028088070818332866,0.00028088070818332866
147.812,0.023622522420817527,0.023622522420817527
147.81300000000002,0.04048854945666225,0.04048854945666225
147.81400000000002,0.04553882322485103,0.04553882322485103
147.815,0.03733216646768933,0.03733216646768933
147.816,0.01863447034119159,0.01863447034119159
147.817,0.004572216080837466,-0.004572216080837466
147.818,0.025045489679716315,-0.025045489679716315
147.81900000000002,0.036572894661542565,-0.036572894661542565
147.82000000000002,0.03587243639222115,-0.03587243639222115
147.821,0.023516259732506817,-0.023516259732506817
147.822,0.0036126854534752617,-0.0036126854534752617
147.823,0.017616943000373864,0.017616943000373864
147.824,0.03388080542003036,0.03388080542003036
147.82500000000002,0.04080788729746376,0.04080788729746376
147.82600000000002,0.03725401830236996,0.03725401830236996
147.827,0.025529972691498592,0.025529972691498592
147.828,0.010520476202954265,0.010520476202954265
147.829,0.0019777654050593396,-0.0019777654050593396
147.83,0.007132650076450475,-0.007132650076450475
147.83100000000002,0.0025591359632077815,-0.0025591359632077815
147.83200000000002,0.011041193372961944,0.011041193372961944
147.833,0.030232318798395497,0.030232318798395497
147.834,0.05000468591397356,0.05000468591397356
147.835,0.06531244353740195,0.06531244353740195
147.836,0.07246882309537073,0.07246882309537073
147.83700000000002,0.06997890406801854,0.06997890406801854
147.838,0.05862335720587453,0.05862335720587453
147.839,0.04088456295863008,0.04088456295863008
147.84,0.020023067942007033,0.020023067942007033
147.841,0.0008090244561924642,-0.0008090244561924642
147.842,0.01911100497937568,-0.01911100497937568
147.84300000000002,0.0331224500165177,-0.0331224500165177
147.844,0.041573258478078134,-0.041573258478078134
147.845,0.04336756348076465,-0.04336756348076465
147.846,0.037495205603938486,-0.037495205603938486
147.847,0.023337412570742178,-0.023337412570742178
147.848,0.0013100271817718667,-0.0013100271817718667
147.84900000000002,0.026435956057842214,0.026435956057842214
147.85,0.055657818176078955,0.055657818176078955
147.851,0.08036056355625432,0.08036056355625432
147.852,0.09396273752857098,0.09396273752857098
147.853,0.0910942346673147,0.0910942346673147
147.854,0.06952354841411923,0.06952354841411923
147.85500000000002,0.03154719146737639,0.03154719146737639
147.856,0.01576194165776912,-0.01576194165776912
147.857,0.06175070486880163,-0.06175070486880163
147.858,0.09467546095818391,-0.09467546095818391
147.859,0.10487287172858495,-0.10487287172858495
147.86,0.08769428116526046,-0.08769428116526046
147.86100000000002,0.04526150835752052,-0.04526150835752052
147.862,0.01360832667404277,0.01360832667404277
147.863,0.07542999254814164,0.07542999254814164
147.864,0.12553961146989923,0.12553961146989923
147.865,0.15206636888396718,0.15206636888396718
147.866,0.14920719410371563,0.14920719410371563
147.86700000000002,0.11879765712099877,0.11879765712099877
147.868,0.06967553843894936,0.06967553843894936
147.869,0.015013521424481757,0.015013521424481757
147.87,0.03156423219787863,-0.03156423219787863
147.871,0.05988103893057373,-0.05988103893057373
147.872,0.06591961603256313,-0.06591961603256313
147.87300000000002,0.05253171735383966,-0.05253171735383966
147.874,0.027982027788915675,-0.027982027788915675
147.875,0.002864294183264171,-0.002864294183264171
147.876,0.013554352132648884,0.013554352132648884
147.877,0.016342634888854457,0.016342634888854457
147.878,0.006295324499810961,0.006295324499810961
147.87900000000002,0.010700827192467566,-0.010700827192467566
147.88,0.026036868193246354,-0.026036868193246354
147.881,0.03161612725431451,-0.03161612725431451
147.882,0.022809084053837192,-0.022809084053837192
147.883,0.00011004737906616935,-0.00011004737906616935
147.884,0.031047251632559503,0.031047251632559503
147.88500000000002,0.06220274024097461,0.06220274024097461
147.886,0.08479597411316742,0.08479597411316742
147.887,0.09304898543001583,0.09304898543001583
147.888,0.08578950858703105,0.08578950858703105
147.889,0.06659849560846776,0.06659849560846776
147.89,0.04228011657979236,0.04228011657979236
147.89100000000002,0.020258162750445674,0.020258162750445674
147.892,0.005881784089113884,0.005881784089113884
147.893,0.0006401535543358872,0.0006401535543358872
147.894,0.001935589099579138,0.001935589099579138
147.895,0.004476523518198938,0.004476523518198938
147.89600000000002,0.00274098166492176,0.00274098166492176
147.89700000000002,0.00644748811920115,-0.00644748811920115
147.898,0.02224396406045115,-0.02224396406045115
147.899,0.039695282072314875,-0.039695282072314875
147.9,0.05134366456343442,-0.05134366456343442
147.901,0.04998378002342818,-0.04998378002342818
147.90200000000002,0.03158095760484936,-0.03158095760484936
147.90300000000002,0.002742040013724134,0.002742040013724134
147.904,0.0464426493303125,0.0464426493303125
147.905,0.08921379102013782,0.08921379102013782
147.906,0.12006135184013367,0.12006135184013367
147.907,0.1307785706584117,0.1307785706584117
147.90800000000002,0.11861667506558837,0.11861667506558837
147.90900000000002,0.08720196198751351,0.08720196198751351
147.91,0.04534619291069153,0.04534619291069153
147.911,0.004133225647034111,0.004133225647034111
147.912,0.026720499625308314,-0.026720499625308314
147.913,0.04196311594607938,-0.04196311594607938
147.91400000000002,0.042270269144805694,-0.042270269144805694
147.91500000000002,0.033551794402883695,-0.033551794402883695
147.916,0.024347066761097325,-0.024347066761097325
147.917,0.022247826015780015,-0.022247826015780015
147.918,0.030658401726803786,-0.030658401726803786
147.919,0.0471119713370054,-0.0471119713370054
147.92000000000002,0.0638297581703765,-0.0638297581703765
147.92100000000002,0.07041682331176646,-0.07041682331176646
147.922,0.057808777053754756,-0.057808777053754756
147.923,0.02209484769985548,-0.02209484769985548
147.924,0.033175501979310074,0.033175501979310074
147.925,0.0971239579310168,0.0971239579310168
147.92600000000002,0.15422536105957851,0.15422536105957851
147.92700000000002,0.18877874512473092,0.18877874512473092
147.928,0.1897663288647331,0.1897663288647331
147.929,0.15451874098899587,0.15451874098899587
147.93,0.08995289417337204,0.08995289417337204
147.931,0.010916007675682904,0.010916007675682904
147.93200000000002,0.06389805596384646,-0.06389805596384646
147.93300000000002,0.11720681019010137,-0.11720681019010137
147.934,0.1379394767310851,-0.1379394767310851
147.935,0.12410273072845857,-0.12410273072845857
147.936,0.08286961108261215,-0.08286961108261215
147.937,0.027948786611757703,-0.027948786611757703
147.93800000000002,0.024845527469643303,0.024845527469643303
147.93900000000002,0.062360643821123274,0.062360643821123274
147.94,0.0776982811032696,0.0776982811032696
147.941,0.07156969133623114,0.07156969133623114
147.942,0.05112987945348757,0.05112987945348757
147.943,0.026849345526751556,0.026849345526751556
147.94400000000002,0.008599926525793222,0.008599926525793222
147.94500000000002,0.0023256901782671147,0.0023256901782671147
147.946,0.008390699589543305,0.008390699589543305
147.947,0.022056629787628568,0.022056629787628568
147.948,0.0357782765759147,0.0357782765759147
147.949,0.042383275996697556,0.042383275996697556
147.95000000000002,0.03793457823584001,0.03793457823584001
147.95100000000002,0.02324100346806124,0.02324100346806124
147.952,0.003508694905947074,0.003508694905947074
147.953,0.013683623750559426,-0.013683623750559426
147.954,0.02129941057081286,-0.02129941057081286
147.955,0.015558167786478005,-0.015558167786478005
147.95600000000002,0.0025483093924894007,0.0025483093924894007
147.95700000000002,0.027484275392139157,0.027484275392139157
147.958,0.051053030310871605,0.051053030310871605
147.959,0.06525129077764258,0.06525129077764258
147.96,0.06507197938856524,0.06507197938856524
147.961,0.050262054191473116,0.050262054191473116
147.96200000000002,0.02542320307571644,0.02542320307571644
147.963,0.0015655508103012972,-0.0015655508103012972
147.964,0.02223579605637216,-0.02223579605637216
147.965,0.030382085510575974,-0.030382085510575974
147.966,0.024092410892510685,-0.024092410892510685
147.967,0.006275417624606705,-0.006275417624606705
147.96800000000002,0.0164618866416959,0.0164618866416959
147.969,0.03615950983404481,0.03615950983404481
147.97,0.04623709330077874,0.04623709330077874
147.971,0.04366975944548512,0.04366975944548512
147.972,0.02988481320557823,0.02988481320557823
147.973,0.010120619422714583,0.010120619422714583
147.97400000000002,0.008474820164705243,-0.008474820164705243
147.975,0.01930846468252423,-0.01930846468252423
147.976,0.018511308385686154,-0.018511308385686154
147.977,0.006095289601883325,-0.006095289601883325
147.978,0.014235738310121926,0.014235738310121926
147.979,0.036475977593110054,0.036475977593110054
147.98000000000002,0.05436136918902168,0.05436136918902168
147.981,0.06333162338681131,0.06333162338681131
147.982,0.06175625282091568,0.06175625282091568
147.983,0.05107673237666366,0.05107673237666366
147.984,0.03492625403824423,0.03492625403824423
147.985,0.017646964977883206,0.017646964977883206
147.98600000000002,0.0028042846229259233,0.0028042846229259233
147.987,0.00775719471294134,-0.00775719471294134
147.988,0.014028130840655795,-0.014028130840655795
147.989,0.017181457906598085,-0.017181457906598085
147.99,0.018519907156377857,-0.018519907156377857
147.991,0.01853568025271879,-0.01853568025271879
147.99200000000002,0.01652405399110546,-0.01652405399110546
147.993,0.010940984289924516,-0.010940984289924516
147.994,0.00036333581282699257,-0.00036333581282699257
147.995,0.015367978230763635,0.015367978230763635
147.996,0.03435412353504419,0.03435412353504419
147.997,0.05262281624627985,0.05262281624627985
147.99800000000002,0.06503437137967572,0.06503437137967572
147.999,0.0668879582651436,0.0668879582651436
148.0,0.05570061285570804,0.05570061285570804
148.001,0.03250403981875749,0.03250403981875749
148.002,0.0021133034545182117,0.0021133034545182117
148.003,0.027859593650853,-0.027859593650853
148.00400000000002,0.04904943810808726,-0.04904943810808726
148.005,0.054856070629507814,-0.054856070629507814
148.006,0.04264622130555373,-0.04264622130555373
148.007,0.014896459024125286,-0.014896459024125286
148.008,0.021165783998690735,0.021165783998690735
148.009,0.05540679416385208,0.05540679416385208
148.01000000000002,0.07762760434811056,0.07762760434811056
148.011,0.08057943528466183,0.08057943528466183
148.012,0.06224832957195048,0.06224832957195048
148.013,0.02670028726495488,0.02670028726495488
148.014,0.01680457757909193,-0.01680457757909193
148.015,0.056210824827315986,-0.056210824827315986
148.01600000000002,0.07991556612562345,-0.07991556612562345
148.017,0.07995355213744137,-0.07995355213744137
148.018,0.054228426844944555,-0.054228426844944555
148.019,0.007176937044432563,-0.007176937044432563
148.02,0.05130042792914602,0.05130042792914602
148.02100000000002,0.10832789469706339,0.10832789469706339
148.02200000000002,0.15127070804671816,0.15127070804671816
148.023,0.17081682778069585,0.17081682778069585
148.024,0.1631328852476297,0.1631328852476297
148.025,0.13058331376331656,0.13058331376331656
148.026,0.08090084693762778,0.08090084693762778
148.02700000000002,0.025099652799741357,0.025099652799741357
148.02800000000002,0.025277726878616513,-0.025277726878616513
148.029,0.060861725015731394,-0.060861725015731394
148.03,0.0764518176678406,-0.0764518176678406
148.031,0.07187589314253695,-0.07187589314253695
148.032,0.051591505989653674,-0.051591505989653674
148.03300000000002,0.023220993035493298,-0.023220993035493298
148.03400000000002,0.00454700221649551,0.00454700221649551
148.035,0.024139884353179708,0.024139884353179708
148.036,0.030840183864315307,0.030840183864315307
148.037,0.023699087971911892,0.023699087971911892
148.038,0.00546608870262566,0.00546608870262566
148.03900000000002,0.018377728071536037,-0.018377728071536037
148.04000000000002,0.04118521919307294,-0.04118521919307294
148.041,0.0568823799051712,-0.0568823799051712
148.042,0.06143708176251106,-0.06143708176251106
148.043,0.053704071686307864,-0.053704071686307864
148.044,0.03546921722048768,-0.03546921722048768
148.04500000000002,0.010732727930038877,-0.010732727930038877
148.04600000000002,0.015527511233629054,0.015527511233629054
148.047,0.038738729918949666,0.038738729918949666
148.048,0.0558615290520752,0.0558615290520752
148.049,0.06595099227782741,0.06595099227782741
148.05,0.0700177393605752,0.0700177393605752
148.05100000000002,0.07027592532269455,0.07027592532269455
148.05200000000002,0.0690591155467597,0.0690591155467597
148.053,0.06779132740228344,0.06779132740228344
148.054,0.06638221901742636,0.06638221901742636
148.055,0.06327352853469281,0.06327352853469281
148.056,0.05614007440124236,0.05614007440124236
148.05700000000002,0.043014116532188895,0.043014116532188895
148.05800000000002,0.023435550038455766,0.023435550038455766
148.059,0.000807257945212192,-0.000807257945212192
148.06,0.025669820592170156,-0.025669820592170156
148.061,0.04566975455175604,-0.04566975455175604
148.062,0.05534441555682856,-0.05534441555682856
148.06300000000002,0.05092663323388691,-0.05092663323388691
148.06400000000002,0.03170894591131723,-0.03170894591131723
148.065,0.0006286302548973444,-0.0006286302548973444
148.066,0.03617396820717644,0.03617396820717644
148.067,0.07075857291694798,0.07075857291694798
148.068,0.0953786797446603,0.0953786797446603
148.06900000000002,0.10449705235550155,0.10449705235550155
148.07000000000002,0.09623198160376001,0.09623198160376001
148.071,0.0728076892687044,0.0728076892687044
148.072,0.03988262878863602,0.03988262878863602
148.073,0.004969425300279218,0.004969425300279218
148.074,0.024570177302644658,-0.024570177302644658
148.07500000000002,0.04335927933282446,-0.04335927933282446
148.07600000000002,0.049150632515471915,-0.049150632515471915
148.077,0.043002850682087534,-0.043002850682087534
148.078,0.02852460668336365,-0.02852460668336365
148.079,0.010509713530077125,-0.010509713530077125
148.08,0.006551174313471186,0.006551174313471186
148.08100000000002,0.019605459568714956,0.019605459568714956
148.08200000000002,0.02751128278875714,0.02751128278875714
148.083,0.030798480128888084,0.030798480128888084
148.084,0.030922117081067846,0.030922117081067846
148.085,0.029370740123561,0.029370740123561
148.086,0.027001866841279032,0.027001866841279032
148.08700000000002,0.02384522972839953,0.02384522972839953
148.088,0.019398015111097067,0.019398015111097067
148.089,0.0132237723959574,0.0132237723959574
148.09,0.005541670047514824,0.005541670047514824
148.091,0.0024968850531665865,-0.0024968850531665865
148.092,0.009007832823764494,-0.009007832823764494
148.09300000000002,0.012002808822066724,-0.012002808822066724
148.094,0.010202412338314648,-0.010202412338314648
148.095,0.003690015893944354,-0.003690015893944354
148.096,0.005898591243260087,0.005898591243260087
148.097,0.0157852168795396,0.0157852168795396
148.098,0.022958344633071226,0.022958344633071226
148.09900000000002,0.025269245918040584,0.025269245918040584
148.1,0.02230178026682128,0.02230178026682128
148.101,0.0156573754544711,0.0156573754544711
148.102,0.008495048616970147,0.008495048616970147
148.103,0.0044396866430582715,0.0044396866430582715
148.104,0.006219783297635173,0.006219783297635173
148.10500000000002,0.014523167255149128,0.014523167255149128
148.106,0.02751191100805883,0.02751191100805883
148.107,0.041224505037743775,0.041224505037743775
148.108,0.0507852366030086,0.0507852366030086
148.109,0.05204588981778335,0.05204588981778335
148.11,0.043110664834100865,0.043110664834100865
148.11100000000002,0.025208538198517205,0.025208538198517205
148.112,0.0025794117981967624,0.0025794117981967624
148.113,0.018634959510095084,-0.018634959510095084
148.114,0.032168275495676246,-0.032168275495676246
148.115,0.033517717928244206,-0.033517717928244206
148.116,0.02134093065703746,-0.02134093065703746
148.11700000000002,0.0020819545546044704,0.0020819545546044704
148.118,0.03146001009123989,0.03146001009123989
148.119,0.05996904190018837,0.05996904190018837
148.12,0.0811177376280483,0.0811177376280483
148.121,0.0904227074199504,0.0904227074199504
148.122,0.08640598537218902,0.08640598537218902
148.12300000000002,0.07067713438707401,0.07067713438707401
148.124,0.04717234820240335,0.04717234820240335
148.125,0.020883573369736785,0.020883573369736785
148.126,0.0034662780997016807,-0.0034662780997016807
148.127,0.022393740860610745,-0.022393740860610745
148.128,0.03404955854539893,-0.03404955854539893
148.12900000000002,0.03806079149342745,-0.03806079149342745
148.13,0.03504575455975267,-0.03504575455975267
148.131,0.026110916883385515,-0.026110916883385515
148.132,0.012578325743537677,-0.012578325743537677
148.133,0.003977465899078991,0.003977465899078991
148.134,0.021502127364400048,0.021502127364400048
148.13500000000002,0.037297602098348426,0.037297602098348426
148.136,0.04818064355759222,0.04818064355759222
148.137,0.051089090252738334,0.051089090252738334
148.138,0.044038838306715844,0.044038838306715844
148.139,0.027117562399784356,0.027117562399784356
148.14,0.0030893155483002754,0.0030893155483002754
148.14100000000002,0.022758606130742876,-0.022758606130742876
148.142,0.04366916391888698,-0.04366916391888698
148.143,0.053187490947620986,-0.053187490947620986
148.144,0.04716351818095632,-0.04716351818095632
148.145,0.02533288735545991,-0.02533288735545991
148.14600000000002,0.008120263550723594,0.008120263550723594
148.14700000000002,0.04533515835277324,0.04533515835277324
148.148,0.07677409670085922,0.07677409670085922
148.149,0.09391662245505805,0.09391662245505805
148.15,0.09183676305441812,0.09183676305441812
148.151,0.07083151112210762,0.07083151112210762
148.15200000000002,0.03652964406998138,0.03652964406998138
148.15300000000002,0.0016220876876129608,-0.0016220876876129608
148.154,0.03307416264794738,-0.03307416264794738
148.155,0.04926604934312817,-0.04926604934312817
148.156,0.046128311569230473,-0.046128311569230473
148.157,0.025204971814856036,-0.025204971814856036
148.15800000000002,0.006953125301601526,0.006953125301601526
148.15900000000002,0.04091274983490689,0.04091274983490689
148.16,0.06729774277323353,0.06729774277323353
148.161,0.0795849000567932,0.0795849000567932
148.162,0.07586449102775172,0.07586449102775172
148.163,0.05903885197886671,0.05903885197886671
148.16400000000002,0.03546884314643073,0.03546884314643073
148.16500000000002,0.012599238119455514,0.012599238119455514
148.166,0.003579443319556619,-0.003579443319556619
148.167,0.010353743063101661,-0.010353743063101661
148.168,0.008801490204530804,-0.008801490204530804
148.169,0.0028907830486691877,-0.0028907830486691877
148.17000000000002,0.0024316430882758144,0.0024316430882758144
148.17100000000002,0.003404864140645447,0.003404864140645447
148.172,0.0009576342752237732,-0.0009576342752237732
148.173,0.008451028896201085,-0.008451028896201085
148.174,0.014581512957049458,-0.014581512957049458
148.175,0.014437520677985205,-0.014437520677985205
148.17600000000002,0.004814028772974321,-0.004814028772974321
148.17700000000002,0.014225422509831498,0.014225422509831498
148.178,0.038962324584514096,0.038962324584514096
148.179,0.0629964462530106,0.0629964462530106
148.18,0.0792632430521274,0.0792632430521274
148.181,0.08239268994317506,0.08239268994317506
148.18200000000002,0.07057326385498852,0.07057326385498852
148.18300000000002,0.046253979015392854,0.046253979015392854
148.184,0.015428082936898457,0.015428082936898457
148.185,0.014254682621272052,-0.014254682621272052
148.186,0.03588682496568929,-0.03588682496568929
148.187,0.04537802083010878,-0.04537802083010878
148.18800000000002,0.04249816994564415,-0.04249816994564415
148.18900000000002,0.030560829950106783,-0.030560829950106783
148.19,0.014913312824614167,-0.014913312824614167
148.191,0.0008268223640225392,-0.0008268223640225392
148.192,0.008415343486232851,0.008415343486232851
148.193,0.012524886882095299,0.012524886882095299
148.19400000000002,0.013956496955376485,0.013956496955376485
148.19500000000002,0.016524437426252536,0.016524437426252536
148.196,0.02344866796162881,0.02344866796162881
148.197,0.035614724335039316,0.035614724335039316
148.198,0.05076072648365049,0.05076072648365049
148.199,0.06396362192172678,0.06396362192172678
148.20000000000002,0.06930856080164971,0.06930856080164971
148.20100000000002,0.06216865087244683,0.06216865087244683
148.202,0.04126597049517744,0.04126597049517744
148.203,0.009726055960067592,0.009726055960067592
148.204,0.0253325130875105,-0.0253325130875105
148.205,0.05462812931827521,-0.05462812931827521
148.20600000000002,0.06941994525720507,-0.06941994525720507
148.20700000000002,0.06421976532526497,-0.06421976532526497
148.208,0.038621396769851435,-0.038621396769851435
148.209,0.0023631372980459364,0.0023631372980459364
148.21,0.04958313573826367,0.04958313573826367
148.211,0.09224049363359654,0.09224049363359654
148.21200000000002,0.12080441513711682,0.12080441513711682
148.213,0.12944800053165606,0.12944800053165606
148.214,0.11729471823637527,0.11729471823637527
148.215,0.08818082735971045,0.08818082735971045
148.216,0.04913449101549783,0.04913449101549783
148.217,0.008170044757913386,0.008170044757913386
148.21800000000002,0.027836298279890315,-0.027836298279890315
148.219,0.05453120766187569,-0.05453120766187569
148.22,0.07040102268788628,-0.07040102268788628
148.221,0.07611118359804281,-0.07611118359804281
148.222,0.07330847302093613,-0.07330847302093613
148.223,0.06347981911954381,-0.06347981911954381
148.22400000000002,0.04737091428653306,-0.04737091428653306
148.225,0.025179376824887467,-0.025179376824887467
148.226,0.0026286995553941317,0.0026286995553941317
148.227,0.034325056052668,0.034325056052668
148.228,0.066300185891631,0.066300185891631
148.229,0.09324223736991089,0.09324223736991089
148.23000000000002,0.10922207324748046,0.10922207324748046
148.231,0.10941120004572746,0.10941120004572746
148.232,0.09186026275647285,0.09186026275647285
148.233,0.058669826453945584,0.058669826453945584
148.234,0.016038817967267027,0.016038817967267027
148.235,0.02696678950961895,-0.02696678950961895
148.23600000000002,0.060644781445329365,-0.060644781445329365
148.237,0.0772444824405758,-0.0772444824405758
148.238,0.0731143873943576,-0.0731143873943576
148.239,0.04972581204306359,-0.04972581204306359
148.24,0.013235946184510183,-0.013235946184510183
148.241,0.027281776247478184,0.027281776247478184
148.24200000000002,0.06238821344482681,0.06238821344482681
148.243,0.08481852667272505,0.08481852667272505
148.244,0.09124363721382966,0.09124363721382966
148.245,0.0827589702323539,0.0827589702323539
148.246,0.06403257957427733,0.06403257957427733
148.247,0.04147576272493314,0.04147576272493314
148.24800000000002,0.021090435859451473,0.021090435859451473
148.249,0.0067072895824584755,0.0067072895824584755
148.25,0.0008515571291639601,-0.0008515571291639601
148.251,0.0034981195275041177,-0.0034981195275041177
148.252,0.004690496681349132,-0.004690496681349132
148.253,0.007820445643572094,-0.007820445643572094
148.25400000000002,0.014769694534789934,-0.014769694534789934
148.255,0.025122763479398347,-0.025122763479398347
148.256,0.03626159189007838,-0.03626159189007838
148.257,0.04425059283898536,-0.04425059283898536
148.258,0.04516350246431955,-0.04516350246431955
148.259,0.036388573854158945,-0.036388573854158945
148.26000000000002,0.017501344869516378,-0.017501344869516378
148.261,0.00952255266423907,0.00952255266423907
148.262,0.0407479899344656,0.0407479899344656
148.263,0.071171601349862,0.071171601349862
148.264,0.0957660616701117,0.0957660616701117
148.265,0.1104025148381036,0.1104025148381036
148.26600000000002,0.11248493737477272,0.11248493737477272
148.267,0.10126311069142813,0.10126311069142813
148.268,0.07788594629297751,0.07788594629297751
148.269,0.04527915227068413,0.04527915227068413
148.27,0.007886709351908161,0.007886709351908161
148.27100000000002,0.028753733739913967,-0.028753733739913967
148.27200000000002,0.058669688026342315,-0.058669688026342315
148.273,0.07638096922545556,-0.07638096922545556
148.274,0.0780192884585903,-0.0780192884585903
148.275,0.062418760678794594,-0.062418760678794594
148.276,0.03184441854396902,-0.03184441854396902
148.27700000000002,0.007981208507166215,0.007981208507166215
148.27800000000002,0.04875911417305967,0.04875911417305967
148.279,0.08135134702080027,0.08135134702080027
148.28,0.09802053792662013,0.09802053792662013
148.281,0.09457660849169991,0.09457660849169991
148.282,0.07176245573917628,0.07176245573917628
148.28300000000002,0.03535919973925594,0.03535919973925594
148.28400000000002,0.005158739648781552,-0.005158739648781552
148.285,0.0391369006382557,-0.0391369006382557
148.286,0.057735071432401086,-0.057735071432401086
148.287,0.056502855931899965,-0.056502855931899965
148.288,0.036708929681102065,-0.036708929681102065
148.28900000000002,0.004951447072354953,-0.004951447072354953
148.29000000000002,0.02888687479907559,0.02888687479907559
148.291,0.05473091298450394,0.05473091298450394
148.292,0.06547764635840037,0.06547764635840037
148.293,0.05920369371931922,0.05920369371931922
148.294,0.03967711443142652,0.03967711443142652
148.29500000000002,0.014984353733496825,0.014984353733496825
148.29600000000002,0.005287417369407854,-0.005287417369407854
148.297,0.013376817104707839,-0.013376817104707839
148.298,0.0060603151303211256,-0.0060603151303211256
148.299,0.014180838581438815,0.014180838581438815
148.3,0.039954606352197164,0.039954606352197164
148.30100000000002,0.06146296949579888,0.06146296949579888
148.30200000000002,0.06987788766672476,0.06987788766672476
148.303,0.06044055455619324,0.06044055455619324
148.304,0.03421971869529217,0.03421971869529217
148.305,0.002084110867923372,-0.002084110867923372
148.306,0.038235987535814586,-0.038235987535814586
148.30700000000002,0.06376146429605845,-0.06376146429605845
148.30800000000002,0.07132441237690224,-0.07132441237690224
148.309,0.05904629002179618,-0.05904629002179618
148.31,0.030992914360854162,-0.030992914360854162
148.311,0.004311390594131659,0.004311390594131659
148.312,0.03680365308607603,0.03680365308607603
148.31300000000002,0.05821109749158304,0.05821109749158304
148.31400000000002,0.0646392877855495,0.0646392877855495
148.315,0.05754854594170178,0.05754854594170178
148.316,0.04282860037839731,0.04282860037839731
148.317,0.028357034520560376,0.028357034520560376
148.318,0.02095694042644669,0.02095694042644669
148.31900000000002,0.023865794768120452,0.023865794768120452
148.32000000000002,0.0356233422668113,0.0356233422668113
148.321,0.05075740836044207,0.05075740836044207
148.322,0.06198559594450903,0.06198559594450903
148.323,0.06309729807260567,0.06309729807260567
148.324,0.05143468019896691,0.05143468019896691
148.32500000000002,0.029042046997170612,0.029042046997170612
148.32600000000002,0.0020453929854880037,0.0020453929854880037
148.327,0.02152112396152983,-0.02152112396152983
148.328,0.03464632036038162,-0.03464632036038162
148.329,0.03394496622083221,-0.03394496622083221
148.33,0.02095355295811674,-0.02095355295811674
148.33100000000002,0.001608511947843061,-0.001608511947843061
148.33200000000002,0.015939752216192593,0.015939752216192593
148.333,0.0244045844423868,0.0244045844423868
148.334,0.02021195405686882,0.02021195405686882
148.335,0.005053658035270248,0.005053658035270248
148.336,0.014478580491783188,-0.014478580491783188
148.33700000000002,0.029121399045336616,-0.029121399045336616
148.338,0.030296897560428748,-0.030296897560428748
148.339,0.01343379755135543,-0.01343379755135543
148.34,0.01993935136518954,0.01993935136518954
148.341,0.06212715017367065,0.06212715017367065
148.342,0.1013413653062698,0.1013413653062698
148.34300000000002,0.1252926071272913,0.1252926071272913
148.344,0.1251394742934866,0.1251394742934866
148.345,0.09848758233777621,0.09848758233777621
148.346,0.05042691808782851,0.05042691808782851
148.347,0.007763657252179423,-0.007763657252179423
148.348,0.061848726541005816,-0.061848726541005816
148.34900000000002,0.09877573579524634,-0.09877573579524634
148.35,0.11040467487914374,-0.11040467487914374
148.351,0.09566347769339911,-0.09566347769339911
148.352,0.060498451091621996,-0.060498451091621996
148.353,0.015717964277515595,-0.015717964277515595
148.354,0.026497246784399353,0.026497246784399353
148.35500000000002,0.05624711391187165,0.05624711391187165
148.356,0.06856420476351976,0.06856420476351976
148.357,0.06429145286735372,0.06429145286735372
148.358,0.04904172373994564,0.04904172373994564
148.359,0.030739048258777935,0.030739048258777935
148.36,0.016679933840402006,0.016679933840402006
148.36100000000002,0.011146659449857932,0.011146659449857932
148.362,0.014338422910449955,0.014338422910449955
148.363,0.022871854438299977,0.022871854438299977
148.364,0.03153266459466075,0.03153266459466075
148.365,0.03553848159410378,0.03553848159410378
148.366,0.03244080867771837,0.03244080867771837
148.36700000000002,0.022983429339723527,0.022983429339723527
148.368,0.010660894294959533,0.010660894294959533
148.369,0.0002178420518694768,0.0002178420518694768
148.37,0.0042866563314856165,-0.0042866563314856165
148.371,0.0010911635612258497,-0.0010911635612258497
148.372,0.008584624679605746,0.008584624679605746
148.37300000000002,0.021016690100894575,0.021016690100894575
148.374,0.03139945494965746,0.03139945494965746
148.375,0.035649881233394076,0.035649881233394076
148.376,0.03190157022803386,0.03190157022803386
148.377,0.02113499847962208,0.02113499847962208
148.378,0.0067325931379815795,0.0067325931379815795
148.37900000000002,0.006839312082151938,-0.006839312082151938
148.38,0.015693199035050287,-0.015693199035050287
148.381,0.01788154424053634,-0.01788154424053634
148.382,0.013941873323401022,-0.013941873323401022
148.383,0.006438148616282335,-0.006438148616282335
148.384,0.0012938135573243859,0.0012938135573243859
148.38500000000002,0.006677493518095545,0.006677493518095545
148.386,0.009074831755592205,0.009074831755592205
148.387,0.010120072407589387,0.010120072407589387
148.388,0.01304381752072481,0.01304381752072481
148.389,0.021221255195234212,0.021221255195234212
148.39,0.036495525867253464,0.036495525867253464
148.39100000000002,0.057941120300690985,0.057941120300690985
148.392,0.08159611860409943,0.08159611860409943
148.393,0.10135149472393845,0.10135149472393845
148.394,0.11076235489151953,0.11076235489151953
148.395,0.1051936303140022,0.1051936303140022
148.39600000000002,0.08356134590285014,0.08356134590285014
148.39700000000002,0.04903899479236751,0.04903899479236751
148.398,0.008432996318904262,0.008432996318904262
148.399,0.02962287920681872,-0.02962287920681872
148.4,0.05710157154375106,-0.05710157154375106
148.401,0.06887332742380725,-0.06887332742380725
148.40200000000002,0.06412086318816979,-0.06412086318816979
148.40300000000002,0.04643249194094279,-0.04643249194094279
148.404,0.02255902947128341,-0.02255902947128341
148.405,0.00025227384862491764,-0.00025227384862491764
148.406,0.014110487770352398,0.014110487770352398
148.407,0.017362687407602717,0.017362687407602717
148.40800000000002,0.01029095156121862,0.01029095156121862
148.40900000000002,0.0028981591956638297,-0.0028981591956638297
148.41,0.016152827582629148,-0.016152827582629148
148.411,0.02363689694053106,-0.02363689694053106
148.412,0.02159764983437462,-0.02159764983437462
148.413,0.00946396767427049,-0.00946396767427049
148.41400000000002,0.010118711931987656,0.010118711931987656
148.41500000000002,0.03225178276622298,0.03225178276622298
148.416,0.051369344523545246,0.051369344523545246
148.417,0.06290570645263727,0.06290570645263727
148.418,0.06452694442271456,0.06452694442271456
148.419,0.05659622067149028,0.05659622067149028
148.42000000000002,0.04181656446138815,0.04181656446138815
148.42100000000002,0.024256188546999402,0.024256188546999402
148.422,0.008125109779449913,0.008125109779449913
148.423,0.003304751249178395,-0.003304751249178395
148.424,0.008350161409297119,-0.008350161409297119
148.425,0.007033801121737571,-0.007033801121737571
148.42600000000002,0.000747502675033207,-0.000747502675033207
148.42700000000002,0.008338142913377533,0.008338142913377533
148.428,0.01789077975774145,0.01789077975774145
148.429,0.025891966771773633,0.025891966771773633
148.43,0.030907966660626895,0.030907966660626895
148.431,0.032189167358034565,0.032189167358034565
148.43200000000002,0.02968026819311209,0.02968026819311209
148.43300000000002,0.02400995324567967,0.02400995324567967
148.434,0.016471091138601457,0.016471091138601457
148.435,0.008939344546228023,0.008939344546228023
148.436,0.0036501839706071237,0.0036501839706071237
148.437,0.0027847583818063626,0.0027847583818063626
148.43800000000002,0.00789766368891609,0.00789766368891609
148.43900000000002,0.019320221266266868,0.019320221266266868
148.44,0.03574331375587558,0.03574331375587558
148.441,0.05418291371834538,0.05418291371834538
148.442,0.07044403413500655,0.07044403413500655
148.443,0.08004513305653638,0.08004513305653638
148.44400000000002,0.07939568351927306,0.07939568351927306
148.44500000000002,0.06689802893484953,0.06689802893484953
148.446,0.04362270212131314,0.04362270212131314
148.447,0.013303378034814406,0.013303378034814406
148.448,0.0184096123114037,-0.0184096123114037
148.449,0.045269518592244706,-0.045269518592244706
148.45000000000002,0.06197113016909894,-0.06197113016909894
148.45100000000002,0.06546861263714332,-0.06546861263714332
148.452,0.05569170777311061,-0.05569170777311061
148.453,0.0354580887199909,-0.0354580887199909
148.454,0.009624285322172965,-0.009624285322172965
148.455,0.016252996149733967,0.016252996149733967
148.45600000000002,0.03733458524067057,0.03733458524067057
148.45700000000002,0.05058105253847578,0.05058105253847578
148.458,0.055213422742273144,0.055213422742273144
148.459,0.05248029213754091,0.05248029213754091
148.46,0.0448836495175966,0.0448836495175966
148.461,0.035174933381424855,0.035174933381424855
148.46200000000002,0.02547675642232816,0.02547675642232816
148.463,0.01680626198730084,0.01680626198730084
148.464,0.009108470300728033,0.009108470300728033
148.465,0.0017163718608406153,0.0017163718608406153
148.466,0.005992100304541115,-0.005992100304541115
148.467,0.014022759031710352,-0.014022759031710352
148.46800000000002,0.021508265579295083,-0.021508265579295083
148.469,0.026860637798784004,-0.026860637798784004
148.47,0.028268098365028083,-0.028268098365028083
148.471,0.02434463250104346,-0.02434463250104346
148.472,0.014691264681259142,-0.014691264681259142
148.473,0.00016855644080127075,-0.00016855644080127075
148.47400000000002,0.01721083892695252,0.01721083892695252
148.475,0.03472712031251879,0.03472712031251879
148.476,0.049585295408429486,0.049585295408429486
148.477,0.05953727777105433,0.05953727777105433
148.478,0.0633224122163567,0.0633224122163567
148.479,0.060833677910018924,0.060833677910018924
148.48000000000002,0.0530136477800045,0.0530136477800045
148.481,0.041560771120709994,0.041560771120709994
148.482,0.028557786802082985,0.028557786802082985
148.483,0.016117345633220426,0.016117345633220426
148.484,0.0060935312633132455,0.0060935312633132455
148.485,0.00013896311372063597,-0.00013896311372063597
148.48600000000002,0.0018582994205277314,-0.0018582994205277314
148.487,0.0008703998092356446,0.0008703998092356446
148.488,0.0071279932802845725,0.0071279932802845725
148.489,0.015202053846392172,0.015202053846392172
148.49,0.022838480692066065,0.022838480692066065
148.491,0.027703483785560756,0.027703483785560756
148.49200000000002,0.027993496906031146,0.027993496906031146
148.493,0.02304074115453747,0.02304074115453747
148.494,0.013706834038693883,0.013706834038693883
148.495,0.0023723947117859634,0.0023723947117859634
148.496,0.007570490402578067,-0.007570490402578067
148.497,0.012655125453266192,-0.012655125453266192
148.49800000000002,0.010467413774261414,-0.010467413774261414
148.499,0.000608788361299184,-0.000608788361299184
148.5,0.014865009560360853,0.014865009560360853
148.501,0.03176343844513285,0.03176343844513285
148.502,0.044842968252132076,0.044842968252132076
148.503,0.04939040559153196,0.04939040559153196
148.50400000000002,0.04283902219763247,0.04283902219763247
148.505,0.02587941705943031,0.02587941705943031
148.506,0.0026367078761346807,0.0026367078761346807
148.507,0.020245355140010357,-0.020245355140010357
148.508,0.03542277169628427,-0.03542277169628427
148.509,0.037064549788062395,-0.037064549788062395
148.51000000000002,0.02278092044082758,-0.02278092044082758
148.511,0.005371074408061061,0.005371074408061061
148.512,0.0411847267316674,0.0411847267316674
148.513,0.07588452426067738,0.07588452426067738
148.514,0.10055721342617852,0.10055721342617852
148.515,0.10870779639482064,0.10870779639482064
148.51600000000002,0.09814911403369275,0.09814911403369275
148.517,0.07162404386690846,0.07162404386690846
148.518,0.03595143703185921,0.03595143703185921
148.519,4.383160644705342e-05,-4.383160644705342e-05
148.52,0.028163977356987946,-0.028163977356987946
148.52100000000002,0.04319828950760163,-0.04319828950760163
148.52200000000002,0.04426319597795425,-0.04426319597795425
148.523,0.03471168681738579,-0.03471168681738579
148.524,0.020674111335869827,-0.020674111335869827
148.525,0.00874461197000076,-0.00874461197000076
148.526,0.0036075880053575426,-0.0036075880053575426
148.52700000000002,0.006412012145598722,-0.006412012145598722
148.52800000000002,0.014443129939065824,-0.014443129939065824
148.529,0.022197765620257215,-0.022197765620257215
148.53,0.02349048270306675,-0.02349048270306675
148.531,0.01386467124743751,-0.01386467124743751
148.532,0.007525820299921104,0.007525820299921104
148.53300000000002,0.03722636549110425,0.03722636549110425
148.53400000000002,0.06824923008430872,0.06824923008430872
148.535,0.09208077399639736,0.09208077399639736
148.536,0.10129649371198912,0.10129649371198912
148.537,0.09194731930097921,0.09194731930097921
148.538,0.06494973480115629,0.06494973480115629
148.53900000000002,0.02602967864485306,0.02602967864485306
148.54000000000002,0.015771236979596703,-0.015771236979596703
148.541,0.05056986260524876,-0.05056986260524876
148.542,0.07034361990974525,-0.07034361990974525
148.543,0.0710565655228409,-0.0710565655228409
148.544,0.05360507589904051,-0.05360507589904051
148.54500000000002,0.023356514788676397,-0.023356514788676397
148.54600000000002,0.011517018654381816,0.011517018654381816
148.547,0.04236460705534051,0.04236460705534051
148.548,0.06234057658768388,0.06234057658768388
148.549,0.06801106852906225,0.06801106852906225
148.55,0.059897779442084076,0.059897779442084076
148.55100000000002,0.04191518344585998,0.04191518344585998
148.55200000000002,0.019976976730365692,0.019976976730365692
148.553,0.00024936121714191906,0.00024936121714191906
148.554,0.012434617082939026,-0.012434617082939026
148.555,0.015603698879089412,-0.015603698879089412
148.556,0.009438690667963323,-0.009438690667963323
148.55700000000002,0.0036267917240491165,0.0036267917240491165
148.55800000000002,0.019773834749713837,0.019773834749713837
148.559,0.034839482571523694,0.034839482571523694
148.56,0.04526377644603641,0.04526377644603641
148.561,0.048767340416764116,0.048767340416764116
148.562,0.04469407832832628,0.04469407832832628
148.56300000000002,0.03403780062695039,0.03403780062695039
148.56400000000002,0.019210238702302318,0.019210238702302318
148.565,0.0036077077968279525,0.0036077077968279525
148.566,0.008979957782223047,-0.008979957782223047
148.567,0.015073748004550969,-0.015073748004550969
148.568,0.012249176339985235,-0.012249176339985235
148.56900000000002,0.00020438079336027037,0.00020438079336027037
148.57000000000002,0.02087444469185784,0.02087444469185784
148.571,0.04623171064831144,0.04623171064831144
148.572,0.07115150039416385,0.07115150039416385
148.573,0.08992189095550196,0.08992189095550196
148.574,0.09755276813850844,0.09755276813850844
148.57500000000002,0.0910681736543204,0.0910681736543204
148.57600000000002,0.07041362281709773,0.07041362281709773
148.577,0.03867465885430943,0.03867465885430943
148.578,0.001478151433867092,0.001478151433867092
148.579,0.03431297912674591,-0.03431297912674591
148.58,0.06227374581068135,-0.06227374581068135
148.58100000000002,0.077986365924678,-0.077986365924678
148.58200000000002,0.08004164131688452,-0.08004164131688452
148.583,0.07017202984166482,-0.07017202984166482
148.584,0.05248461370551949,-0.05248461370551949
148.585,0.032050019206403046,-0.032050019206403046
148.586,0.013312629149457633,-0.013312629149457633
148.58700000000002,0.0011563439612085613,0.0011563439612085613
148.588,0.011161758364939267,0.011161758364939267
148.589,0.018501512673241294,0.018501512673241294
148.59,0.025866003241476365,0.025866003241476365
148.591,0.03544177764606937,0.03544177764606937
148.592,0.04774693340945646,0.04774693340945646
148.59300000000002,0.06114419790121994,0.06114419790121994
148.594,0.0722344700095936,0.0722344700095936
148.595,0.07701296922206535,0.07701296922206535
148.596,0.0723854351460349,0.0723854351460349
148.597,0.05749587254404065,0.05749587254404065
148.598,0.034365425974136166,0.034365425974136166
148.59900000000002,0.007571197376197825,0.007571197376197825
148.6,0.01697352613849834,-0.01697352613849834
148.601,0.03375607445886997,-0.03375607445886997
148.602,0.03934279734141788,-0.03934279734141788
148.603,0.03342698311627956,-0.03342698311627956
148.604,0.0188773609504721,-0.0188773609504721
148.60500000000002,0.0007536128171079515,-0.0007536128171079515
148.606,0.01539192791767885,0.01539192791767885
148.607,0.025359272776437347,0.025359272776437347
148.608,0.02766911618863155,0.02766911618863155
148.609,0.023987708195462476,0.023987708195462476
148.61,0.01845844778598771,0.01845844778598771
148.61100000000002,0.016160104996973512,0.016160104996973512
148.612,0.021208200816704714,0.021208200816704714
148.613,0.03513906242221854,0.03513906242221854
148.614,0.05612456371363295,0.05612456371363295
148.615,0.07929179871933845,0.07929179871933845
148.616,0.09805934217162693,0.09805934217162693
148.61700000000002,0.1060721541811136,0.1060721541811136
148.618,0.09912889821765436,0.09912889821765436
148.619,0.07650691015880495,0.07650691015880495
148.62,0.04129151437484646,0.04129151437484646
148.621,0.0003646254715531372,-0.0003646254715531372
148.622,0.040798291333308145,-0.040798291333308145
148.62300000000002,0.07272379522956718,-0.07272379522956718
148.624,0.09090214829737542,-0.09090214829737542
148.625,0.09315097604293121,-0.09315097604293121
148.626,0.08049097060643251,-0.08049097060643251
148.627,0.05649986056593137,-0.05649986056593137
148.628,0.026166192261113497,-0.026166192261113497
148.62900000000002,0.00536366684035694,0.00536366684035694
148.63,0.033789874440517176,0.033789874440517176
148.631,0.05620544327597399,0.05620544327597399
148.632,0.07116396112688372,0.07116396112688372
148.633,0.07840670467263688,0.07840670467263688
148.634,0.07846267917029515,0.07846267917029515
148.63500000000002,0.07231257853875483,0.07231257853875483
148.636,0.061212106233303976,0.061212106233303976
148.637,0.04665313609869837,0.04665313609869837
148.638,0.03035796908902766,0.03035796908902766
148.639,0.0141880823739442,0.0141880823739442
148.64,9.354921374427061e-05,-9.354921374427061e-05
148.64100000000002,0.011169068634251378,-0.011169068634251378
148.642,0.0184942294342767,-0.0184942294342767
148.643,0.022447361944654798,-0.022447361944654798
148.644,0.02418093627036666,-0.02418093627036666
148.645,0.025167468275615,-0.025167468275615
148.64600000000002,0.026564690888055575,-0.026564690888055575
148.64700000000002,0.02862505938589288,-0.02862505938589288
148.648,0.03039438359521751,-0.03039438359521751
148.649,0.029865930456269507,-0.029865930456269507
148.65,0.02460090128965986,-0.02460090128965986
148.651,0.012647883474778188,-0.012647883474778188
148.65200000000002,0.006539706367018505,0.006539706367018505
148.65300000000002,0.031522765216848825,0.031522765216848825
148.654,0.05887970364430495,0.05887970364430495
148.655,0.08385709980623135,0.08385709980623135
148.656,0.10151161158924893,0.10151161158924893
148.657,0.10800962782630585,0.10800962782630585
148.65800000000002,0.10168182583254559,0.10168182583254559
148.65900000000002,0.08349731988247977,0.08349731988247977
148.66,0.056806466281350776,0.056806466281350776
148.661,0.02643983329264521,0.02643983329264521
148.662,0.00254027098268117,-0.00254027098268117
148.663,0.026034179696904802,-0.026034179696904802
148.66400000000002,0.041679591259685456,-0.041679591259685456
148.66500000000002,0.049004404520909484,-0.049004404520909484
148.666,0.048985706112034455,-0.048985706112034455
148.667,0.04325486101530285,-0.04325486101530285
148.668,0.0333034561551927,-0.0333034561551927
148.669,0.020019841536986993,-0.020019841536986993
148.67000000000002,0.0037311129859749492,-0.0037311129859749492
148.67100000000002,0.015299751123651673,0.015299751123651673
148.672,0.03617941567817051,0.03617941567817051
148.673,0.056856803053005445,0.056856803053005445
148.674,0.07408596625562658,0.07408596625562658
148.675,0.08402181503600237,0.08402181503600237
148.67600000000002,0.08333432755636205,0.08333432755636205
148.67700000000002,0.07048935860116612,0.07048935860116612
148.678,0.046720203686760664,0.046720203686760664
148.679,0.016260803881209096,0.016260803881209096
148.68,0.01437415727954472,-0.01437415727954472
148.681,0.037960227786389744,-0.037960227786389744
148.68200000000002,0.04857089399011272,-0.04857089399011272
148.68300000000002,0.043412027884142,-0.043412027884142
148.684,0.023871685007241017,-0.023871685007241017
148.685,0.004619343078384075,0.004619343078384075
148.686,0.033963370986998864,0.033963370986998864
148.687,0.05565921998969259,0.05565921998969259
148.68800000000002,0.06330014008883533,0.06330014008883533
148.68900000000002,0.054545623203853255,0.054545623203853255
148.69,0.03193863417963683,0.03193863417963683
148.691,0.0022770439683204025,0.0022770439683204025
148.692,0.02531230522268635,-0.02531230522268635
148.693,0.042044594370564514,-0.042044594370564514
148.69400000000002,0.04210149898903037,-0.04210149898903037
148.69500000000002,0.024420390083915722,-0.024420390083915722
148.696,0.006894676172876757,0.006894676172876757
148.697,0.04367040565183644,0.04367040565183644
148.698,0.07594905093755333,0.07594905093755333
148.699,0.09478872276239558,0.09478872276239558
148.70000000000002,0.0947632387582873,0.0947632387582873
148.70100000000002,0.07544775840975504,0.07544775840975504
148.702,0.041488050505510854,0.041488050505510854
148.703,0.0012720248416568936,0.0012720248416568936
148.704,0.03537781808424478,-0.03537781808424478
148.705,0.05981139380596845,-0.05981139380596845
148.70600000000002,0.06672658731061376,-0.06672658731061376
148.70700000000002,0.05534452611045926,-0.05534452611045926
148.708,0.029330570561073355,-0.029330570561073355
148.709,0.004427798330236321,0.004427798330236321
148.71,0.03776953896599089,0.03776953896599089
148.711,0.06335632479663844,0.06335632479663844
148.71200000000002,0.07635315505274187,0.07635315505274187
148.713,0.07530110243647292,0.07530110243647292
148.714,0.06205155868515466,0.06205155868515466
148.715,0.04089819625193125,0.04089819625193125
148.716,0.017238158471883258,0.017238158471883258
148.717,0.0038286471582451576,-0.0038286471582451576
148.71800000000002,0.018599475469653792,-0.018599475469653792
148.719,0.025343518199400616,-0.025343518199400616
148.72,0.024303754317515303,-0.024303754317515303
148.721,0.017236470572482676,-0.017236470572482676
148.722,0.006697547104198565,-0.006697547104198565
148.723,0.004693326606744597,0.004693326606744597
148.72400000000002,0.014824609808578249,0.014824609808578249
148.725,0.022400664371094337,0.022400664371094337
148.726,0.02697755333438523,0.02697755333438523
148.727,0.02879119211453607,0.02879119211453607
148.728,0.028478716011567817,0.028478716011567817
148.729,0.02679423874596787,0.02679423874596787
148.73000000000002,0.0243941133568506,0.0243941133568506
148.731,0.02172870136568794,0.02172870136568794
148.732,0.019040486882011542,0.019040486882011542
148.733,0.016440375718183686,0.016440375718183686
148.734,0.014018318271122654,0.014018318271122654
148.735,0.011940757405417335,0.011940757405417335
148.73600000000002,0.010494460952586548,0.010494460952586548
148.737,0.010052717836574354,0.010052717836574354
148.738,0.010963904089098087,0.010963904089098087
148.739,0.013390413345957697,0.013390413345957697
148.74,0.01715123403725327,0.01715123403725327
148.741,0.021634952803432084,0.021634952803432084
148.74200000000002,0.02584295429017236,0.02584295429017236
148.743,0.028590964743594238,0.028590964743594238
148.744,0.028845161097103444,0.028845161097103444
148.745,0.02611077639716175,0.02611077639716175
148.746,0.020747234583402108,0.020747234583402108
148.747,0.014075267946628944,0.014075267946628944
148.74800000000002,0.008180794934322666,0.008180794934322666
148.749,0.005404698065096136,0.005404698065096136
148.75,0.0076162942890174445,0.0076162942890174445
148.751,0.01546679338646273,0.01546679338646273
148.752,0.027869619306157167,0.027869619306157167
148.753,0.04192954059047027,0.04192954059047027
148.75400000000002,0.05343670689285718,0.05343670689285718
148.755,0.057877323792284274,0.057877323792284274
148.756,0.051736326527718646,0.051736326527718646
148.757,0.03373669120588163,0.03373669120588163
148.758,0.005625112899263485,0.005625112899263485
148.759,0.027800925746023553,-0.027800925746023553
148.76000000000002,0.059536929074705314,-0.059536929074705314
148.761,0.08194770011807373,-0.08194770011807373
148.762,0.08870320693962952,-0.08870320693962952
148.763,0.07655769022356818,-0.07655769022356818
148.764,0.04645637523977386,-0.04645637523977386
148.765,0.0036097669003560817,-0.0036097669003560817
148.76600000000002,0.0435511531466628,0.0435511531466628
148.767,0.0853108125963824,0.0853108125963824
148.768,0.11300522185600603,0.11300522185600603
148.769,0.12113814119567001,0.12113814119567001
148.77,0.10870404220509511,0.10870404220509511
148.77100000000002,0.0793587417554582,0.0793587417554582
148.77200000000002,0.040398762059897786,0.040398762059897786
148.773,0.0008425959995073118,0.0008425959995073118
148.774,0.030847390441144595,-0.030847390441144595
148.775,0.048777017123947,-0.048777017123947
148.776,0.05083676271241333,-0.05083676271241333
148.77700000000002,0.03883937998530973,-0.03883937998530973
148.77800000000002,0.01761479942162658,-0.01761479942162658
148.779,0.00660671588717765,0.00660671588717765
148.78,0.028009392281040713,0.028009392281040713
148.781,0.04267032866231335,0.04267032866231335
148.782,0.04930696565436388,0.04930696565436388
148.78300000000002,0.04914868519239102,0.04914868519239102
148.78400000000002,0.04506415502288519,0.04506415502288519
148.785,0.04029286841538626,0.04029286841538626
148.786,0.03722291632532726,0.03722291632532726
148.787,0.03660602946160507,0.03660602946160507
148.788,0.037430719540383794,0.037430719540383794
148.78900000000002,0.03744637397821604,0.03744637397821604
148.79000000000002,0.0341212575568155,0.0341212575568155
148.791,0.025690713255513753,0.025690713255513753
148.792,0.011942778687818345,0.011942778687818345
148.793,0.005508454047135625,-0.005508454047135625
148.794,0.023536726781370865,-0.023536726781370865
148.79500000000002,0.03829370342788352,-0.03829370342788352
148.79600000000002,0.04622576625931918,-0.04622576625931918
148.797,0.045016068280283816,-0.045016068280283816
148.798,0.03419300192681651,-0.03419300192681651
148.799,0.01526101262639501,-0.01526101262639501
148.8,0.008646027363745867,0.008646027363745867
148.80100000000002,0.03346176685142388,0.03346176685142388
148.80200000000002,0.05503346456365077,0.05503346456365077
148.803,0.06990868145230333,0.06990868145230333
148.804,0.0759040224772487,0.0759040224772487
148.805,0.0723786372173556,0.0723786372173556
148.806,0.06021649775380955,0.06021649775380955
148.80700000000002,0.041578228509670634,0.041578228509670634
148.80800000000002,0.019505232729865263,0.019505232729865263
148.809,0.002548624776704811,-0.002548624776704811
148.81,0.021203655650652076,-0.021203655650652076
148.811,0.03362243014740618,-0.03362243014740618
148.812,0.03792499270194172,-0.03792499270194172
148.81300000000002,0.03350545654858528,-0.03350545654858528
148.81400000000002,0.02119002257291469,-0.02119002257291469
148.815,0.0031754430282837642,-0.0031754430282837642
148.816,0.017288560915854845,0.017288560915854845
148.817,0.03645771136546938,0.03645771136546938
148.818,0.0508098743967933,0.0508098743967933
148.81900000000002,0.05777643581674585,0.05777643581674585
148.82000000000002,0.05631425608989016,0.05631425608989016
148.821,0.04716138109108914,0.04716138109108914
148.822,0.032687000844128455,0.032687000844128455
148.823,0.01634830732965331,0.01634830732965331
148.824,0.0018750152988677993,0.0018750152988677993
148.82500000000002,0.007617083566113458,-0.007617083566113458
148.82600000000002,0.010355782223015142,-0.010355782223015142
148.827,0.0062959447643547994,-0.0062959447643547994
148.828,0.002939309454805361,0.002939309454805361
148.829,0.01453510073744102,0.01453510073744102
148.83,0.02524227143082114,0.02524227143082114
148.83100000000002,0.03220886729257999,0.03220886729257999
148.83200000000002,0.033669397045174465,0.033669397045174465
148.833,0.029327096105084438,0.029327096105084438
148.834,0.020357394111401694,0.020357394111401694
148.835,0.009064591045069736,0.009064591045069736
148.836,0.001693045561013684,-0.001693045561013684
148.83700000000002,0.009153651588644784,-0.009153651588644784
148.838,0.01122851202000541,-0.01122851202000541
148.839,0.006900298270871685,-0.006900298270871685
148.84,0.0036020300056240906,0.0036020300056240906
148.841,0.018843379675193672,0.018843379675193672
148.842,0.03639858722603306,0.03639858722603306
148.84300000000002,0.0531991644355041,0.0531991644355041
148.844,0.06597451129432463,0.06597451129432463
148.845,0.07175934821835916,0.07175934821835916
148.846,0.0684321463617954,0.0684321463617954
148.847,0.055223515996288164,0.055223515996288164
148.848,0.03309832340164465,0.03309832340164465
148.84900000000002,0.00489082746921099,0.00489082746921099
148.85,0.024919200483787485,-0.024919200483787485
148.851,0.05084546702783421,-0.05084546702783421
148.852,0.06740514213554982,-0.06740514213554982
148.853,0.07033433735597983,-0.07033433735597983
148.854,0.05773925484482212,-0.05773925484482212
148.85500000000002,0.030867431975536763,-0.030867431975536763
148.856,0.005774138045586685,0.005774138045586685
148.857,0.04509229713365914,0.04509229713365914
148.858,0.0788096756481953,0.0788096756481953
148.859,0.09931838362084133,0.09931838362084133
148.86,0.10154630068388348,0.10154630068388348
148.86100000000002,0.08434350263317625,0.08434350263317625
148.862,0.05098090738158367,0.05098090738158367
148.863,0.008564224342432425,0.008564224342432425
148.864,0.03354824719737626,-0.03354824719737626
148.865,0.06595496833008041,-0.06595496833008041
148.866,0.08148705430704883,-0.08148705430704883
148.86700000000002,0.07694945999088831,-0.07694945999088831
148.868,0.053856059963306335,-0.053856059963306335
148.869,0.017956179469162614,-0.017956179469162614
148.87,0.022316767629183998,0.022316767629183998
148.871,0.0580435790203917,0.0580435790203917
148.872,0.08205563468684551,0.08205563468684551
148.87300000000002,0.09059914203936015,0.09059914203936015
148.874,0.08399348127365669,0.08399348127365669
148.875,0.06615088270430536,0.06615088270430536
148.876,0.04315863098875594,0.04315863098875594
148.877,0.021390153047586624,0.021390153047586624
148.878,0.0057277272627138665,0.0057277272627138665
148.87900000000002,0.0015857738844577973,-0.0015857738844577973
148.88,0.0011711975960619903,-0.0011711975960619903
148.881,0.004175732287185374,0.004175732287185374
148.882,0.010786195991294267,0.010786195991294267
148.883,0.01555228349984672,0.01555228349984672
148.884,0.016996782682131784,0.016996782682131784
148.88500000000002,0.015632316501044352,0.015632316501044352
148.886,0.013525317240650647,0.013525317240650647
148.887,0.013263691172473724,0.013263691172473724
148.888,0.016735067834678485,0.016735067834678485
148.889,0.024184658902347334,0.024184658902347334
148.89,0.03391736562906189,0.03391736562906189
148.89100000000002,0.04277431962349376,0.04277431962349376
148.892,0.047230878367667595,0.047230878367667595
148.893,0.04473004888046006,0.04473004888046006
148.894,0.034765033985925564,0.034765033985925564
148.895,0.01929504146021932,0.01929504146021932
148.89600000000002,0.0022992251596201108,0.0022992251596201108
148.89700000000002,0.011428226997384106,-0.011428226997384106
148.898,0.0178646539005497,-0.0178646539005497
148.899,0.015195526299592088,-0.015195526299592088
148.9,0.0045923478416298735,-0.0045923478416298735
148.901,0.009978158235334433,0.009978158235334433
148.90200000000002,0.022910178645669133,0.022910178645669133
148.90300000000002,0.02875063711174053,0.02875063711174053
148.904,0.02406729112974726,0.02406729112974726
148.905,0.008780407255766232,0.008780407255766232
148.906,0.013507814146891617,-0.013507814146891617
148.907,0.03634701332749457,-0.03634701332749457
148.90800000000002,0.05222893832020126,-0.05222893832020126
148.90900000000002,0.05481505603435699,-0.05481505603435699
148.91,0.04092746401481817,-0.04092746401481817
148.911,0.011684622316444848,-0.011684622316444848
148.912,0.027584999328758686,0.027584999328758686
148.913,0.06864847593517798,0.06864847593517798
148.91400000000002,0.10251867901920142,0.10251867901920142
148.91500000000002,0.12181869336641515,0.12181869336641515
148.916,0.12266991182503251,0.12266991182503251
148.917,0.10556700410725561,0.10556700410725561
148.918,0.07501951180301436,0.07501951180301436
148.919,0.038117045395670957,0.038117045395670957
148.92000000000002,0.002492858168721357,0.002492858168721357
148.92100000000002,0.025679932634846803,-0.025679932634846803
148.922,0.043069947485371296,-0.043069947485371296
148.923,0.04958542016444967,-0.04958542016444967
148.924,0.04775829216073668,-0.04775829216073668
148.925,0.04140840644044852,-0.04140840644044852
148.92600000000002,0.03409289014508321,-0.03409289014508321
148.92700000000002,0.02787961140252826,-0.02787961140252826
148.928,0.022836204902413892,-0.022836204902413892
148.929,0.017354407075284017,-0.017354407075284017
148.93,0.009130124005972795,-0.009130124005972795
148.931,0.003604097628988834,0.003604097628988834
148.93200000000002,0.021071361570867753,0.021071361570867753
148.93300000000002,0.04154763794808747,0.04154763794808747
148.934,0.06171474308394398,0.06171474308394398
148.935,0.07764180908027107,0.07764180908027107
148.936,0.08603999652968608,0.08603999652968608
148.937,0.08533720634981767,0.08533720634981767
148.93800000000002,0.07618479600450168,0.07618479600450168
148.93900000000002,0.061212425216862654,0.061212425216862654
148.94,0.0441170862788578,0.0441170862788578
148.941,0.02841213441628243,0.02841213441628243
148.942,0.016286403472251187,0.016286403472251187
148.943,0.007987387019001924,0.007987387019001924
148.94400000000002,0.0019572664475115964,0.0019572664475115964
148.94500000000002,0.004319978656195267,-0.004319978656195267
148.946,0.013063664472408032,-0.013063664472408032
148.947,0.024996963684281837,-0.024996963684281837
148.948,0.03866595402637385,-0.03866595402637385
148.949,0.05057548968566017,-0.05057548968566017
148.95000000000002,0.056163465409610036,-0.056163465409610036
148.95100000000002,0.051338087892315976,-0.051338087892315976
148.952,0.03408646858661546,-0.03408646858661546
148.953,0.0056031926655419895,-0.0056031926655419895
148.954,0.02949011958322445,0.02949011958322445
148.955,0.06399318364315776,0.06399318364315776
148.95600000000002,0.08986798618578673,0.08986798618578673
148.95700000000002,0.10040428270652568,0.10040428270652568
148.958,0.09218493448667386,0.09218493448667386
148.959,0.0662578891382426,0.0662578891382426
148.96,0.0281350506713387,0.0281350506713387
148.961,0.013429320010573287,-0.013429320010573287
148.96200000000002,0.048576354849539705,-0.048576354849539705
148.963,0.06882639685073544,-0.06882639685073544
148.964,0.06923731418366563,-0.06923731418366563
148.965,0.04965664442774331,-0.04965664442774331
148.966,0.014740749715774992,-0.014740749715774992
148.967,0.02724564767259441,0.02724564767259441
148.96800000000002,0.06650900655753889,0.06650900655753889
148.969,0.09412273615267264,0.09412273615267264
148.97,0.10411659855688948,0.10411659855688948
148.971,0.09474837261249114,0.09474837261249114
148.972,0.06868806026892127,0.06868806026892127
148.973,0.03214227454806062,0.03214227454806062
148.97400000000002,0.0067855813098621764,-0.0067855813098621764
148.975,0.04003548934642931,-0.04003548934642931
148.976,0.06133570628354301,-0.06133570628354301
148.977,0.06735701800256044,-0.06735701800256044
148.978,0.05807296165947118,-0.05807296165947118
148.979,0.03634476249426144,-0.03634476249426144
148.98000000000002,0.006939093511186933,-0.006939093511186933
148.981,0.024703253996839036,0.024703253996839036
148.982,0.05361812950087397,0.05361812950087397
148.983,0.07613484933958636,0.07613484933958636
148.984,0.09023647970019066,0.09023647970019066
148.985,0.0954822610709507,0.0954822610709507
148.98600000000002,0.09262204771536209,0.09262204771536209
148.987,0.08308735537904743,0.08308735537904743
148.988,0.06853527967624884,0.06853527967624884
148.989,0.050562538407245894,0.050562538407245894
148.99,0.030622480633580862,0.030622480633580862
148.991,0.010097417777609197,0.010097417777609197
148.99200000000002,0.009573405905730525,-0.009573405905730525
148.993,0.026820177844327886,-0.026820177844327886
148.994,0.04000228842846354,-0.04000228842846354
148.995,0.04762146823999258,-0.04762146823999258
148.996,0.048641707380390975,-0.048641707380390975
148.997,0.04281759941796093,-0.04281759941796093
148.99800000000002,0.03091297774202728,-0.03091297774202728
148.999,0.01471136486529967,-0.01471136486529967
149.0,0.003225667387469322,0.003225667387469322
149.001,0.020021975935373693,0.020021975935373693
149.002,0.033070283444481374,0.033070283444481374
149.003,0.04058726309830751,0.04058726309830751
149.00400000000002,0.041987227914101144,0.041987227914101144
149.005,0.037963215744815315,0.037963215744815315
149.006,0.03024341065344527,0.03024341065344527
149.007,0.021085525746153078,0.021085525746153078
149.008,0.012653347406975879,0.012653347406975879
149.009,0.006461068429781225,0.006461068429781225
149.01000000000002,0.003055798035789481,0.003055798035789481
149.011,0.002037219635744103,0.002037219635744103
149.012,0.0024048747449385566,0.0024048747449385566
149.013,0.0031112548836849108,0.0031112548836849108
149.014,0.003620483817168507,0.003620483817168507
149.015,0.004257651789705497,0.004257651789705497
149.01600000000002,0.006193665871518261,0.006193665871518261
149.017,0.011031002826286329,0.011031002826286329
149.018,0.020100739856230954,0.020100739856230954
149.019,0.03370222551368118,0.03370222551368118
149.02,0.05056863484394336,0.05056863484394336
149.02100000000002,0.06779874128279051,0.06779874128279051
