Czas,AbsSum,Sum
237.089,0.15213449809282686,-0.15213449809282686
237.09,0.13568596293580726,-0.13568596293580726
237.091,0.1007250115418834,-0.1007250115418834
237.092,0.053064698683209954,-0.053064698683209954
237.093,8.35436079913432e-05,-8.35436079913432e-05
237.094,0.050563285608549835,0.050563285608549835
237.095,0.09211875486014964,0.09211875486014964
237.096,0.11963688197789346,0.11963688197789346
237.097,0.13056482601398267,0.13056482601398267
237.098,0.12497531831958142,0.12497531831958142
237.099,0.10544886021452071,0.10544886021452071
237.1,0.07660906922052924,0.07660906922052924
237.101,0.04433051710743774,0.04433051710743774
237.102,0.014685162595868606,0.014685162595868606
237.103,0.007230532841540183,-0.007230532841540183
237.104,0.0183656846697563,-0.0183656846697563
237.105,0.018416245931515696,-0.018416245931515696
237.106,0.009921369306804873,-0.009921369306804873
237.107,0.0023615858369603338,0.0023615858369603338
237.108,0.012729172263501454,0.012729172263501454
237.109,0.01616779582737493,0.01616779582737493
237.11,0.009914379777042681,0.009914379777042681
237.111,0.005534467068466831,-0.005534467068466831
237.112,0.026326791041811348,-0.026326791041811348
237.113,0.046186977109670346,-0.046186977109670346
237.114,0.05817410126322209,-0.05817410126322209
237.115,0.056784755339233106,-0.056784755339233106
237.116,0.039768241048809716,-0.039768241048809716
237.117,0.009066400233720073,-0.009066400233720073
237.118,0.02946976220709141,0.02946976220709141
237.119,0.0675647956807588,0.0675647956807588
237.12,0.09679820970300912,0.09679820970300912
237.121,0.11099936975837799,0.11099936975837799
237.122,0.10801503057609074,0.10801503057609074
237.123,0.09028288460134348,0.09028288460134348
237.124,0.06401198733300362,0.06401198733300362
237.125,0.03721444126976414,0.03721444126976414
237.126,0.017207159847453912,0.017207159847453912
237.127,0.008381356065619183,0.008381356065619183
237.128,0.010956450215120928,0.010956450215120928
237.129,0.021116287551153468,0.021116287551153468
237.13,0.03247163058724056,0.03247163058724056
237.131,0.03835416364398636,0.03835416364398636
237.132,0.03417127736730219,0.03417127736730219
237.133,0.019032058474823144,0.019032058474823144
237.134,0.003898647770900321,-0.003898647770900321
237.135,0.028431441739605656,-0.028431441739605656
237.136,0.047413987767924715,-0.047413987767924715
237.137,0.05512049564012367,-0.05512049564012367
237.138,0.04915778438542162,-0.04915778438542162
237.139,0.03124407449045885,-0.03124407449045885
237.14,0.006603020581675945,-0.006603020581675945
237.141,0.017811452164392616,0.017811452164392616
237.142,0.035646170979579006,0.035646170979579006
237.143,0.043235749402102286,0.043235749402102286
237.144,0.04073376079165336,0.04073376079165336
237.145,0.03190746679752876,0.03190746679752876
237.146,0.02267551818570146,0.02267551818570146
237.147,0.018898532173336147,0.018898532173336147
237.148,0.02418625427599652,0.02418625427599652
237.149,0.038476620091759894,0.038476620091759894
237.15,0.05787653350371058,0.05787653350371058
237.151,0.07582466607481098,0.07582466607481098
237.152,0.08519115417019663,0.08519115417019663
237.153,0.08061916738379349,0.08061916738379349
237.154,0.060341575850693996,0.060341575850693996
237.155,0.026891678373962336,0.026891678373962336
237.156,0.0134988747013004,-0.0134988747013004
237.157,0.05259091666586735,-0.05259091666586735
237.158,0.08235300676092816,-0.08235300676092816
237.159,0.09699858727514987,-0.09699858727514987
237.16,0.09424458676820713,-0.09424458676820713
237.161,0.07548662668494843,-0.07548662668494843
237.162,0.04496316668873224,-0.04496316668873224
237.163,0.008303902621831227,-0.008303902621831227
237.164,0.028983813515585766,0.028983813515585766
237.165,0.06258899918420813,0.06258899918420813
237.166,0.08976034298716584,0.08976034298716584
237.167,0.10899920084997006,0.10899920084997006
237.168,0.1193919533415666,0.1193919533415666
237.169,0.12001489892349415,0.12001489892349415
237.17,0.10977805524335049,0.10977805524335049
237.171,0.08784766811968403,0.08784766811968403
237.172,0.05449449375573234,0.05449449375573234
237.173,0.011976817412587382,0.011976817412587382
237.174,0.03501474814715955,-0.03501474814715955
237.175,0.07970678931430919,-0.07970678931430919
237.176,0.11446188094704801,-0.11446188094704801
237.177,0.13259693724599764,-0.13259693724599764
237.178,0.1302545369127538,-0.1302545369127538
237.179,0.10768453211331486,-0.10768453211331486
237.18,0.06942928413551641,-0.06942928413551641
237.181,0.02324149929664976,-0.02324149929664976
237.182,0.02200971054478784,0.02200971054478784
237.183,0.058819837523595764,0.058819837523595764
237.184,0.08311738828022497,0.08311738828022497
237.185,0.09521383835641739,0.09521383835641739
237.186,0.09927494004023618,0.09927494004023618
237.187,0.10144393791817996,0.10144393791817996
237.188,0.10722000195364223,0.10722000195364223
237.189,0.11898521001019269,0.11898521001019269
237.19,0.13457147687608773,0.13457147687608773
237.191,0.14745117919541317,0.14745117919541317
237.192,0.14861194534268551,0.14861194534268551
237.193,0.1296041271804127,0.1296041271804127
237.194,0.08581873455596156,0.08581873455596156
237.195,0.01891369099788065,0.01891369099788065
237.196,0.062484786784705926,-0.062484786784705926
237.197,0.1441763308389301,-0.1441763308389301
237.198,0.20960358975217286,-0.20960358975217286
237.199,0.2440387325538813,-0.2440387325538813
237.2,0.23855309394680912,-0.23855309394680912
237.201,0.1926099921127632,-0.1926099921127632
237.202,0.11450268587572643,-0.11450268587572643
237.203,0.01948126571958453,-0.01948126571958453
237.204,0.07391772905941996,0.07391772905941996
237.205,0.1483132145279089,0.1483132145279089
237.206,0.19146819794008674,0.19146819794008674
237.207,0.19876908986498432,0.19876908986498432
237.208,0.17361503917520205,0.17361503917520205
237.209,0.12576332815246682,0.12576332815246682
237.21,0.06825686214844962,0.06825686214844962
237.211,0.013916833663419226,0.013916833663419226
237.212,0.02758104196277944,-0.02758104196277944
237.213,0.05130688565844377,-0.05130688565844377
237.214,0.05709817377237658,-0.05709817377237658
237.215,0.04826800511828011,-0.04826800511828011
237.216,0.029650931433522043,-0.029650931433522043
237.217,0.0057681841602627015,-0.0057681841602627015
237.218,0.020256026282575945,0.020256026282575945
237.219,0.046756650000455036,0.046756650000455036
237.22,0.07273014241247178,0.07273014241247178
237.221,0.09668262502520619,0.09668262502520619
237.222,0.11576173155048752,0.11576173155048752
237.223,0.1256860733277314,0.1256860733277314
237.224,0.121654575866464,0.121654575866464
237.225,0.10000211029006745,0.10000211029006745
237.226,0.060022753935007556,0.060022753935007556
237.227,0.005239191716273517,0.005239191716273517
237.228,0.05648225022774034,-0.05648225022774034
237.229,0.11421776856660149,-0.11421776856660149
237.23,0.15644847926678374,-0.15644847926678374
237.231,0.174044222273671,-0.174044222273671
237.232,0.16287742814751072,-0.16287742814751072
237.233,0.12522324311206978,-0.12522324311206978
237.234,0.06943144521927758,-0.06943144521927758
237.235,0.00786999710559999,-0.00786999710559999
237.236,0.04632190880405451,0.04632190880405451
237.237,0.0827454626440387,0.0827454626440387
237.238,0.09648389874956109,0.09648389874956109
237.239,0.08925173746686133,0.08925173746686133
237.24,0.06860137339921879,0.06860137339921879
237.241,0.045424196198736944,0.045424196198736944
237.242,0.030502825751636653,0.030502825751636653
237.243,0.031159389174584273,0.031159389174584273
237.244,0.049011408550522884,0.049011408550522884
237.245,0.07950251224404958,0.07950251224404958
237.246,0.11332833268868403,0.11332833268868403
237.247,0.13930003842182703,0.13930003842182703
237.248,0.1477585292622099,0.1477585292622099
237.249,0.13350216120974356,0.13350216120974356
237.25,0.09736118752367706,0.09736118752367706
237.251,0.04598299358538083,0.04598299358538083
237.252,0.010056493205183203,-0.010056493205183203
237.253,0.05920236212286789,-0.05920236212286789
237.254,0.09202694063047434,-0.09202694063047434
237.255,0.10358533642185119,-0.10358533642185119
237.256,0.09438679765990465,-0.09438679765990465
237.257,0.06980048422279117,-0.06980048422279117
237.258,0.038193708938167203,-0.038193708938167203
237.259,0.008455109932880123,-0.008455109932880123
237.26,0.012319900568641406,0.012319900568641406
237.261,0.020333124465929275,0.020333124465929275
237.262,0.015451680783242105,0.015451680783242105
237.263,0.0005111348646691383,0.0005111348646691383
237.264,0.020043828754288673,-0.020043828754288673
237.265,0.041619235167212665,-0.041619235167212665
237.266,0.060524537627582475,-0.060524537627582475
237.267,0.07434276636686643,-0.07434276636686643
237.268,0.08165478929333636,-0.08165478929333636
237.269,0.08142388544715118,-0.08142388544715118
237.27,0.07247137052526764,-0.07247137052526764
237.271,0.0534084985942751,-0.0534084985942751
237.272,0.023162495609547196,-0.023162495609547196
237.273,0.018063811221886494,0.018063811221886494
237.274,0.06780872154309736,0.06780872154309736
237.275,0.12085038879667476,0.12085038879667476
237.276,0.1695851858871913,0.1695851858871913
237.277,0.20539696588325196,0.20539696588325196
237.278,0.22075802598660532,0.22075802598660532
237.279,0.21148006517965956,0.21148006517965956
237.28,0.17838259686145475,0.17838259686145475
237.281,0.1277379547740234,0.1277379547740234
237.282,0.07017627591304065,0.07017627591304065
237.283,0.01819919050584451,0.01819919050584451
237.284,0.017088296196459796,-0.017088296196459796
237.285,0.02911517555204446,-0.02911517555204446
237.286,0.017902637497497542,-0.017902637497497542
237.287,0.009646121628917204,0.009646121628917204
237.288,0.04142541316967252,0.04142541316967252
237.289,0.06340098402710193,0.06340098402710193
237.29,0.06361405763048533,0.06361405763048533
237.291,0.03580030988659799,0.03580030988659799
237.292,0.018421628178107996,-0.018421628178107996
237.293,0.08946123251948801,-0.08946123251948801
237.294,0.16185947617259788,-0.16185947617259788
237.295,0.21806744237063025,-0.21806744237063025
237.296,0.2429153928151544,-0.2429153928151544
237.297,0.22759438956946465,-0.22759438956946465
237.298,0.17210453316136964,-0.17210453316136964
237.299,0.08553718051438408,-0.08553718051438408
237.3,0.015868836696717015,0.015868836696717015
237.301,0.11238652244924019,0.11238652244924019
237.302,0.18524968547135479,0.18524968547135479
237.303,0.2208066646731297,0.2208066646731297
237.304,0.2134162123857828,0.2134162123857828
237.305,0.16647443157755792,0.16647443157755792
237.306,0.09143453504280274,0.09143453504280274
237.307,0.00514710273935326,0.00514710273935326
237.308,0.07380447264043388,-0.07380447264043388
237.309,0.12893848204692993,-0.12893848204692993
237.31,0.14908375348924863,-0.14908375348924863
237.311,0.13036920980951727,-0.13036920980951727
237.312,0.07669722505953225,-0.07669722505953225
237.313,0.0012802609187771985,0.0012802609187771985
237.314,0.08839258270348327,0.08839258270348327
237.315,0.16791135001335156,0.16791135001335156
237.316,0.224678512835913,0.224678512835913
237.317,0.2478485231823262,0.2478485231823262
237.318,0.23278359615097255,0.23278359615097255
237.319,0.18179600187534328,0.18179600187534328
237.32,0.10362838352144643,0.10362838352144643
237.321,0.011778265818076727,0.011778265818076727
237.322,0.07802314134713695,-0.07802314134713695
237.323,0.15070922825552802,-0.15070922825552802
237.324,0.19460566466345564,-0.19460566466345564
237.325,0.20346476021143778,-0.20346476021143778
237.326,0.17741791467794898,-0.17741791467794898
237.327,0.12267972486050693,-0.12267972486050693
237.328,0.0501010865178394,-0.0501010865178394
237.329,0.027087930602310628,0.027087930602310628
237.33,0.09584235242907879,0.09584235242907879
237.331,0.14563073990718745,0.14563073990718745
237.332,0.1700754471827428,0.1700754471827428
237.333,0.16764483275197795,0.16764483275197795
237.334,0.1413749118021037,0.1413749118021037
237.335,0.09781289428222872,0.09781289428222872
237.336,0.04551167950570845,0.04551167950570845
237.337,0.00656440216476506,-0.00656440216476506
237.338,0.05042762369843179,-0.05042762369843179
237.339,0.08007661488014162,-0.08007661488014162
237.34,0.0920838928536194,-0.0920838928536194
237.341,0.08580546456362914,-0.08580546456362914
237.342,0.06328436532527204,-0.06328436532527204
237.343,0.028896785754925935,-0.028896785754925935
237.344,0.011250693705001424,0.011250693705001424
237.345,0.05018052443420484,0.05018052443420484
237.346,0.08113314080145195,0.08113314080145195
237.347,0.09877333796392085,0.09877333796392085
237.348,0.10029915754503627,0.10029915754503627
237.349,0.08616959426300852,0.08616959426300852
237.35,0.06018230854165396,0.06018230854165396
237.351,0.028754523870927917,0.028754523870927917
237.352,0.000528870129749448,-0.000528870129749448
237.353,0.02079623605334513,-0.02079623605334513
237.354,0.027710681533000936,-0.027710681533000936
237.355,0.020692158248476145,-0.020692158248476145
237.356,0.0031223554335243486,-0.0031223554335243486
237.357,0.018607535424707944,0.018607535424707944
237.358,0.036989744898578536,0.036989744898578536
237.359,0.04569715494030291,0.04569715494030291
237.36,0.04157929970977525,0.04157929970977525
237.361,0.025705341608634802,0.025705341608634802
237.362,0.0030786174149233236,0.0030786174149233236
237.363,0.01893229845661748,-0.01893229845661748
237.364,0.03297194029816941,-0.03297194029816941
237.365,0.03412127930432729,-0.03412127930432729
237.366,0.021558181839701596,-0.021558181839701596
237.367,0.0011215822361407835,0.0011215822361407835
237.368,0.027060682747613418,0.027060682747613418
237.369,0.04840946179477745,0.04840946179477745
237.37,0.05895058742873727,0.05895058742873727
237.371,0.05618021679055141,0.05618021679055141
237.372,0.0421160736013344,0.0421160736013344
237.373,0.022534171943037862,0.022534171943037862
237.374,0.00488521307556411,0.00488521307556411
237.375,0.004382900282164592,-0.004382900282164592
237.376,0.002141263413604655,-0.002141263413604655
237.377,0.010311470071124873,0.010311470071124873
237.378,0.02777544067846427,0.02777544067846427
237.379,0.043149298393810875,0.043149298393810875
237.38,0.05019094834176174,0.05019094834176174
237.381,0.04601701540837544,0.04601701540837544
237.382,0.032373616959522566,0.032373616959522566
237.383,0.015127672764314815,0.015127672764314815
237.384,0.0020712331540690965,0.0020712331540690965
237.385,0.0002232943714689517,-0.0002232943714689517
237.386,0.010651458966908,0.010651458966908
237.387,0.031351640725102436,0.031351640725102436
237.388,0.053298240043957223,0.053298240043957223
237.389,0.06531757046428921,0.06531757046428921
237.39,0.05764424974379012,0.05764424974379012
237.391,0.025955275845549464,0.025955275845549464
237.392,0.02603284569281672,-0.02603284569281672
237.393,0.086497530262591,-0.086497530262591
237.394,0.1382788611208392,-0.1382788611208392
237.395,0.16383215086232372,-0.16383215086232372
237.396,0.150908342965832,-0.150908342965832
237.397,0.0971384751271378,-0.0971384751271378
237.398,0.011918492153378146,-0.011918492153378146
237.399,0.08524142604688745,0.08524142604688745
237.4,0.16964914442935664,0.16964914442935664
237.401,0.21832240301816563,0.21832240301816563
237.402,0.2168218465327132,0.2168218465327132
237.403,0.16392372771176378,0.16392372771176378
237.404,0.0726098840889915,0.0726098840889915
237.405,0.033070056647323764,-0.033070056647323764
237.406,0.12446224901373282,-0.12446224901373282
237.407,0.17626861287509288,-0.17626861287509288
237.408,0.17369135014391135,-0.17369135014391135
237.409,0.11666830392085203,-0.11666830392085203
237.41,0.019960047551562554,-0.019960047551562554
237.411,0.09092346490059389,0.09092346490059389
237.412,0.18674849929013426,0.18674849929013426
237.413,0.24248616152130875,0.24248616152130875
237.414,0.2438818371811753,0.2438818371811753
237.415,0.19086706906164674,0.19086706906164674
237.416,0.09699425985185339,0.09699425985185339
237.417,0.014746996111155819,-0.014746996111155819
237.418,0.11835945045103935,-0.11835945045103935
237.419,0.1915891035845827,-0.1915891035845827
237.42,0.2211219348872312,-0.2211219348872312
237.421,0.20494659265149273,-0.20494659265149273
237.422,0.15152573968641248,-0.15152573968641248
237.423,0.07636257435705929,-0.07636257435705929
237.424,0.002774555924928146,0.002774555924928146
237.425,0.07047849183245436,0.07047849183245436
237.426,0.11693348388137337,0.11693348388137337
237.427,0.13908978116642712,0.13908978116642712
237.428,0.13982934309749084,0.13982934309749084
237.429,0.12575576911573028,0.12575576911573028
237.43,0.10453617455789033,0.10453617455789033
237.431,0.08267171818015506,0.08267171818015506
237.432,0.06424659553536571,0.06424659553536571
237.433,0.05075837383760562,0.05075837383760562
237.434,0.04174277859848363,0.04174277859848363
237.435,0.03570568981035782,0.03570568981035782
237.436,0.030907489213903183,0.030907489213903183
237.437,0.025757436780730947,0.025757436780730947
237.438,0.01884993639253829,0.01884993639253829
237.439,0.008879165416285417,0.008879165416285417
237.44,0.005285640855892448,-0.005285640855892448
237.441,0.024207360841160264,-0.024207360841160264
237.442,0.04724383539706223,-0.04724383539706223
237.443,0.07195937866572044,-0.07195937866572044
237.444,0.09397380206624806,-0.09397380206624806
237.445,0.10754713743929589,-0.10754713743929589
237.446,0.10693828448768528,-0.10693828448768528
237.447,0.08824037288966324,-0.08824037288966324
237.448,0.051120407477020735,-0.051120407477020735
237.449,0.00019980950081177618,0.00019980950081177618
237.45,0.0572283728964631,0.0572283728964631
237.451,0.10888721966790116,0.10888721966790116
237.452,0.14425485387557146,0.14425485387557146
237.453,0.15561727237980993,0.15561727237980993
237.454,0.14088528263292255,0.14088528263292255
237.455,0.10455128426103388,0.10455128426103388
237.456,0.05676354546189466,0.05676354546189466
237.457,0.010671974257721262,0.010671974257721262
237.458,0.021238645741985196,-0.021238645741985196
237.459,0.03075319520822828,-0.03075319520822828
237.46,0.016366330741064417,-0.016366330741064417
237.461,0.01621875835179054,0.01621875835179054
237.462,0.05572735543598806,0.05572735543598806
237.463,0.0886233006428081,0.0886233006428081
237.464,0.10310803740686714,0.10310803740686714
237.465,0.0926070544126838,0.0926070544126838
237.466,0.057699348387624916,0.057699348387624916
237.467,0.005927118015083721,0.005927118015083721
237.468,0.050425376746316974,-0.050425376746316974
237.469,0.09788017920896874,-0.09788017920896874
237.47,0.1255522997854842,-0.1255522997854842
237.471,0.1280454506972375,-0.1280454506972375
237.472,0.1066358023562225,-0.1066358023562225
237.473,0.06847250066059929,-0.06847250066059929
237.474,0.024135379537986834,-0.024135379537986834
237.475,0.01562881589005527,0.01562881589005527
237.476,0.04296423167395669,0.04296423167395669
237.477,0.054850305588868276,0.054850305588868276
237.478,0.0534184054949971,0.0534184054949971
237.479,0.04465651586810937,0.04465651586810937
237.48,0.03601342983021061,0.03601342983021061
237.481,0.03372353802830075,0.03372353802830075
237.482,0.040711822567606415,0.040711822567606415
237.483,0.05570986294967839,0.05570986294967839
237.484,0.07380345355772633,0.07380345355772633
237.485,0.08817693370364865,0.08817693370364865
237.486,0.09245970278456372,0.09245970278456372
237.487,0.08291955359023362,0.08291955359023362
237.488,0.059821896378635886,0.059821896378635886
237.489,0.02754794497021562,0.02754794497021562
237.49,0.006553169372235934,-0.006553169372235934
237.491,0.03422998030008517,-0.03422998030008517
237.492,0.04870440775935492,-0.04870440775935492
237.493,0.046671494434266436,-0.046671494434266436
237.494,0.029351404311529494,-0.029351404311529494
237.495,0.0022891043683083145,-0.0022891043683083145
237.496,0.02606022937874819,0.02606022937874819
237.497,0.046595653077186494,0.046595653077186494
237.498,0.05209250870702209,0.05209250870702209
237.499,0.039314962896422,0.039314962896422
237.5,0.010145858597429669,0.010145858597429669
237.501,0.028600257655530203,-0.028600257655530203
237.502,0.06668773974810027,-0.06668773974810027
237.503,0.09296244781755802,-0.09296244781755802
237.504,0.09824658167544331,-0.09824658167544331
237.505,0.07789636149003143,-0.07789636149003143
237.506,0.03334134819705148,-0.03334134819705148
237.507,0.027850939896821858,0.027850939896821858
237.508,0.09348496161275888,0.09348496161275888
237.509,0.14951594041925298,0.14951594041925298
237.51,0.18344028945109958,0.18344028945109958
237.511,0.1874413756147959,0.1874413756147959
237.512,0.1604537253598617,0.1604537253598617
237.513,0.10855792071661097,0.10855792071661097
237.514,0.043544401158831514,0.043544401158831514
237.515,0.020021263598458017,-0.020021263598458017
237.516,0.06847359529933439,-0.06847359529933439
237.517,0.09247573117872998,-0.09247573117872998
237.518,0.08925912832560312,-0.08925912832560312
237.519,0.06305204403214615,-0.06305204403214615
237.52,0.023585748365330894,-0.023585748365330894
237.521,0.016875798796101238,0.016875798796101238
237.522,0.04710231041236845,0.04710231041236845
237.523,0.06000317467617777,0.06000317467617777
237.524,0.054360758523099184,0.054360758523099184
237.525,0.0347049407110358,0.0347049407110358
237.526,0.009422623159168086,0.009422623159168086
237.527,0.012252011094399329,-0.012252011094399329
237.528,0.023373327956461076,-0.023373327956461076
237.529,0.021524498177478146,-0.021524498177478146
237.53,0.00944331129662579,-0.00944331129662579
237.531,0.006147403122702233,0.006147403122702233
237.532,0.017087938859451812,0.017087938859451812
237.533,0.01683163214175254,0.01683163214175254
237.534,0.002951564432565057,0.002951564432565057
237.535,0.021759041224707953,-0.021759041224707953
237.536,0.049982856480293436,-0.049982856480293436
237.537,0.0721547183658493,-0.0721547183658493
237.538,0.07956644674879643,-0.07956644674879643
237.539,0.067265527179311,-0.067265527179311
237.54,0.03577934586643028,-0.03577934586643028
237.541,0.008909450268865582,0.008909450268865582
237.542,0.05712344952329573,0.05712344952329573
237.543,0.09839348279451987,0.09839348279451987
237.544,0.12453607053408233,0.12453607053408233
237.545,0.13189564915810403,0.13189564915810403
237.546,0.12204552644792077,0.12204552644792077
237.547,0.10078239053335425,0.10078239053335425
237.548,0.0758369252565747,0.0758369252565747
237.549,0.0541515145393936,0.0541515145393936
237.55,0.03969595963336925,0.03969595963336925
237.551,0.03256435076303554,0.03256435076303554
237.552,0.02960573431075142,0.02960573431075142
237.553,0.026267330371701147,0.026267330371701147
237.554,0.01888150017989698,0.01888150017989698
237.555,0.0064710256162745505,0.0064710256162745505
237.556,0.008659164765951077,-0.008659164765951077
237.557,0.021800874107823276,-0.021800874107823276
237.558,0.027867211099320888,-0.027867211099320888
237.559,0.02376634117314147,-0.02376634117314147
237.56,0.01014869273943153,-0.01014869273943153
237.561,0.008256147192919672,0.008256147192919672
237.562,0.02399014255694598,0.02399014255694598
237.563,0.029537304783151974,0.029537304783151974
237.564,0.020397526700947965,0.020397526700947965
237.565,0.0025939681882373167,-0.0025939681882373167
237.566,0.0326843280695186,-0.0326843280695186
237.567,0.0587866556012846,-0.0587866556012846
237.568,0.06890163391205417,-0.06890163391205417
237.569,0.05434963606967658,-0.05434963606967658
237.57,0.013396776149280809,-0.013396776149280809
237.571,0.04706142732820062,0.04706142732820062
237.572,0.11254282158266227,0.11254282158266227
237.573,0.16466849866615663,0.16466849866615663
237.574,0.1865226431271283,0.1865226431271283
237.575,0.16807538043677628,0.16807538043677628
237.576,0.10992608832257678,0.10992608832257678
237.577,0.024053889178460297,0.024053889178460297
237.578,0.06885844257329354,-0.06885844257329354
237.579,0.14489891418586853,-0.14489891418586853
237.58,0.18366328693174439,-0.18366328693174439
237.581,0.1742627393524765,-0.1742627393524765
237.582,0.11876480769186737,-0.11876480769186737
237.583,0.03196140397292668,-0.03196140397292668
237.584,0.06255295972974895,0.06255295972974895
237.585,0.13889772096164332,0.13889772096164332
237.586,0.17613397323184543,0.17613397323184543
237.587,0.1641001789500416,0.1641001789500416
237.588,0.10616971976231748,0.10616971976231748
237.589,0.01816600797134771,0.01816600797134771
237.59,0.07618979733581621,-0.07618979733581621
237.591,0.151917528747612,-0.151917528747612
237.592,0.18955262525564132,-0.18955262525564132
237.593,0.1801334591575119,-0.1801334591575119
237.594,0.12707467748664747,-0.12707467748664747
237.595,0.044563064306709865,-0.044563064306709865
237.596,0.0468648581712352,0.0468648581712352
237.597,0.12613387655233965,0.12613387655233965
237.598,0.17710061670645327,0.17710061670645327
237.599,0.19218691503116503,0.19218691503116503
237.6,0.17333707517201447,0.17333707517201447
237.601,0.13031131803440332,0.13031131803440332
237.602,0.07709734751757757,0.07709734751757757
237.603,0.027681382268380128,0.027681382268380128
237.604,0.007543040573040227,-0.007543040573040227
237.605,0.02380457233232436,-0.02380457233232436
237.606,0.022090791384145936,-0.022090791384145936
237.607,0.007677895129780343,-0.007677895129780343
237.608,0.012220209214486522,0.012220209214486522
237.609,0.030812729237305936,0.030812729237305936
237.61,0.04339214176917383,0.04339214176917383
237.611,0.04795121663212143,0.04795121663212143
237.612,0.04483391898398548,0.04483391898398548
237.613,0.035812301652744294,0.035812301652744294
237.614,0.02309332151649479,0.02309332151649479
237.615,0.008656580476639864,0.008656580476639864
237.616,0.00592178137112942,-0.00592178137112942
237.617,0.01927214250132525,-0.01927214250132525
237.618,0.029947827235698665,-0.029947827235698665
237.619,0.036351683238253774,-0.036351683238253774
237.62,0.03702356304182286,-0.03702356304182286
237.621,0.03121220626227006,-0.03121220626227006
237.622,0.019456709599188104,-0.019456709599188104
237.623,0.003831278146911976,-0.003831278146911976
237.624,0.012394285220810985,0.012394285220810985
237.625,0.025687904411564322,0.025687904411564322
237.626,0.0335099142939248,0.0335099142939248
237.627,0.03541296236005298,0.03541296236005298
237.628,0.03348532550084116,0.03348532550084116
237.629,0.03182224072881645,0.03182224072881645
237.63,0.0350576422761939,0.0350576422761939
237.631,0.04637610395205982,0.04637610395205982
237.632,0.06570146783754138,0.06570146783754138
237.633,0.08880229910411264,0.08880229910411264
237.634,0.10782038954854745,0.10782038954854745
237.635,0.11327376091097507,0.11327376091097507
237.636,0.09705495040450662,0.09705495040450662
237.637,0.055525129801051065,0.055525129801051065
237.638,0.008342751881385446,-0.008342751881385446
237.639,0.0846153578881812,-0.0846153578881812
237.64,0.15817542393718986,-0.15817542393718986
237.641,0.2122838493605954,-0.2122838493605954
237.642,0.23297888367974862,-0.23297888367974862
237.643,0.21302610843498726,-0.21302610843498726
237.644,0.15419602520636133,-0.15419602520636133
237.645,0.06710994533484116,-0.06710994533484116
237.646,0.03137607870852954,0.03137607870852954
237.647,0.12251571872088673,0.12251571872088673
237.648,0.19046332353417883,0.19046332353417883
237.649,0.22608240803423163,0.22608240803423163
237.65,0.22865354133507076,0.22865354133507076
237.651,0.20503691207260144,0.20503691207260144
237.652,0.1666625224817493,0.1666625224817493
237.653,0.12541284384526596,0.12541284384526596
237.654,0.08979763198359336,0.08979763198359336
237.655,0.0626851184960806,0.0626851184960806
237.656,0.041292752582350545,0.041292752582350545
237.657,0.0193438703793698,0.0193438703793698
237.658,0.00946399810971077,-0.00946399810971077
237.659,0.04799602263895464,-0.04799602263895464
237.66,0.09354130008217021,-0.09354130008217021
237.661,0.13785430468675586,-0.13785430468675586
237.662,0.16945917708409208,-0.16945917708409208
237.663,0.17748120130946632,-0.17748120130946632
237.664,0.15569141719630974,-0.15569141719630974
237.665,0.105318568425677,-0.105318568425677
237.666,0.035553652254662116,-0.035553652254662116
237.667,0.03857019213299684,0.03857019213299684
237.668,0.10034783194603869,0.10034783194603869
237.669,0.13632486960058965,0.13632486960058965
237.67,0.1403735936302215,0.1403735936302215
237.671,0.11555502651079275,0.11555502651079275
237.672,0.07309979428096591,0.07309979428096591
237.673,0.028781366316630308,0.028781366316630308
237.674,0.0021753759009199847,-0.0021753759009199847
237.675,0.010002872214525116,-0.010002872214525116
237.676,0.006494608356202303,0.006494608356202303
237.677,0.03965991470034247,0.03965991470034247
237.678,0.07564963691267357,0.07564963691267357
237.679,0.09918885241322939,0.09918885241322939
237.68,0.0988552792433326,0.0988552792433326
237.681,0.0711442962210318,0.0711442962210318
237.682,0.021952799020101388,0.021952799020101388
237.683,0.03504135539433817,-0.03504135539433817
237.684,0.0826111546295788,-0.0826111546295788
237.685,0.10547066329689647,-0.10547066329689647
237.686,0.09525113389748097,-0.09525113389748097
237.687,0.05334881691715432,-0.05334881691715432
237.688,0.009285610709599101,0.009285610709599101
237.689,0.07536120882222797,0.07536120882222797
237.69,0.12644656409656707,0.12644656409656707
237.691,0.14850883956176175,0.14850883956176175
237.692,0.13605284658390393,0.13605284658390393
237.693,0.09358723810950464,0.09358723810950464
237.694,0.034011529191536605,0.034011529191536605
237.695,0.02550218307548413,-0.02550218307548413
237.696,0.06878356952224085,-0.06878356952224085
237.697,0.08541984732257535,-0.08541984732257535
237.698,0.0735360961337106,-0.0735360961337106
237.699,0.039818484535651844,-0.039818484535651844
237.7,0.0031003010076053883,0.0031003010076053883
237.701,0.04094558838954754,0.04094558838954754
237.702,0.06235575519392378,0.06235575519392378
237.703,0.06223900646286351,0.06223900646286351
237.704,0.042938806697443876,0.042938806697443876
237.705,0.012967148597184508,0.012967148597184508
237.706,0.016144366982822733,-0.016144366982822733
237.707,0.03375531949496602,-0.03375531949496602
237.708,0.033493139588220866,-0.033493139588220866
237.709,0.015054318250355525,-0.015054318250355525
237.71,0.016034483040616054,0.016034483040616054
237.711,0.050470225631564114,0.050470225631564114
237.712,0.0782486430299627,0.0782486430299627
237.713,0.0917004791690399,0.0917004791690399
237.714,0.08753138793146409,0.08753138793146409
237.715,0.06731945563918962,0.06731945563918962
237.716,0.03648250964228672,0.03648250964228672
237.717,0.0022312856263562164,0.0022312856263562164
237.718,0.028694543984762122,-0.028694543984762122
237.719,0.05173201215878587,-0.05173201215878587
237.72,0.06515833492874878,-0.06515833492874878
237.721,0.0696638324270088,-0.0696638324270088
237.722,0.06719533539623435,-0.06719533539623435
237.723,0.05966481677119173,-0.05966481677119173
237.724,0.04809990367661421,-0.04809990367661421
237.725,0.03256539386723478,-0.03256539386723478
237.726,0.012816499016478966,-0.012816499016478966
237.727,0.01069337380556279,0.01069337380556279
237.728,0.03599890900966085,0.03599890900966085
237.729,0.059487409259692425,0.059487409259692425
237.73,0.07664852543945333,0.07664852543945333
237.731,0.0835328933244377,0.0835328933244377
237.732,0.07840455815856417,0.07840455815856417
237.733,0.06291568321912022,0.06291568321912022
237.734,0.04223145051978139,0.04223145051978139
237.735,0.023867870431722782,0.023867870431722782
237.736,0.015465821785224376,0.015465821785224376
237.737,0.022149157203286585,0.022149157203286585
237.738,0.04434544159293896,0.04434544159293896
237.739,0.07688772003769073,0.07688772003769073
237.74,0.10986458656734932,0.10986458656734932
237.741,0.1311445038086505,0.1311445038086505
237.742,0.1299395891972448,0.1299395891972448
237.743,0.10037949609300112,0.10037949609300112
237.744,0.043976509844295686,0.043976509844295686
237.745,0.029876299341887624,-0.029876299341887624
237.746,0.10568693929242556,-0.10568693929242556
237.747,0.16556840350424473,-0.16556840350424473
237.748,0.19391225794565192,-0.19391225794565192
237.749,0.1817458456423643,-0.1817458456423643
237.75,0.12952225794546612,-0.12952225794546612
237.751,0.047494805212757396,-0.047494805212757396
237.752,0.046513790848457415,0.046513790848457415
237.753,0.1314110882878392,0.1314110882878392
237.754,0.1880822353222975,0.1880822353222975
237.755,0.20418826177607774,0.20418826177607774
237.756,0.17723155091862974,0.17723155091862974
237.757,0.11507323382156653,0.11507323382156653
237.758,0.033778602159254545,0.033778602159254545
237.759,0.04661311543513813,-0.04661311543513813
237.76,0.10724830324960655,-0.10724830324960655
237.761,0.1351704771656923,-0.1351704771656923
237.762,0.12635219629850913,-0.12635219629850913
237.763,0.08629169828743444,-0.08629169828743444
237.764,0.028088618807286858,-0.028088618807286858
237.765,0.031408664409676046,0.031408664409676046
237.766,0.07628930420222524,0.07628930420222524
237.767,0.09581116490455477,0.09581116490455477
237.768,0.08704833778122478,0.08704833778122478
237.769,0.05528937732210171,0.05528937732210171
237.77,0.012153861770968444,0.012153861770968444
237.771,0.027978158469346814,-0.027978158469346814
237.772,0.052180364488152886,-0.052180364488152886
237.773,0.05264402907205701,-0.05264402907205701
237.774,0.02878173896697267,-0.02878173896697267
237.775,0.01277673663020229,0.01277673663020229
237.776,0.06023792434853492,0.06023792434853492
237.777,0.10011150733903551,0.10011150733903551
237.778,0.1210691941554185,0.1210691941554185
237.779,0.11708812834893267,0.11708812834893267
237.78,0.0890050726824485,0.0890050726824485
237.781,0.04408873967265059,0.04408873967265059
237.782,0.006178017067434927,-0.006178017067434927
237.783,0.0494005814488756,-0.0494005814488756
237.784,0.0756620058177454,-0.0756620058177454
237.785,0.08001538633020155,-0.08001538633020155
237.786,0.06340376607121523,-0.06340376607121523
237.787,0.03183546184265418,-0.03183546184265418
237.788,0.0058193741841778834,0.0058193741841778834
237.789,0.04064169139322371,0.04064169139322371
237.79,0.06617202678735445,0.06617202678735445
237.791,0.07985424627389293,0.07985424627389293
237.792,0.08304821024721343,0.08304821024721343
237.793,0.07974280739665374,0.07974280739665374
237.794,0.07453288460754415,0.07453288460754415
237.795,0.0706445819623076,0.0706445819623076
237.796,0.06873177857308499,0.06873177857308499
237.797,0.06684883759993565,0.06684883759993565
237.798,0.06154860546219987,0.06154860546219987
237.799,0.04962614950997102,0.04962614950997102
237.8,0.02978525478834726,0.02978525478834726
237.801,0.0035375198034584,0.0035375198034584
237.802,0.025056187690438048,-0.025056187690438048
237.803,0.05073392011441946,-0.05073392011441946
237.804,0.06895721434842317,-0.06895721434842317
237.805,0.077638863919541,-0.077638863919541
237.806,0.0779355739859976,-0.0779355739859976
237.807,0.07369927416104927,-0.07369927416104927
237.808,0.0696995273041694,-0.0696995273041694
237.809,0.0692459939222746,-0.0692459939222746
237.81,0.07215361038978885,-0.07215361038978885
237.811,0.07396567319401393,-0.07396567319401393
237.812,0.06696123163210088,-0.06696123163210088
237.813,0.042836972825299524,-0.042836972825299524
237.814,0.0037141886698506266,0.0037141886698506266
237.815,0.07175947849014808,0.07175947849014808
237.816,0.1525004104475538,0.1525004104475538
237.817,0.23013725753597347,0.23013725753597347
237.818,0.2853267186713664,0.2853267186713664
237.819,0.3004449833904894,0.3004449833904894
237.82,0.26515704669564677,0.26515704669564677
237.821,0.18052237752713385,0.18052237752713385
237.822,0.06016561364816053,0.06016561364816053
237.823,0.07214794259196111,-0.07214794259196111
237.824,0.18810269998418994,-0.18810269998418994
237.825,0.2621335106136191,-0.2621335106136191
237.826,0.2783581540208133,-0.2783581540208133
237.827,0.23506644858221892,-0.23506644858221892
237.828,0.1453484192871357,-0.1453484192871357
237.829,0.03357030357392088,-0.03357030357392088
237.83,0.07134180398846568,0.07134180398846568
237.831,0.14386954921456407,0.14386954921456407
237.832,0.16878481270696644,0.16878481270696644
237.833,0.1449348479775463,0.1449348479775463
237.834,0.08486484931099136,0.08486484931099136
237.835,0.010485582148288763,0.010485582148288763
237.836,0.05381011011497927,-0.05381011011497927
237.837,0.08843559458709871,-0.08843559458709871
237.838,0.0840971430932198,-0.0840971430932198
237.839,0.0439018993804875,-0.0439018993804875
237.84,0.018386602446282208,0.018386602446282208
237.841,0.08320546344654933,0.08320546344654933
237.842,0.1314893233656962,0.1314893233656962
237.843,0.1503719621605324,0.1503719621605324
237.844,0.1365600535884428,0.1365600535884428
237.845,0.09648860815905347,0.09648860815905347
237.846,0.04345102012099811,0.04345102012099811
237.847,0.007144644240149045,-0.007144644240149045
237.848,0.042716652605890415,-0.042716652605890415
237.849,0.05703143955879464,-0.05703143955879464
237.85,0.05128252168907421,-0.05128252168907421
237.851,0.03259892685846266,-0.03259892685846266
237.852,0.010734222736028531,-0.010734222736028531
237.853,0.005750516126355132,0.005750516126355132
237.854,0.012425481637844182,0.012425481637844182
237.855,0.010084473426554164,0.010084473426554164
237.856,0.003752220336625145,0.003752220336625145
237.857,0.00013627921979053603,0.00013627921979053603
237.858,0.004585167026510462,0.004585167026510462
237.859,0.018732896840797153,0.018732896840797153
237.86,0.03969376954168191,0.03969376954168191
237.861,0.06105581671888749,0.06105581671888749
237.862,0.07524399811677496,0.07524399811677496
237.863,0.07633425263393923,0.07633425263393923
237.864,0.06226709553116905,0.06226709553116905
237.865,0.03566746332063353,0.03566746332063353
237.866,0.003014768334299589,0.003014768334299589
237.867,0.027485178624341966,-0.027485178624341966
237.868,0.04852259282621585,-0.04852259282621585
237.869,0.05585940079247098,-0.05585940079247098
237.87,0.04933076737650499,-0.04933076737650499
237.871,0.032413962086229375,-0.032413962086229375
237.872,0.010643310678278395,-0.010643310678278395
237.873,0.010449063499213374,0.010449063499213374
237.874,0.027066833067170393,0.027066833067170393
237.875,0.037949761551939076,0.037949761551939076
237.876,0.04404814978211613,0.04404814978211613
237.877,0.047344283135413834,0.047344283135413834
237.878,0.049423185653125756,0.049423185653125756
237.879,0.05046157165155285,0.05046157165155285
237.88,0.0490886609969976,0.0490886609969976
237.881,0.043170268419766344,0.043170268419766344
237.882,0.031147736964842965,0.031147736964842965
237.883,0.013301663138860942,0.013301663138860942
237.884,0.0076816497737395295,-0.0076816497737395295
237.885,0.027183906414546488,-0.027183906414546488
237.886,0.04007154444508321,-0.04007154444508321
237.887,0.04253691820001704,-0.04253691820001704
237.888,0.03362038116825106,-0.03362038116825106
237.889,0.015744976332151994,-0.015744976332151994
237.89,0.006043532916505168,0.006043532916505168
237.891,0.02592357847972293,0.02592357847972293
237.892,0.03955633748260423,0.03955633748260423
237.893,0.04585413017571893,0.04585413017571893
237.894,0.04748028073548216,0.04748028073548216
237.895,0.04975154262217485,0.04975154262217485
237.896,0.058235375536153544,0.058235375536153544
237.897,0.075894983027881,0.075894983027881
237.898,0.10091035930940584,0.10091035930940584
237.899,0.12616337572759773,0.12616337572759773
237.9,0.14083875904908938,0.14083875904908938
237.901,0.13383176001101704,0.13383176001101704
237.902,0.09793476316225158,0.09793476316225158
237.903,0.033368839710882225,0.033368839710882225
237.904,0.05069492254894625,-0.05069492254894625
237.905,0.13740831870634462,-0.13740831870634462
237.906,0.20620325565609898,-0.20620325565609898
237.907,0.2384008957427134,-0.2384008957427134
237.908,0.2228086670133438,-0.2228086670133438
237.909,0.15953315738754525,-0.15953315738754525
237.91,0.06071369798192261,-0.06071369798192261
237.911,0.05219492973675122,0.05219492973675122
237.912,0.15388652818964377,0.15388652818964377
237.913,0.22183613998591634,0.22183613998591634
237.914,0.24214335464627834,0.24214335464627834
237.915,0.21287259179774565,0.21287259179774565
237.916,0.14396669312839316,0.14396669312839316
237.917,0.053884527616117506,0.053884527616117506
237.918,0.03588341053460653,-0.03588341053460653
237.919,0.10666349566399058,-0.10666349566399058
237.92,0.14703837045199397,-0.14703837045199397
237.921,0.1546647311246827,-0.1546647311246827
237.922,0.13518603806516194,-0.13518603806516194
237.923,0.09892651885065118,-0.09892651885065118
237.924,0.056731267685295905,-0.056731267685295905
237.925,0.01648315208319595,-0.01648315208319595
237.926,0.018554578351482442,0.018554578351482442
237.927,0.04919151976438174,0.04919151976438174
237.928,0.0780468145194404,0.0780468145194404
237.929,0.10669900115258302,0.10669900115258302
237.93,0.13356536937809804,0.13356536937809804
237.931,0.15349777727433467,0.15349777727433467
237.932,0.1593664159957624,0.1593664159957624
237.933,0.14507353335211803,0.14507353335211803
237.934,0.10881019167503236,0.10881019167503236
237.935,0.05518310331820109,0.05518310331820109
237.936,0.0048229489067299625,-0.0048229489067299625
237.937,0.05632873337679267,-0.05632873337679267
237.938,0.08486859569048544,-0.08486859569048544
237.939,0.08117245522057015,-0.08117245522057015
237.94,0.04478740726621244,-0.04478740726621244
237.941,0.014815439368766059,0.014815439368766059
237.942,0.08023586619026446,0.08023586619026446
237.943,0.13082156584292348,0.13082156584292348
237.944,0.14869793417904398,0.14869793417904398
237.945,0.12431794478638936,0.12431794478638936
237.946,0.05977973477987497,0.05977973477987497
237.947,0.03119200255189747,-0.03119200255189747
237.948,0.12669159434070765,-0.12669159434070765
237.949,0.20254144168923316,-0.20254144168923316
237.95,0.2389418532166191,-0.2389418532166191
237.951,0.2259135839328884,-0.2259135839328884
237.952,0.16595867976998369,-0.16595867976998369
237.953,0.07321204273598969,-0.07321204273598969
237.954,0.03059584924482217,0.03059584924482217
237.955,0.12212233614172985,0.12212233614172985
237.956,0.18257918486376412,0.18257918486376412
237.957,0.20234235870046025,0.20234235870046025
237.958,0.18279824320284765,0.18279824320284765
237.959,0.13507677440016064,0.13507677440016064
237.96,0.07622881390873837,0.07622881390873837
237.961,0.024090545894055904,0.024090545894055904
237.962,0.007643678154140243,-0.007643678154140243
237.963,0.012796171606403006,-0.012796171606403006
237.964,0.006271775735000595,0.006271775735000595
237.965,0.04007013893533218,0.04007013893533218
237.966,0.07522874480310793,0.07522874480310793
237.967,0.09854700960557827,0.09854700960557827
237.968,0.10069354314228862,0.10069354314228862
237.969,0.07861141206462086,0.07861141206462086
237.97,0.03611654310281054,0.03611654310281054
237.971,0.01731147960796442,-0.01731147960796442
237.972,0.06909889457461771,-0.06909889457461771
237.973,0.10677883692697288,-0.10677883692697288
237.974,0.12102255692953279,-0.12102255692953279
237.975,0.10781760136594098,-0.10781760136594098
237.976,0.06936048688191732,-0.06936048688191732
237.977,0.013539989418109966,-0.013539989418109966
237.978,0.047815092223350675,0.047815092223350675
237.979,0.10151354377489619,0.10151354377489619
237.98,0.13584985468984834,0.13584985468984834
237.981,0.14312862134200888,0.14312862134200888
237.982,0.12133898243693131,0.12133898243693131
237.983,0.07461965256368885,0.07461965256368885
237.984,0.012398983020139198,0.012398983020139198
237.985,0.05262335793713824,-0.05262335793713824
237.986,0.1072213337325052,-0.1072213337325052
237.987,0.14049784350489003,-0.14049784350489003
237.988,0.14618601293080136,-0.14618601293080136
237.989,0.12384868709118624,-0.12384868709118624
237.99,0.07869476208236781,-0.07869476208236781
237.991,0.02008565764929726,-0.02008565764929726
237.992,0.04084768151720297,0.04084768151720297
237.993,0.0938204306613839,0.0938204306613839
237.994,0.13153632968481976,0.13153632968481976
237.995,0.15081153844198214,0.15081153844198214
237.996,0.15245972939033048,0.15245972939033048
237.997,0.1401071696430456,0.1401071696430456
237.998,0.11843302927520405,0.11843302927520405
237.999,0.09148523138558695,0.09148523138558695
238.0,0.061652758331096846,0.061652758331096846
238.001,0.029605071481249023,0.029605071481249023
238.002,0.00486717609703613,-0.00486717609703613
238.003,0.04152445635269264,-0.04152445635269264
238.004,0.07847173099141913,-0.07847173099141913
238.005,0.11164624576124993,-0.11164624576124993
238.006,0.1353180597423448,-0.1353180597423448
238.007,0.1435348090531049,-0.1435348090531049
238.008,0.13206311864673947,-0.13206311864673947
238.009,0.10014844748542873,-0.10014844748542873
238.01,0.05142369979150796,-0.05142369979150796
238.011,0.006449073056159049,0.006449073056159049
238.012,0.06340282166634625,0.06340282166634625
238.013,0.10941886700887937,0.10941886700887937
238.014,0.13707289093685704,0.13707289093685704
238.015,0.14338206072262127,0.14338206072262127
238.016,0.130376220239117,0.130376220239117
238.017,0.10422878552711556,0.10422878552711556
238.018,0.07325196936231948,0.07325196936231948
238.019,0.04542348308850119,0.04542348308850119
238.02,0.026242623984968017,0.026242623984968017
238.021,0.01756982818565156,0.01756982818565156
238.022,0.017740370026872343,0.017740370026872343
238.023,0.022792690763514978,0.022792690763514978
238.024,0.028276996392686105,0.028276996392686105
238.025,0.030942750580188916,0.030942750580188916
238.026,0.02969918389130366,0.02969918389130366
238.027,0.025558371728911178,0.025558371728911178
238.028,0.02068240953080913,0.02068240953080913
238.029,0.017006857553085286,0.017006857553085286
238.03,0.015068714166363018,0.015068714166363018
238.031,0.013570148643983426,0.013570148643983426
238.032,0.009897409785684763,0.009897409785684763
238.033,0.0014088973370705027,0.0014088973370705027
238.034,0.013033973090906259,-0.013033973090906259
238.035,0.03195850365206021,-0.03195850365206021
238.036,0.051136571334032155,-0.051136571334032155
238.037,0.06459746517095488,-0.06459746517095488
238.038,0.06654270953154717,-0.06654270953154717
238.039,0.053528762929147544,-0.053528762929147544
238.04,0.026121270021402743,-0.026121270021402743
238.041,0.010648423696223652,0.010648423696223652
238.042,0.04831022026991927,0.04831022026991927
238.043,0.07724011637270256,0.07724011637270256
238.044,0.08951872932288163,0.08951872932288163
238.045,0.08144072484576093,0.08144072484576093
238.046,0.05482732185310413,0.05482732185310413
238.047,0.016666334301085772,0.016666334301085772
238.048,0.022848565406079602,-0.022848565406079602
238.049,0.0532724873294369,-0.0532724873294369
238.05,0.06691399503494999,-0.06691399503494999
238.051,0.06092648789384325,-0.06092648789384325
238.052,0.03783072228267237,-0.03783072228267237
238.053,0.00434333721846103,-0.00434333721846103
238.054,0.031043312156529224,0.031043312156529224
238.055,0.060871429007336,0.060871429007336
238.056,0.0809460448952859,0.0809460448952859
238.057,0.09123348515853014,0.09123348515853014
238.058,0.09516469670448191,0.09516469670448191
238.059,0.09764929404872147,0.09764929404872147
238.06,0.10256623511461194,0.10256623511461194
238.061,0.11068538913730586,0.11068538913730586
238.062,0.11882526145059469,0.11882526145059469
238.063,0.12061737603091327,0.12061737603091327
238.064,0.10867760307566932,0.10867760307566932
238.065,0.07747569041882563,0.07747569041882563
238.066,0.02592157781660176,0.02592157781660176
238.067,0.04125515224836018,-0.04125515224836018
238.068,0.11388613396763425,-0.11388613396763425
238.069,0.17849887261494857,-0.17849887261494857
238.07,0.2216335703004878,-0.2216335703004878
238.071,0.23338428781457932,-0.23338428781457932
238.072,0.21012203215330727,-0.21012203215330727
238.073,0.15559723877465292,-0.15559723877465292
238.074,0.08010195184664382,-0.08010195184664382
238.075,0.0020580977322295357,0.0020580977322295357
238.076,0.07605180355054553,0.07605180355054553
238.077,0.12999428183920347,0.12999428183920347
238.078,0.1574727080318865,0.1574727080318865
238.079,0.1585105766954895,0.1585105766954895
238.08,0.13882460310281708,0.13882460310281708
238.081,0.10770770174743394,0.10770770174743394
238.082,0.07522100865097237,0.07522100865097237
238.083,0.049508670236594776,0.049508670236594776
238.084,0.03494357996157649,0.03494357996157649
238.085,0.03152219106180021,0.03152219106180021
238.086,0.03555023849822447,0.03555023849822447
238.087,0.04130968431602455,0.04130968431602455
238.088,0.043161428191066165,0.043161428191066165
238.089,0.037467134135661606,0.037467134135661606
238.09,0.023807007653713796,0.023807007653713796
238.091,0.005187733953801121,0.005187733953801121
238.092,0.012788600673353634,-0.012788600673353634
238.093,0.023557297912637942,-0.023557297912637942
238.094,0.021590348724560893,-0.021590348724560893
238.095,0.004236074041664262,-0.004236074041664262
238.096,0.027096145129257065,0.027096145129257065
238.097,0.0667561820490763,0.0667561820490763
238.098,0.10579741255676911,0.10579741255676911
238.099,0.13389164791959218,0.13389164791959218
238.1,0.1418059058886414,0.1418059058886414
238.101,0.12385436757797152,0.12385436757797152
238.102,0.07969135670778482,0.07969135670778482
238.103,0.014922607281066647,0.014922607281066647
238.104,0.05972614522890074,-0.05972614522890074
238.105,0.13058385026547603,-0.13058385026547603
238.106,0.18408217642833835,-0.18408217642833835
238.107,0.2099312120624196,-0.2099312120624196
238.108,0.2035875715976958,-0.2035875715976958
238.109,0.16732274297213134,-0.16732274297213134
238.11,0.10955529230694538,-0.10955529230694538
238.111,0.042590107117897125,-0.042590107117897125
238.112,0.020625926513867743,0.020625926513867743
238.113,0.06981516658422326,0.06981516658422326
238.114,0.0997892532741802,0.0997892532741802
238.115,0.1112730771911088,0.1112730771911088
238.116,0.10991073028303089,0.10991073028303089
238.117,0.10379952411643778,0.10379952411643778
238.118,0.10037031159611765,0.10037031159611765
238.119,0.1036499159990183,0.1036499159990183
238.12,0.11282314120477421,0.11282314120477421
238.121,0.1225855780149201,0.1225855780149201
238.122,0.12517748489664915,0.12517748489664915
238.123,0.11341126723595707,0.11341126723595707
238.124,0.08364781763447104,0.08364781763447104
238.125,0.037668906366686405,0.037668906366686405
238.126,0.01725319977162021,-0.01725319977162021
238.127,0.0701833849228728,-0.0701833849228728
238.128,0.10969032588639205,-0.10969032588639205
238.129,0.12731742675148439,-0.12731742675148439
238.13,0.12019317585075218,-0.12019317585075218
238.131,0.09188607747793054,-0.09188607747793054
238.132,0.05119510920202386,-0.05119510920202386
238.133,0.009271105162383275,-0.009271105162383275
238.134,0.023956118734324017,0.023956118734324017
238.135,0.042821425523531964,0.042821425523531964
238.136,0.047391669980460405,0.047391669980460405
238.137,0.042857439603747105,0.042857439603747105
238.138,0.037083480739789954,0.037083480739789954
238.139,0.03721495933014718,0.03721495933014718
238.14,0.04659161694453129,0.04659161694453129
238.141,0.06313480565150997,0.06313480565150997
238.142,0.07986290957374775,0.07986290957374775
238.143,0.0874290919620333,0.0874290919620333
238.144,0.07782635319942677,0.07782635319942677
238.145,0.047936489867487,0.047936489867487
238.146,0.0015882085479734798,0.0015882085479734798
238.147,0.05074442352323183,-0.05074442352323183
238.148,0.09467636626221487,-0.09467636626221487
238.149,0.11629475069397754,-0.11629475069397754
238.15,0.1067858337109826,-0.1067858337109826
238.151,0.06574100437939534,-0.06574100437939534
238.152,0.0019495542352021555,-0.0019495542352021555
238.153,0.0687199761880628,0.0687199761880628
238.154,0.12779089279080336,0.12779089279080336
238.155,0.15964335113673367,0.15964335113673367
238.156,0.15624690125061247,0.15624690125061247
238.157,0.11963114733995495,0.11963114733995495
238.158,0.0612712972841829,0.0612712972841829
238.159,0.001446923429592628,-0.001446923429592628
238.16,0.05057417874282666,-0.05057417874282666
238.161,0.07305962576178315,-0.07305962576178315
238.162,0.06459629457727112,-0.06459629457727112
238.163,0.030647553966588248,-0.030647553966588248
238.164,0.01562817929978122,0.01562817929978122
238.165,0.057832790688755464,0.057832790688755464
238.166,0.08168368719753127,0.08168368719753127
238.167,0.0795235139040209,0.0795235139040209
238.168,0.052548542808723786,0.052548542808723786
238.169,0.010094188740071175,0.010094188740071175
238.17,0.033707421692039996,-0.033707421692039996
238.171,0.0647298260248399,-0.0647298260248399
238.172,0.07349611290061864,-0.07349611290061864
238.173,0.058138806458320036,-0.058138806458320036
238.174,0.02474434967243777,-0.02474434967243777
238.175,0.01496132921806903,0.01496132921806903
238.176,0.047748305280142844,0.047748305280142844
238.177,0.0634177374923075,0.0634177374923075
238.178,0.058215018794945506,0.058215018794945506
238.179,0.03600420212968669,0.03600420212968669
238.18,0.006850408024029475,0.006850408024029475
238.181,0.01648119366322598,-0.01648119366322598
238.182,0.02292639416475928,-0.02292639416475928
238.183,0.006967343922239411,-0.006967343922239411
238.184,0.029325636283846546,0.029325636283846546
238.185,0.07669833299804707,0.07669833299804707
238.186,0.1214106601494882,0.1214106601494882
238.187,0.14935391417563926,0.14935391417563926
238.188,0.1502914384807592,0.1502914384807592
238.189,0.12092807002554284,0.12092807002554284
238.19,0.06591824549490921,0.06591824549490921
238.191,0.003416396369965269,-0.003416396369965269
238.192,0.07219205736793588,-0.07219205736793588
238.193,0.12590847264142535,-0.12590847264142535
238.194,0.15406945083713708,-0.15406945083713708
238.195,0.15249243537247703,-0.15249243537247703
238.196,0.12378177683410718,-0.12378177683410718
238.197,0.07601678290869873,-0.07601678290869873
238.198,0.020210750674448774,-0.020210750674448774
238.199,0.03261678283323399,0.03261678283323399
238.2,0.0739102289819149,0.0739102289819149
238.201,0.09899679294531416,0.09899679294531416
238.202,0.10725557620827786,0.10725557620827786
238.203,0.10123700304481154,0.10123700304481154
238.204,0.0852082155034719,0.0852082155034719
238.205,0.06368198209636966,0.06368198209636966
238.206,0.040376295993364675,0.040376295993364675
238.207,0.01781390712747566,0.01781390712747566
238.208,0.0024956194603864557,-0.0024956194603864557
238.209,0.01954858255349534,-0.01954858255349534
238.21,0.03234480895770753,-0.03234480895770753
238.211,0.03965838786930287,-0.03965838786930287
238.212,0.04019245226953416,-0.04019245226953416
238.213,0.033045915082285826,-0.033045915082285826
238.214,0.01828136412884429,-0.01828136412884429
238.215,0.002664128029841173,0.002664128029841173
238.216,0.026930050105291814,0.026930050105291814
238.217,0.05062254033392577,0.05062254033392577
238.218,0.0695689652806668,0.0695689652806668
238.219,0.08023989895102579,0.08023989895102579
238.22,0.08058631984790354,0.08058631984790354
238.221,0.0705643601992394,0.0705643601992394
238.222,0.05220949000293973,0.05220949000293973
238.223,0.029243715210343968,0.029243715210343968
238.224,0.006315255409469422,0.006315255409469422
238.225,0.011950114713025761,-0.011950114713025761
238.226,0.021878248767550734,-0.021878248767550734
238.227,0.02146930342887432,-0.02146930342887432
238.228,0.010783251372710745,-0.010783251372710745
238.229,0.008069096459064617,0.008069096459064617
238.23,0.03131347657074546,0.03131347657074546
238.231,0.05419976015871564,0.05419976015871564
238.232,0.07186644985855994,0.07186644985855994
238.233,0.08023309457372774,0.08023309457372774
238.234,0.07676678431192707,0.07676678431192707
238.235,0.06098648925815242,0.06098648925815242
238.236,0.03460964607835226,0.03460964607835226
238.237,0.0013061523271284958,0.0013061523271284958
238.238,0.03390271806721168,-0.03390271806721168
238.239,0.06549310733289804,-0.06549310733289804
238.24,0.08837701811938148,-0.08837701811938148
238.241,0.09875491144548043,-0.09875491144548043
238.242,0.0947288005959197,-0.0947288005959197
238.243,0.07657809942749694,-0.07657809942749694
238.244,0.046674786169692895,-0.046674786169692895
238.245,0.009085878804753533,-0.009085878804753533
238.246,0.031039592403868,0.031039592403868
238.247,0.06818541487439922,0.06818541487439922
238.248,0.09718503869503703,0.09718503869503703
238.249,0.11387145208193838,0.11387145208193838
238.25,0.1156201621290367,0.1156201621290367
238.251,0.10175754500741485,0.10175754500741485
238.252,0.07379792000793084,0.07379792000793084
238.253,0.03545216529371653,0.03545216529371653
238.254,0.007661735862037888,-0.007661735862037888
238.255,0.04865892528475124,-0.04865892528475124
238.256,0.08037321193931513,-0.08037321193931513
238.257,0.09658864500907072,-0.09658864500907072
238.258,0.09331334191585283,-0.09331334191585283
238.259,0.06981455512222623,-0.06981455512222623
238.26,0.029121851839114754,-0.029121851839114754
238.261,0.022219171455229114,0.022219171455229114
238.262,0.07520158353326933,0.07520158353326933
238.263,0.12007227847444457,0.12007227847444457
238.264,0.14836192611728327,0.14836192611728327
238.265,0.15475853469129808,0.15475853469129808
238.266,0.1383479934056715,0.1383479934056715
238.267,0.10287434195468892,0.10287434195468892
238.268,0.055910382631809474,0.055910382631809474
238.269,0.007113297403513741,0.007113297403513741
238.27,0.034010606059175386,-0.034010606059175386
238.271,0.06026761044347073,-0.06026761044347073
238.272,0.06831388392839932,-0.06831388392839932
238.273,0.05918448754834926,-0.05918448754834926
238.274,0.037704455448611895,-0.037704455448611895
238.275,0.010975106740324536,-0.010975106740324536
238.276,0.013626953529226826,0.013626953529226826
238.277,0.03038383178650994,0.03038383178650994
238.278,0.036589814244062824,0.036589814244062824
238.279,0.03299246091886032,0.03299246091886032
238.28,0.023254922461724448,0.023254922461724448
238.281,0.012643461058798211,0.012643461058798211
238.282,0.0063434438562322,0.0063434438562322
238.283,0.00788423036352004,0.00788423036352004
238.284,0.018095527660440425,0.018095527660440425
238.285,0.034850912605228324,0.034850912605228324
238.286,0.053632144644803814,0.053632144644803814
238.287,0.06873417249971814,0.06873417249971814
238.288,0.07477977287510229,0.07477977287510229
238.289,0.06815603967086092,0.06815603967086092
238.29,0.048025911632221474,0.048025911632221474
238.291,0.01668564012594609,0.01668564012594609
238.292,0.02080205899490517,-0.02080205899490517
238.293,0.05760820520474996,-0.05760820520474996
238.294,0.08654903556144566,-0.08654903556144566
238.295,0.10160695267247144,-0.10160695267247144
238.296,0.09924013579833757,-0.09924013579833757
238.297,0.07920141905206535,-0.07920141905206535
238.298,0.044681090633913456,-0.044681090633913456
238.299,0.0017209754889926376,-0.0017209754889926376
238.3,0.042001826825871946,0.042001826825871946
238.301,0.07878056483731921,0.07878056483731921
238.302,0.10252943771274659,0.10252943771274659
238.303,0.11009987257497267,0.11009987257497267
238.304,0.10193579458558744,0.10193579458558744
238.305,0.08188131751204475,0.08188131751204475
238.306,0.056157261784538726,0.056157261784538726
238.307,0.03174125901395386,0.03174125901395386
238.308,0.014559800759142982,0.014559800759142982
238.309,0.007973748890828691,0.007973748890828691
238.31,0.011979254489367763,0.011979254489367763
238.311,0.023359008083440935,0.023359008083440935
238.312,0.03675047344518623,0.03675047344518623
238.313,0.04632504150975536,0.04632504150975536
238.314,0.047580052784862215,0.047580052784862215
238.315,0.038700267083273454,0.038700267083273454
238.316,0.02106936545117799,0.02106936545117799
238.317,0.0012261188504268938,-0.0012261188504268938
238.318,0.022737684452585394,-0.022737684452585394
238.319,0.03840216633509019,-0.03840216633509019
238.32,0.04511968366105601,-0.04511968366105601
238.321,0.042638494242063674,-0.042638494242063674
238.322,0.033453333573649435,-0.033453333573649435
238.323,0.02175956861525119,-0.02175956861525119
238.324,0.011834397267453056,-0.011834397267453056
238.325,0.006423880173180296,-0.006423880173180296
238.326,0.0057240226174209985,-0.0057240226174209985
238.327,0.007344978384876133,-0.007344978384876133
238.328,0.007302211461148178,-0.007302211461148178
238.329,0.0017037559466516194,-0.0017037559466516194
238.33,0.011469412332309803,0.011469412332309803
238.331,0.0311609075493402,0.0311609075493402
238.332,0.05311541899350547,0.05311541899350547
238.333,0.07097586622228569,0.07097586622228569
238.334,0.07831184625784382,0.07831184625784382
238.335,0.07093539429517182,0.07093539429517182
238.336,0.048710263248597396,0.048710263248597396
238.337,0.01617862855634833,0.01617862855634833
238.338,0.01831291387253975,-0.01831291387253975
238.339,0.04481923336603033,-0.04481923336603033
238.34,0.054709647293481045,-0.054709647293481045
238.341,0.0433937159806741,-0.0433937159806741
238.342,0.011980245531239664,-0.011980245531239664
238.343,0.032706167611353365,0.032706167611353365
238.344,0.07982515725124983,0.07982515725124983
238.345,0.11747169818833414,0.11747169818833414
238.346,0.1360104743708237,0.1360104743708237
238.347,0.1307930782653024,0.1307930782653024
238.348,0.10344004133032869,0.10344004133032869
238.349,0.061309583095900066,0.061309583095900066
238.35,0.015330881183541978,0.015330881183541978
238.351,0.023126673898363204,-0.023126673898363204
238.352,0.04540136235400882,-0.04540136235400882
238.353,0.04778268692020371,-0.04778268692020371
238.354,0.03223859940674623,-0.03223859940674623
238.355,0.00549968805192913,-0.00549968805192913
238.356,0.023126779217888638,0.023126779217888638
238.357,0.04448560602087803,0.04448560602087803
238.358,0.05201317705993347,0.05201317705993347
238.359,0.043217971120740106,0.043217971120740106
238.36,0.019889734611382215,0.019889734611382215
238.361,0.012854487149215554,-0.012854487149215554
238.362,0.04823945388633666,-0.04823945388633666
238.363,0.07961442233294991,-0.07961442233294991
238.364,0.10181350137377176,-0.10181350137377176
238.365,0.11179585192378894,-0.11179585192378894
238.366,0.10857413238765845,-0.10857413238765845
238.367,0.09269353067084096,-0.09269353067084096
238.368,0.0656345063857976,-0.0656345063857976
238.369,0.029451131776376926,-0.029451131776376926
238.37,0.01323535491429051,0.01323535491429051
238.371,0.05899974845321476,0.05899974845321476
238.372,0.10341127903569336,0.10341127903569336
238.373,0.1411722114279459,0.1411722114279459
238.374,0.16677295730108033,0.16677295730108033
238.375,0.17560676187498814,0.17560676187498814
238.376,0.16524596311686146,0.16524596311686146
238.377,0.1364375136118232,0.1364375136118232
238.378,0.09339809925882014,0.09339809925882014
238.379,0.04318499847510071,0.04318499847510071
238.38,0.005775278367314618,-0.005775278367314618
238.381,0.04561325608158806,-0.04561325608158806
238.382,0.07082302417591801,-0.07082302417591801
238.383,0.07938374391139935,-0.07938374391139935
238.384,0.07284491092162382,-0.07284491092162382
238.385,0.05537377945720234,-0.05537377945720234
238.386,0.03212494820671297,-0.03212494820671297
238.387,0.007531881526206097,-0.007531881526206097
238.388,0.015855909850772898,0.015855909850772898
238.389,0.03757529927354386,0.03757529927354386
238.39,0.05844919792113901,0.05844919792113901
238.391,0.07914258416854025,0.07914258416854025
238.392,0.0987133058124019,0.0987133058124019
238.393,0.11383990397364929,0.11383990397364929
238.394,0.11918648721638592,0.11918648721638592
238.395,0.10894373072066288,0.10894373072066288
238.396,0.07911099077369599,0.07911099077369599
238.397,0.029731788688000194,0.029731788688000194
238.398,0.03379542662059787,-0.03379542662059787
238.399,0.10098288810588663,-0.10098288810588663
238.4,0.1582607061975193,-0.1582607061975193
238.401,0.19229823623573972,-0.19229823623573972
238.402,0.1937147814414617,-0.1937147814414617
238.403,0.16003299645428282,-0.16003299645428282
238.404,0.09687734252355329,-0.09687734252355329
238.405,0.01691238008805318,-0.01691238008805318
238.406,0.06329448502932844,0.06329448502932844
238.407,0.12763382150819225,0.12763382150819225
238.408,0.16476350388232897,0.16476350388232897
238.409,0.1710616036978463,0.1710616036978463
238.41,0.15130472116832405,0.15130472116832405
238.411,0.11684393076903898,0.11684393076903898
238.412,0.08182842087876341,0.08182842087876341
238.413,0.05864330755733871,0.05864330755733871
238.414,0.053982222773260036,0.053982222773260036
238.415,0.06678141265345983,0.06678141265345983
238.416,0.08865891863959763,0.08865891863959763
238.417,0.10671485885941134,0.10671485885941134
238.418,0.10780811380992472,0.10780811380992472
238.419,0.0829665972263196,0.0829665972263196
238.42,0.03055641157800193,0.03055641157800193
238.421,0.04276493582463903,-0.04276493582463903
238.422,0.12358747718175911,-0.12358747718175911
238.423,0.19528539090415087,-0.19528539090415087
238.424,0.24245913648451933,-0.24245913648451933
238.425,0.25495039386434526,-0.25495039386434526
238.426,0.23027806067360912,-0.23027806067360912
238.427,0.17387342542395567,-0.17387342542395567
238.428,0.09718922160967425,-0.09718922160967425
238.429,0.01439185460403647,-0.01439185460403647
238.43,0.061280235674448624,0.061280235674448624
238.431,0.12040143074948606,0.12040143074948606
238.432,0.1587351610889951,0.1587351610889951
238.433,0.17690264610908502,0.17690264610908502
238.434,0.17871638461002104,0.17871638461002104
238.435,0.1689484417336835,0.1689484417336835
238.436,0.15140556887055312,0.15140556887055312
238.437,0.12797402903695843,0.12797402903695843
238.438,0.09886889834330015,0.09886889834330015
238.439,0.06383895966056441,0.06383895966056441
238.44,0.02371425904146318,0.02371425904146318
238.441,0.018435332394498904,-0.018435332394498904
238.442,0.05710130219862597,-0.05710130219862597
238.443,0.08529354474259099,-0.08529354474259099
238.444,0.09640091788887528,-0.09640091788887528
238.445,0.0863433627187552,-0.0863433627187552
238.446,0.05526097328789803,-0.05526097328789803
238.447,0.008109195808398195,-0.008109195808398195
238.448,0.04612469138264319,0.04612469138264319
238.449,0.09642099606261456,0.09642099606261456
238.45,0.1323839638250215,0.1323839638250215
238.451,0.14678396564200646,0.14678396564200646
238.452,0.13725333733280154,0.13725333733280154
238.453,0.10667443665828946,0.10667443665828946
238.454,0.06220508866450514,0.06220508866450514
238.455,0.013291701037840609,0.013291701037840609
238.456,0.030706616918581675,-0.030706616918581675
238.457,0.06259860064881773,-0.06259860064881773
238.458,0.07861771644582927,-0.07861771644582927
238.459,0.07863244444068751,-0.07863244444068751
238.46,0.06542892778100828,-0.06542892778100828
238.461,0.04344687401334968,-0.04344687401334968
238.462,0.017451840389143936,-0.017451840389143936
238.463,0.008447910969434425,0.008447910969434425
238.464,0.03123742358958559,0.03123742358958559
238.465,0.048928173590499835,0.048928173590499835
238.466,0.060223495461874776,0.060223495461874776
238.467,0.064218110411143,0.064218110411143
238.468,0.060360008222606565,0.060360008222606565
238.469,0.04872924812834745,0.04872924812834745
238.47,0.03049268731582666,0.03049268731582666
238.471,0.008261227184823028,0.008261227184823028
238.472,0.013934533129840943,-0.013934533129840943
238.473,0.03121368533363067,-0.03121368533363067
238.474,0.03891383266944248,-0.03891383266944248
238.475,0.03389562100506227,-0.03389562100506227
238.476,0.015677969043403794,-0.015677969043403794
238.477,0.013005394641224965,0.013005394641224965
238.478,0.04649353155253744,0.04649353155253744
238.479,0.07734557237220452,0.07734557237220452
238.48,0.09808916487840302,0.09808916487840302
238.481,0.1031060388309073,0.1031060388309073
238.482,0.09012470197773248,0.09012470197773248
238.483,0.06088876208468186,0.06088876208468186
238.484,0.02080237998610146,0.02080237998610146
238.485,0.022352092270441326,-0.022352092270441326
238.486,0.060267749777006,-0.060267749777006
238.487,0.08603212752238842,-0.08603212752238842
238.488,0.09560986901907853,-0.09560986901907853
238.489,0.08853630280946256,-0.08853630280946256
238.49,0.0677087926089811,-0.0677087926089811
238.491,0.038414412717517776,-0.038414412717517776
238.492,0.0069201088067549765,-0.0069201088067549765
238.493,0.02097404921509871,0.02097404921509871
238.494,0.0410651735803238,0.0410651735803238
238.495,0.05134639947769748,0.05134639947769748
238.496,0.05203335431139111,0.05203335431139111
238.497,0.04512884860207267,0.04512884860207267
238.498,0.03372386131236271,0.03372386131236271
238.499,0.021243670516289725,0.021243670516289725
238.5,0.01079792630082066,0.01079792630082066
238.501,0.004716277647706768,0.004716277647706768
238.502,0.004282337173762807,0.004282337173762807
238.503,0.009641059635471905,0.009641059635471905
238.504,0.019850771741594775,0.019850771741594775
238.505,0.03306613308708184,0.03306613308708184
238.506,0.046849553661397314,0.046849553661397314
238.507,0.058598525773779775,0.058598525773779775
238.508,0.0660422680382673,0.0660422680382673
238.509,0.06771727863267141,0.06771727863267141
238.51,0.06330256497556852,0.06330256497556852
238.511,0.053704438395444365,0.053704438395444365
238.512,0.040836675747753404,0.040836675747753404
238.513,0.027132415690292122,0.027132415690292122
238.514,0.014918579280321698,0.014918579280321698
238.515,0.005843654143876664,0.005843654143876664
238.516,0.00054562813868686,0.00054562813868686
238.517,0.0013284475199815127,-0.0013284475199815127
238.518,0.0007649518376042774,-0.0007649518376042774
238.519,0.0011674864722301947,0.0011674864722301947
238.52,0.003834332105934646,0.003834332105934646
238.521,0.007288895405771045,0.007288895405771045
238.522,0.012129930822241342,0.012129930822241342
238.523,0.0189887831743476,0.0189887831743476
238.524,0.02783858277476603,0.02783858277476603
238.525,0.037425609478883626,0.037425609478883626
238.526,0.04512102684861108,0.04512102684861108
238.527,0.047367202283265186,0.047367202283265186
238.528,0.04068072700442138,0.04068072700442138
238.529,0.02294585154577722,0.02294585154577722
238.53,0.005426906767465378,-0.005426906767465378
238.531,0.040923440924571675,-0.040923440924571675
238.532,0.07723642539736264,-0.07723642539736264
238.533,0.10650248746355029,-0.10650248746355029
238.534,0.1211944703782567,-0.1211944703782567
238.535,0.11614942015621821,-0.11614942015621821
238.536,0.0901208204459032,-0.0901208204459032
238.537,0.04635070405356845,-0.04635070405356845
238.538,0.008060391440763093,0.008060391440763093
238.539,0.0638371650674765,0.0638371650674765
238.54,0.11178246163924888,0.11178246163924888
238.541,0.14492936901616793,0.14492936901616793
238.542,0.15995589613078454,0.15995589613078454
238.543,0.157471765887085,0.157471765887085
238.544,0.14116477080733714,0.14116477080733714
238.545,0.11617413028956869,0.11617413028956869
238.546,0.08730675069595284,0.08730675069595284
238.547,0.057739552153661666,0.057739552153661666
238.548,0.028645029340168326,0.028645029340168326
238.549,0.00018974218124445663,-0.00018974218124445663
238.55,0.029075343370720153,-0.029075343370720153
238.551,0.057063886868477076,-0.057063886868477076
238.552,0.08117360762097747,-0.08117360762097747
238.553,0.09663750921568881,-0.09663750921568881
238.554,0.09822559871977288,-0.09822559871977288
238.555,0.08224806656444716,-0.08224806656444716
238.556,0.04852121125642117,-0.04852121125642117
238.557,0.0014998570363664587,-0.0014998570363664587
238.558,0.050003393691929965,0.050003393691929965
238.559,0.09463861594724299,0.09463861594724299
238.56,0.12146346161288912,0.12146346161288912
238.561,0.12315568303159274,0.12315568303159274
238.562,0.09845963378510492,0.09845963378510492
238.563,0.05300118558639233,0.05300118558639233
238.564,0.0019181490355901776,-0.0019181490355901776
238.565,0.05229861244091227,-0.05229861244091227
238.566,0.08535067619609982,-0.08535067619609982
238.567,0.09315298543520012,-0.09315298543520012
238.568,0.07491256853693484,-0.07491256853693484
238.569,0.03709261465664382,-0.03709261465664382
238.57,0.008661640915266,0.008661640915266
238.571,0.04916462659353282,0.04916462659353282
238.572,0.0737556272625115,0.0737556272625115
238.573,0.07749972658326088,0.07749972658326088
238.574,0.06251192278378537,0.06251192278378537
238.575,0.03699903194186649,0.03699903194186649
238.576,0.012354659075899388,0.012354659075899388
238.577,0.0007278113894263472,-0.0007278113894263472
238.578,0.004151153845033839,0.004151153845033839
238.579,0.02696178401025251,0.02696178401025251
238.58,0.06124028628497613,0.06124028628497613
238.581,0.09618033826099692,0.09618033826099692
238.582,0.12010189979631924,0.12010189979631924
238.583,0.12414430323540615,0.12414430323540615
238.584,0.10498711737281252,0.10498711737281252
238.585,0.06575617469818318,0.06575617469818318
238.586,0.014895657060602474,0.014895657060602474
238.587,0.03653645025294394,-0.03653645025294394
238.588,0.07819303667944422,-0.07819303667944422
238.589,0.10326855487642994,-0.10326855487642994
238.59,0.1099486422680942,-0.1099486422680942
238.591,0.10111251780765806,-0.10111251780765806
238.592,0.08254620344827435,-0.08254620344827435
238.593,0.06043017346336921,-0.06043017346336921
238.594,0.03907709160269479,-0.03907709160269479
238.595,0.019746934293057405,-0.019746934293057405
238.596,0.0009209842967772275,-0.0009209842967772275
238.597,0.02015849988267049,0.02015849988267049
238.598,0.0453669911651442,0.0453669911651442
238.599,0.07390576479505584,0.07390576479505584
238.6,0.10163034857313424,0.10163034857313424
238.601,0.12186712913840658,0.12186712913840658
238.602,0.12751376792563418,0.12751376792563418
238.603,0.11370771098644483,0.11370771098644483
238.604,0.08008606100786508,0.08008606100786508
238.605,0.031750674265922596,0.031750674265922596
238.606,0.021529572014555742,-0.021529572014555742
238.607,0.06774389526221736,-0.06774389526221736
238.608,0.09597839228079574,-0.09597839228079574
238.609,0.09960702125829879,-0.09960702125829879
238.61,0.07828342425171098,-0.07828342425171098
238.611,0.03805409574421259,-0.03805409574421259
238.612,0.010475147438884447,0.010475147438884447
238.613,0.05534310785817986,0.05534310785817986
238.614,0.0867741786293168,0.0867741786293168
238.615,0.09991057991480656,0.09991057991480656
238.616,0.09586268382596219,0.09586268382596219
238.617,0.08077062892100839,0.08077062892100839
238.618,0.06323899454632542,0.06323899454632542
238.619,0.05105050179348347,0.05105050179348347
238.62,0.04830031203680352,0.04830031203680352
238.621,0.05394024792698282,0.05394024792698282
238.622,0.06223447923218939,0.06223447923218939
238.623,0.06497055201920787,0.06497055201920787
238.624,0.05466456547920684,0.05466456547920684
238.625,0.027650793134808893,0.027650793134808893
238.626,0.014028853918511719,-0.014028853918511719
238.627,0.06262988568427175,-0.06262988568427175
238.628,0.10667392040815993,-0.10667392040815993
238.629,0.13429719228222647,-0.13429719228222647
238.63,0.1369296335693443,-0.1369296335693443
238.631,0.11212924123970902,-0.11212924123970902
238.632,0.06464954827238012,-0.06464954827238012
238.633,0.0053666702378435405,-0.0053666702378435405
238.634,0.05164108224946262,0.05164108224946262
238.635,0.09299617521712644,0.09299617521712644
238.636,0.10974381369343433,0.10974381369343433
238.637,0.09979206324030221,0.09979206324030221
238.638,0.06836649851061183,0.06836649851061183
238.639,0.02637710653023939,0.02637710653023939
238.64,0.012788333743235736,-0.012788333743235736
238.641,0.03708522315928697,-0.03708522315928697
238.642,0.03914163973991569,-0.03914163973991569
238.643,0.01817296557569148,-0.01817296557569148
238.644,0.019999798390663015,0.019999798390663015
238.645,0.06475109486444275,0.06475109486444275
238.646,0.10368851333380702,0.10368851333380702
238.647,0.1260337382711203,0.1260337382711203
238.648,0.1254134518321941,0.1254134518321941
238.649,0.1013492454096745,0.1013492454096745
238.65,0.05913695153087417,0.05913695153087417
238.651,0.008259101366540067,0.008259101366540067
238.652,0.04015055652042743,-0.04015055652042743
238.653,0.07606962957137386,-0.07606962957137386
238.654,0.09286433868427124,-0.09286433868427124
238.655,0.08856274329672764,-0.08856274329672764
238.656,0.06591143527017362,-0.06591143527017362
238.657,0.03132788201333769,-0.03132788201333769
238.658,0.006882847818980631,0.006882847818980631
238.659,0.040546332933873996,0.040546332933873996
238.66,0.06337977410994156,0.06337977410994156
238.661,0.07212919730076828,0.07212919730076828
238.662,0.06691038395105897,0.06691038395105897
238.663,0.05078534219959985,0.05078534219959985
238.664,0.028770507063367035,0.028770507063367035
238.665,0.00656596209945759,0.00656596209945759
238.666,0.01069153320841687,-0.01069153320841687
238.667,0.01940306822638116,-0.01940306822638116
238.668,0.01805766016632737,-0.01805766016632737
238.669,0.007315532036479722,-0.007315532036479722
238.67,0.010321174956774426,0.010321174956774426
238.671,0.031129854059858797,0.031129854059858797
238.672,0.050931564361783144,0.050931564361783144
238.673,0.06585313573103302,0.06585313573103302
238.674,0.07297107108320167,0.07297107108320167
238.675,0.0707603772010672,0.0707603772010672
238.676,0.059309838384462576,0.059309838384462576
238.677,0.04029547434144609,0.04029547434144609
238.678,0.01672472403373737,0.01672472403373737
238.679,0.007520724796084899,-0.007520724796084899
238.68,0.02829905982743841,-0.02829905982743841
238.681,0.04191240316776468,-0.04191240316776468
238.682,0.0458053100949829,-0.0458053100949829
238.683,0.03913542076264753,-0.03913542076264753
238.684,0.023082446672851642,-0.023082446672851642
238.685,0.0007803517686196804,-0.0007803517686196804
238.686,0.02318411314247726,0.02318411314247726
238.687,0.043668261440772405,0.043668261440772405
238.688,0.05611404218896232,0.05611404218896232
238.689,0.05768098160051727,0.05768098160051727
238.69,0.04807132285439453,0.04807132285439453
238.691,0.029778744001676793,0.029778744001676793
238.692,0.007612764563489582,0.007612764563489582
238.693,0.012459303091902796,-0.012459303091902796
238.694,0.02490059277668255,-0.02490059277668255
238.695,0.0262049019607985,-0.0262049019607985
238.696,0.016031280313622442,-0.016031280313622442
238.697,0.0025207712631578616,0.0025207712631578616
238.698,0.023667990404241168,0.023667990404241168
238.699,0.04059886151044201,0.04059886151044201
238.7,0.04759414116756289,0.04759414116756289
238.701,0.04198235426646946,0.04198235426646946
238.702,0.025285887702833243,0.025285887702833243
238.703,0.003106889117957312,0.003106889117957312
238.704,0.01633680015711092,-0.01633680015711092
238.705,0.02468776170317799,-0.02468776170317799
238.706,0.016238465927981838,-0.016238465927981838
238.707,0.009833727244329182,0.009833727244329182
238.708,0.0485580347520429,0.0485580347520429
238.709,0.09000692867097526,0.09000692867097526
238.71,0.12177882528577233,0.12177882528577233
238.711,0.1324991801877824,0.1324991801877824
238.712,0.11534294311682514,0.11534294311682514
238.713,0.07050068098641216,0.07050068098641216
238.714,0.005763716406959718,0.005763716406959718
238.715,0.06506976677071974,-0.06506976677071974
238.716,0.12561713846842337,-0.12561713846842337
238.717,0.16123985026702647,-0.16123985026702647
238.718,0.16304385906114893,-0.16304385906114893
238.719,0.1303741241040497,-0.1303741241040497
238.72,0.07104483985477394,-0.07104483985477394
238.721,0.0007910108758055756,0.0007910108758055756
238.722,0.06852567453689451,0.06852567453689451
238.723,0.11760045698283661,0.11760045698283661
238.724,0.13931210218723367,0.13931210218723367
238.725,0.13282383059040592,0.13282383059040592
238.726,0.10483802229042927,0.10483802229042927
238.727,0.06710389425448238,0.06710389425448238
238.728,0.03258611687970836,0.03258611687970836
238.729,0.01150503705370065,0.01150503705370065
238.73,0.008458780636918739,0.008458780636918739
238.731,0.021458992511682595,0.021458992511682595
238.732,0.04308327059247752,0.04308327059247752
238.733,0.06327453469710353,0.06327453469710353
238.734,0.07281686701542855,0.07281686701542855
238.735,0.0663446106168808,0.0663446106168808
238.736,0.0439424501075425,0.0439424501075425
238.737,0.010891756275172693,0.010891756275172693
238.738,0.02425918144497352,-0.02425918144497352
238.739,0.05258408389808589,-0.05258408389808589
238.74,0.06762780403214741,-0.06762780403214741
238.741,0.06727597368998384,-0.06727597368998384
238.742,0.0540744442848482,-0.0540744442848482
238.743,0.03397275739771055,-0.03397275739771055
238.744,0.0139987720145619,-0.0139987720145619
238.745,0.00028584335707759756,0.00028584335707759756
238.746,0.006656316890628178,0.006656316890628178
238.747,0.006790227816425354,0.006790227816425354
238.748,0.005365364315833121,0.005365364315833121
238.749,0.008040323242628933,0.008040323242628933
238.75,0.019050346369953175,0.019050346369953175
238.751,0.039276880091376976,0.039276880091376976
238.752,0.06548252223126294,0.06548252223126294
238.753,0.0910052633204308,0.0910052633204308
238.754,0.10771410325359554,0.10771410325359554
238.755,0.10860644890378679,0.10860644890378679
238.756,0.09021279561405016,0.09021279561405016
238.757,0.05403129904232373,0.05403129904232373
238.758,0.0065191792393684,0.0065191792393684
238.759,0.04238375741725686,-0.04238375741725686
238.76,0.08177699972096164,-0.08177699972096164
238.761,0.10263691779510431,-0.10263691779510431
238.762,0.10016191108651507,-0.10016191108651507
238.763,0.0749808859887846,-0.0749808859887846
238.764,0.03292569963160641,-0.03292569963160641
238.765,0.016518429619634123,0.016518429619634123
238.766,0.0626140080030877,0.0626140080030877
238.767,0.09595256583073408,0.09595256583073408
238.768,0.11054482522700337,0.11054482522700337
238.769,0.10493134054660169,0.10493134054660169
238.77,0.08212246766870468,0.08212246766870468
238.771,0.04849415019480108,0.04849415019480108
238.772,0.012015344098479375,0.012015344098479375
238.773,0.019694448412236776,-0.019694448412236776
238.774,0.04099860291506974,-0.04099860291506974
238.775,0.04922515576939901,-0.04922515576939901
238.776,0.04485491625428695,-0.04485491625428695
238.777,0.030978247801024428,-0.030978247801024428
238.778,0.012240676047021393,-0.012240676047021393
238.779,0.006420137982318996,0.006420137982318996
238.78,0.02094124697848354,0.02094124697848354
238.781,0.02896325113969711,0.02896325113969711
238.782,0.03018186895992847,0.03018186895992847
238.783,0.02619772406115395,0.02619772406115395
238.784,0.01994365956058286,0.01994365956058286
238.785,0.014845928897819105,0.014845928897819105
238.786,0.013916940455413584,0.013916940455413584
238.787,0.018979638662592224,0.018979638662592224
238.788,0.03018865257346448,0.03018865257346448
238.789,0.04594738023773015,0.04594738023773015
238.79,0.06323469405021154,0.06323469405021154
238.791,0.0782661335224224,0.0782661335224224
238.792,0.0873409358095758,0.0873409358095758
238.793,0.08768504352940587,0.08768504352940587
238.794,0.07810184411041776,0.07810184411041776
238.795,0.059287111808412396,0.059287111808412396
238.796,0.03374155869101636,0.03374155869101636
238.797,0.005304222337813913,0.005304222337813913
238.798,0.021589492160009827,-0.021589492160009827
238.799,0.04276821365333916,-0.04276821365333916
238.8,0.055130291841268164,-0.055130291841268164
238.801,0.05724090238332946,-0.05724090238332946
238.802,0.049611919269675675,-0.049611919269675675
238.803,0.03461404479663155,-0.03461404479663155
238.804,0.0160306087717923,-0.0160306087717923
238.805,0.0016821179422124022,0.0016821179422124022
238.806,0.01431424327263664,0.01431424327263664
238.807,0.018845985504348572,0.018845985504348572
238.808,0.0142317402626293,0.0142317402626293
238.809,0.0018347890540106881,0.0018347890540106881
238.81,0.014645131353208551,-0.014645131353208551
238.811,0.02982874911371658,-0.02982874911371658
238.812,0.03784843916465619,-0.03784843916465619
238.813,0.03386933546273985,-0.03386933546273985
238.814,0.015595572085539522,-0.015595572085539522
238.815,0.01565909487464312,0.01565909487464312
238.816,0.054723567358407665,0.054723567358407665
238.817,0.09336970444361281,0.09336970444361281
238.818,0.12211607611860309,0.12211607611860309
238.819,0.13267785877112392,0.13267785877112392
238.82,0.1204441949936288,0.1204441949936288
238.821,0.08625120214177806,0.08625120214177806
238.822,0.03681890633340923,0.03681890633340923
238.823,0.016462246257739732,-0.016462246257739732
238.824,0.060244086177018596,-0.060244086177018596
238.825,0.08279785628905634,-0.08279785628905634
238.826,0.07747508407785997,-0.07747508407785997
238.827,0.04499432352642874,-0.04499432352642874
238.828,0.006253984249093625,0.006253984249093625
238.829,0.062158095216107156,0.062158095216107156
238.83,0.10668864244805998,0.10668864244805998
238.831,0.12653990054030073,0.12653990054030073
238.832,0.11524707782699517,0.11524707782699517
238.833,0.0754749620947841,0.0754749620947841
238.834,0.0186486925568754,0.0186486925568754
238.835,0.038128619100890826,-0.038128619100890826
238.836,0.07708107511819895,-0.07708107511819895
238.837,0.08524691624283998,-0.08524691624283998
238.838,0.05877139629660677,-0.05877139629660677
238.839,0.004611030037797725,-0.004611030037797725
238.84,0.06100958225332831,0.06100958225332831
238.841,0.11706827631777106,0.11706827631777106
238.842,0.1439012174624188,0.1439012174624188
238.843,0.12923213581724413,0.12923213581724413
238.844,0.072238100092467,0.072238100092467
238.845,0.015639060262785387,-0.015639060262785387
238.846,0.11346631468802182,-0.11346631468802182
238.847,0.19642651987070792,-0.19642651987070792
238.848,0.24264094739966058,-0.24264094739966058
238.849,0.23921184899933512,-0.23921184899933512
238.85,0.1857228212014418,-0.1857228212014418
238.851,0.09420622169112525,-0.09420622169112525
238.852,0.014346440397298599,0.014346440397298599
238.853,0.11582910656320644,0.11582910656320644
238.854,0.18945266531710137,0.18945266531710137
238.855,0.22288926131972375,0.22288926131972375
238.856,0.2147267573861935,0.2147267573861935
238.857,0.17371170955536464,0.17371170955536464
238.858,0.11525563113769977,0.11525563113769977
238.859,0.05647007634911594,0.05647007634911594
238.86,0.011339598543335105,0.011339598543335105
238.861,0.012546969013028098,-0.012546969013028098
238.862,0.014912966688212514,-0.014912966688212514
238.863,0.0013938820647659833,-0.0013938820647659833
238.864,0.01940034976783056,0.01940034976783056
238.865,0.03916957044142766,0.03916957044142766
238.866,0.05239750624206252,0.05239750624206252
238.867,0.05729433455546418,0.05729433455546418
238.868,0.055137352098919123,0.055137352098919123
238.869,0.04855456102723976,0.04855456102723976
238.87,0.039649901433232326,0.039649901433232326
238.871,0.02884340524270801,0.02884340524270801
238.872,0.014923567530181092,0.014923567530181092
238.873,0.0037564723996015292,-0.0037564723996015292
238.874,0.027533215693019808,-0.027533215693019808
238.875,0.05400712197585189,-0.05400712197585189
238.876,0.07771886882407564,-0.07771886882407564
238.877,0.09128716521437452,-0.09128716521437452
238.878,0.08776953436190704,-0.08776953436190704
238.879,0.06346358572091282,-0.06346358572091282
238.88,0.0200924554856603,-0.0200924554856603
238.881,0.034565721258784654,0.034565721258784654
238.882,0.08806090139548561,0.08806090139548561
238.883,0.12643275174161883,0.12643275174161883
238.884,0.13826141963146332,0.13826141963146332
238.885,0.11833629522511768,0.11833629522511768
238.886,0.06971146235440795,0.06971146235440795
238.887,0.003381067487489009,0.003381067487489009
238.888,0.06444883150506919,-0.06444883150506919
238.889,0.11673914342139069,-0.11673914342139069
238.89,0.1403468427508845,-0.1403468427508845
238.891,0.1296711480565308,-0.1296711480565308
238.892,0.08811328101194715,-0.08811328101194715
238.893,0.026929960538927045,-0.026929960538927045
238.894,0.03812768531667188,0.03812768531667188
238.895,0.0913249333645969,0.0913249333645969
238.896,0.1212201547598395,0.1212201547598395
238.897,0.1234524073626646,0.1234524073626646
238.898,0.10130471812962027,0.10130471812962027
238.899,0.06403433660818836,0.06403433660818836
238.9,0.023649320562032505,0.023649320562032505
238.901,0.008760904002928616,-0.008760904002928616
238.902,0.02598896321684019,-0.02598896321684019
238.903,0.026143815163354622,-0.026143815163354622
238.904,0.01230025507449184,-0.01230025507449184
238.905,0.009292319478116262,0.009292319478116262
238.906,0.031669331204442264,0.031669331204442264
238.907,0.04937930633297993,0.04937930633297993
238.908,0.059773927153700335,0.059773927153700335
238.909,0.06306928408577073,0.06306928408577073
238.91,0.0613624617754156,0.0613624617754156
238.911,0.05714644476982156,0.05714644476982156
238.912,0.051989829127149445,0.051989829127149445
238.913,0.04591024114520237,0.04591024114520237
238.914,0.03764288360462831,0.03764288360462831
238.915,0.025624323222487755,0.025624323222487755
238.916,0.009223736706453378,0.009223736706453378
238.917,0.01033691413742277,-0.01033691413742277
238.918,0.029801295260060257,-0.029801295260060257
238.919,0.04456958340505934,-0.04456958340505934
238.92,0.05005595329335355,-0.05005595329335355
238.921,0.04324885944897039,-0.04324885944897039
238.922,0.023925948393010876,-0.023925948393010876
238.923,0.004911208253459698,0.004911208253459698
238.924,0.037554684335400434,0.037554684335400434
238.925,0.06691905491757222,0.06691905491757222
238.926,0.08628727311117457,0.08628727311117457
238.927,0.09096736667704275,0.09096736667704275
238.928,0.07940885092740912,0.07940885092740912
238.929,0.053515812923280226,0.053515812923280226
238.93,0.018139004320354424,0.018139004320354424
238.931,0.020053411271044652,-0.020053411271044652
238.932,0.05400073093416413,-0.05400073093416413
238.933,0.07763073459549574,-0.07763073459549574
238.934,0.0869340030932888,-0.0869340030932888
238.935,0.0805868393964716,-0.0805868393964716
238.936,0.06008713427355117,-0.06008713427355117
238.937,0.0294370928434321,-0.0294370928434321
238.938,0.005563329521383498,0.005563329521383498
238.939,0.0383343078231011,0.0383343078231011
238.94,0.0627394154852301,0.0627394154852301
238.941,0.07435204901702153,0.07435204901702153
238.942,0.07153164562579573,0.07153164562579573
238.943,0.056029690960369694,0.056029690960369694
238.944,0.03287095835010945,0.03287095835010945
238.945,0.009383123860458698,0.009383123860458698
238.946,0.0065314556566399284,-0.0065314556566399284
238.947,0.008530430144087608,-0.008530430144087608
238.948,0.006184071672912683,0.006184071672912683
238.949,0.03564973243912406,0.03564973243912406
238.95,0.07317896246275346,0.07317896246275346
238.951,0.10880150750818984,0.10880150750818984
238.952,0.13184223549960006,0.13184223549960006
238.953,0.13396277100505216,0.13396277100505216
238.954,0.11177132650025245,0.11177132650025245
238.955,0.06815450472508155,0.06815450472508155
238.956,0.01182089102062367,0.01182089102062367
238.957,0.04491849970893891,-0.04491849970893891
238.958,0.08953916923660821,-0.08953916923660821
238.959,0.1128569755858021,-0.1128569755858021
238.96,0.11164020293059085,-0.11164020293059085
238.961,0.08943302311886558,-0.08943302311886558
238.962,0.055296253559089514,-0.055296253559089514
238.963,0.020842679425466692,-0.020842679425466692
238.964,0.0034894289731257633,0.0034894289731257633
238.965,0.011716166471433143,0.011716166471433143
238.966,0.004068756662882533,0.004068756662882533
238.967,0.013337073992197412,-0.013337073992197412
238.968,0.030795202324330195,-0.030795202324330195
238.969,0.038476103366457126,-0.038476103366457126
238.97,0.02988026677644673,-0.02988026677644673
238.971,0.004102388284715652,-0.004102388284715652
238.972,0.03385250042202714,0.03385250042202714
238.973,0.074780483001184,0.074780483001184
238.974,0.1083929508301491,0.1083929508301491
238.975,0.1267274419014266,0.1267274419014266
238.976,0.12666124496576314,0.12666124496576314
238.977,0.11067033866070908,0.11067033866070908
238.978,0.08561575429013302,0.08561575429013302
238.979,0.06005130729252306,0.06005130729252306
238.98,0.04107311647040324,0.04107311647040324
238.981,0.031881061372527775,0.031881061372527775
238.982,0.030940606534507475,0.030940606534507475
238.983,0.03302344266177126,0.03302344266177126
238.984,0.03169200096243019,0.03169200096243019
238.985,0.02224121696734449,0.02224121696734449
238.986,0.003929054294931511,0.003929054294931511
238.987,0.01941148320728503,-0.01941148320728503
238.988,0.0406727433510502,-0.0406727433510502
238.989,0.052237959999315575,-0.052237959999315575
238.99,0.049172967560852765,-0.049172967560852765
238.991,0.03159114494606663,-0.03159114494606663
238.992,0.0051956920589498745,-0.0051956920589498745
238.993,0.020348325493697805,0.020348325493697805
238.994,0.034748258962625345,0.034748258962625345
238.995,0.030982551569025185,0.030982551569025185
238.996,0.008335108583900963,0.008335108583900963
238.997,0.026635613975610428,-0.026635613975610428
238.998,0.0617122785970885,-0.0617122785970885
238.999,0.08283161781045989,-0.08283161781045989
239.0,0.07889317966331943,-0.07889317966331943
239.001,0.045937590442202025,-0.045937590442202025
239.002,0.01080043729438862,0.01080043729438862
239.003,0.07779688154781095,0.07779688154781095
239.004,0.13695476066024614,0.13695476066024614
239.005,0.17102229743706143,0.17102229743706143
239.006,0.16898958436582356,0.16898958436582356
239.007,0.12969718383158546,0.12969718383158546
239.008,0.062443775351268105,0.062443775351268105
239.009,0.015648759627065356,-0.015648759627065356
239.01,0.08469107523079145,-0.08469107523079145
239.011,0.12788599536770728,-0.12788599536770728
239.012,0.136318555545357,-0.136318555545357
239.013,0.11117180267994764,-0.11117180267994764
239.014,0.06273074918791333,-0.06273074918791333
239.015,0.006605007414450248,-0.006605007414450248
239.016,0.041494159369447337,0.041494159369447337
239.017,0.0706492610887326,0.0706492610887326
239.018,0.07770284829627916,0.07770284829627916
239.019,0.06740325091098454,0.06740325091098454
239.02,0.0498329319239148,0.0498329319239148
239.021,0.03615292709451157,0.03615292709451157
239.022,0.03424288526180308,0.03424288526180308
239.023,0.04579714087460629,0.04579714087460629
239.024,0.06587229680209572,0.06587229680209572
239.025,0.08498039499701626,0.08498039499701626
239.026,0.09290716533401477,0.09290716533401477
239.027,0.08282910191215986,0.08282910191215986
239.028,0.054214164620847605,0.054214164620847605
239.029,0.013441541273050639,0.013441541273050639
239.03,0.028101128592706526,-0.028101128592706526
239.031,0.057784788853927016,-0.057784788853927016
239.032,0.06605289255723112,-0.06605289255723112
239.033,0.0497746745121872,-0.0497746745121872
239.034,0.013469089751591001,-0.013469089751591001
239.035,0.03202725823908015,0.03202725823908015
239.036,0.07299408266075602,0.07299408266075602
239.037,0.09719725549774916,0.09719725549774916
239.038,0.09772822283328253,0.09772822283328253
239.039,0.07505263587333211,0.07505263587333211
239.04,0.03663717175785264,0.03663717175785264
239.041,0.0056506843042749555,-0.0056506843042749555
239.042,0.03944100608786394,-0.03944100608786394
239.043,0.05573410002113355,-0.05573410002113355
239.044,0.05149006153276914,-0.05149006153276914
239.045,0.030164364037285507,-0.030164364037285507
239.046,0.0001410037882201287,-0.0001410037882201287
239.047,0.02828493426600298,0.02828493426600298
239.048,0.04628360080252514,0.04628360080252514
239.049,0.04909134235608059,0.04909134235608059
239.05,0.03704848310082198,0.03704848310082198
239.051,0.014878048567652291,0.014878048567652291
239.052,0.010374609429734893,-0.010374609429734893
239.053,0.0318989101789795,-0.0318989101789795
239.054,0.045237494483605145,-0.045237494483605145
239.055,0.049277406688288616,-0.049277406688288616
239.056,0.045899428461729896,-0.045899428461729896
239.057,0.03858427105788931,-0.03858427105788931
239.058,0.03063564525301965,-0.03063564525301965
239.059,0.023765435944034463,-0.023765435944034463
239.06,0.01758073265419413,-0.01758073265419413
239.061,0.010111449104485581,-0.010111449104485581
239.062,0.0009149896652900225,0.0009149896652900225
239.063,0.016640170428336987,0.016640170428336987
239.064,0.03611876660882496,0.03611876660882496
239.065,0.056267560532311744,0.056267560532311744
239.066,0.07277014687765893,0.07277014687765893
239.067,0.0815955513147284,0.0815955513147284
239.068,0.08053530600943848,0.08053530600943848
239.069,0.07014659188118433,0.07014659188118433
239.07,0.05371353985473282,0.05371353985473282
239.071,0.036215704258723225,0.036215704258723225
239.072,0.02267491779103792,0.02267491779103792
239.073,0.01649106973420955,0.01649106973420955
239.074,0.01838165983527884,0.01838165983527884
239.075,0.02630814806249493,0.02630814806249493
239.076,0.03639407370885572,0.03639407370885572
239.077,0.044461837390598724,0.044461837390598724
239.078,0.047583146392168985,0.047583146392168985
239.079,0.04504246884177232,0.04504246884177232
239.08,0.038352464732005265,0.038352464732005265
239.081,0.030343075767232497,0.030343075767232497
239.082,0.023722977800583855,0.023722977800583855
239.083,0.019734601827390952,0.019734601827390952
239.084,0.017500298639649525,0.017500298639649525
239.085,0.014389399680995396,0.014389399680995396
239.086,0.007320873090769231,0.007320873090769231
239.087,0.0054885087768338225,-0.0054885087768338225
239.088,0.02305515709484196,-0.02305515709484196
239.089,0.04112602141564814,-0.04112602141564814
239.09,0.05301679062539044,-0.05301679062539044
239.091,0.05167788066927004,-0.05167788066927004
239.092,0.0323840459061131,-0.0323840459061131
239.093,0.00486907033284445,0.00486907033284445
239.094,0.05418472658149054,0.05418472658149054
239.095,0.1044007062228367,0.1044007062228367
239.096,0.14157741028013926,0.14157741028013926
239.097,0.15275268127103203,0.15275268127103203
239.098,0.129904346796631,0.129904346796631
239.099,0.07290437417548024,0.07290437417548024
239.1,0.009524807098138188,-0.009524807098138188
239.101,0.10128794501990035,-0.10128794501990035
239.102,0.1825502061275619,-0.1825502061275619
239.103,0.2345931898618725,-0.2345931898618725
239.104,0.24457202071844963,-0.24457202071844963
239.105,0.20885216899515058,-0.20885216899515058
239.106,0.1339963935003693,-0.1339963935003693
239.107,0.03513614016934963,-0.03513614016934963
239.108,0.06780375376569014,0.06780375376569014
239.109,0.15497268027585087,0.15497268027585087
239.11,0.21123222907274153,0.21123222907274153
239.111,0.2293604919127481,0.2293604919127481
239.112,0.21107155720862547,0.21107155720862547
239.113,0.1657384194056266,0.1657384194056266
239.114,0.10733734855089305,0.10733734855089305
239.115,0.050570619170399844,0.050570619170399844
239.116,0.007259783991867996,0.007259783991867996
239.117,0.016080900877989635,-0.016080900877989635
239.118,0.01900066973873138,-0.01900066973873138
239.119,0.006219801954477577,-0.006219801954477577
239.12,0.014443245255373105,0.014443245255373105
239.121,0.03459846938051325,0.03459846938051325
239.122,0.0475206476244292,0.0475206476244292
239.123,0.04954919872657171,0.04954919872657171
239.124,0.040430748884906276,0.040430748884906276
239.125,0.022720521722857212,0.022720521722857212
239.126,0.0006032433493161626,0.0006032433493161626
239.127,0.021414243103556885,-0.021414243103556885
239.128,0.039551300929019706,-0.039551300929019706
239.129,0.051328681611282456,-0.051328681611282456
239.13,0.05566148247375735,-0.05566148247375735
239.131,0.052621519984118126,-0.052621519984118126
239.132,0.043087921627513515,-0.043087921627513515
239.133,0.028469841513574012,-0.028469841513574012
239.134,0.010578974827112897,-0.010578974827112897
239.135,0.008393309762314782,0.008393309762314782
239.136,0.025922739066259304,0.025922739066259304
239.137,0.03935898718518538,0.03935898718518538
239.138,0.046357468086824616,0.046357468086824616
239.139,0.04548041559283744,0.04548041559283744
239.14,0.03679292705986503,0.03679292705986503
239.141,0.022215642030476657,0.022215642030476657
239.142,0.005420970787251234,0.005420970787251234
239.143,0.008823065425013654,-0.008823065425013654
239.144,0.01578019839624978,-0.01578019839624978
239.145,0.01208334789067722,-0.01208334789067722
239.146,0.0030978347222687663,0.0030978347222687663
239.147,0.027447829532327717,0.027447829532327717
239.148,0.05572472767009273,0.05572472767009273
239.149,0.08085743536711876,0.08085743536711876
239.15,0.09570587454390034,0.09570587454390034
239.151,0.09504242942214347,0.09504242942214347
239.152,0.07719787930067645,0.07719787930067645
239.153,0.04485877662669546,0.04485877662669546
239.154,0.0047069442233906855,0.0047069442233906855
239.155,0.03409276768673941,-0.03409276768673941
239.156,0.062209869211719115,-0.062209869211719115
239.157,0.07266025934777576,-0.07266025934777576
239.158,0.06280118769700971,-0.06280118769700971
239.159,0.03520198738701119,-0.03520198738701119
239.16,0.002922933026435759,0.002922933026435759
239.161,0.04162534029706988,0.04162534029706988
239.162,0.0709807059936598,0.0709807059936598
239.163,0.0839153629510958,0.0839153629510958
239.164,0.0782667014933387,0.0782667014933387
239.165,0.057430416052036026,0.057430416052036026
239.166,0.02934646211968328,0.02934646211968328
239.167,0.004069841967602628,0.004069841967602628
239.168,0.00938335055616435,-0.00938335055616435
239.169,0.005970076155735082,-0.005970076155735082
239.17,0.013584950751818425,0.013584950751818425
239.171,0.04274298602314386,0.04274298602314386
239.172,0.07094817373171236,0.07094817373171236
239.173,0.08679480998081912,0.08679480998081912
239.174,0.08164537205381994,0.08164537205381994
239.175,0.05259856344406666,0.05259856344406666
239.176,0.003858959795009831,0.003858959795009831
239.177,0.0539880657973576,-0.0539880657973576
239.178,0.10666970109304719,-0.10666970109304719
239.179,0.140154894500495,-0.140154894500495
239.18,0.1446863327591137,-0.1446863327591137
239.181,0.11771713708936682,-0.11771713708936682
239.182,0.06485374378998365,-0.06485374378998365
239.183,0.0015138636573992503,0.0015138636573992503
239.184,0.06552715641788187,0.06552715641788187
239.185,0.11216894904148367,0.11216894904148367
239.186,0.13131860073728596,0.13131860073728596
239.187,0.1203809730065446,0.1203809730065446
239.188,0.08474919072738674,0.08474919072738674
239.189,0.0360124541677469,0.0360124541677469
239.19,0.011511110249121992,-0.011511110249121992
239.191,0.04485623377022552,-0.04485623377022552
239.192,0.05589913938294333,-0.05589913938294333
239.193,0.04326842885858684,-0.04326842885858684
239.194,0.01220802573641433,-0.01220802573641433
239.195,0.027441539792024905,0.027441539792024905
239.196,0.06442136946460808,0.06442136946460808
239.197,0.08936495722115878,0.08936495722115878
239.198,0.09724461603167622,0.09724461603167622
239.199,0.08829524305664127,0.08829524305664127
239.2,0.06727937932960382,0.06727937932960382
239.201,0.04148554788588976,0.04148554788588976
239.202,0.018214998263005988,0.018214998263005988
239.203,0.0026031077046246853,0.0026031077046246853
239.204,0.0035702034551045037,-0.0035702034551045037
239.205,0.0018175346073155962,-0.0018175346073155962
239.206,0.004190956423484993,0.004190956423484993
239.207,0.010311468417044889,0.010311468417044889
239.208,0.013504973962132683,0.013504973962132683
239.209,0.012764792084002607,0.012764792084002607
239.21,0.009140513977217157,0.009140513977217157
239.211,0.0049629044404571054,0.0049629044404571054
239.212,0.0026622269043523605,0.0026622269043523605
239.213,0.0036895938962786534,0.0036895938962786534
239.214,0.007964973897789829,0.007964973897789829
239.215,0.014031379619654283,0.014031379619654283
239.216,0.01979501200383571,0.01979501200383571
239.217,0.023495163790685947,0.023495163790685947
239.218,0.024466164673724977,0.024466164673724977
239.219,0.023354726499802414,0.023354726499802414
239.22,0.021695858020398973,0.021695858020398973
239.221,0.02103111872966812,0.02103111872966812
239.222,0.021960630612271492,0.021960630612271492
239.223,0.023569500210346428,0.023569500210346428
239.224,0.02353615598298009,0.02353615598298009
239.225,0.018961991207371298,0.018961991207371298
239.226,0.007660186965988247,0.007660186965988247
239.227,0.010575585790613129,-0.010575585790613129
239.228,0.03324542624263216,-0.03324542624263216
239.229,0.05532694144592398,-0.05532694144592398
239.23,0.07042720993504303,-0.07042720993504303
239.231,0.07260955395785329,-0.07260955395785329
239.232,0.058332727426410824,-0.058332727426410824
239.233,0.027856088923296052,-0.027856088923296052
239.234,0.014396641883063444,0.014396641883063444
239.235,0.06070111751189389,0.06070111751189389
239.236,0.10191265668151539,0.10191265668151539
239.237,0.12981506051935643,0.12981506051935643
239.238,0.13922950442855186,0.13922950442855186
239.239,0.12924798606346077,0.12924798606346077
239.24,0.1032382425918057,0.1032382425918057
239.241,0.06766283818388952,0.06766283818388952
239.242,0.030129479447490004,0.030129479447490004
239.243,0.0026836589565640834,-0.0026836589565640834
239.244,0.02657839148410701,-0.02657839148410701
239.245,0.040425446007429366,-0.040425446007429366
239.246,0.04570458460284721,-0.04570458460284721
239.247,0.0452714381409981,-0.0452714381409981
239.248,0.04187529852058902,-0.04187529852058902
239.249,0.03700326428206413,-0.03700326428206413
239.25,0.030468155098122063,-0.030468155098122063
239.251,0.02085358579828822,-0.02085358579828822
239.252,0.006593389844065434,-0.006593389844065434
239.253,0.012782677341625304,0.012782677341625304
239.254,0.03577113038033497,0.03577113038033497
239.255,0.058783675477591446,0.058783675477591446
239.256,0.07691557721788178,0.07691557721788178
239.257,0.08537385921829932,0.08537385921829932
239.258,0.08108768753496132,0.08108768753496132
239.259,0.0639328691343759,0.0639328691343759
239.26,0.03711294744566351,0.03711294744566351
239.261,0.006513116821510678,0.006513116821510678
239.262,0.020814669943352127,-0.020814669943352127
239.263,0.038584341954185475,-0.038584341954185475
239.264,0.04303145497683458,-0.04303145497683458
239.265,0.03395017261005895,-0.03395017261005895
239.266,0.014698493998174689,-0.014698493998174689
239.267,0.008815437787983216,0.008815437787983216
239.268,0.029839727092486612,0.029839727092486612
239.269,0.04265215170962766,0.04265215170962766
239.27,0.04404908609660274,0.04404908609660274
239.271,0.03404560997429984,0.03404560997429984
239.272,0.01564539237991802,0.01564539237991802
239.273,0.00617437241746166,-0.00617437241746166
239.274,0.025900556757105675,-0.025900556757105675
239.275,0.038897417552806735,-0.038897417552806735
239.276,0.04241119659503312,-0.04241119659503312
239.277,0.03595460196290845,-0.03595460196290845
239.278,0.02107407960776353,-0.02107407960776353
239.279,0.0006826390002724336,-0.0006826390002724336
239.28,0.021768556401705164,0.021768556401705164
239.281,0.04302240809955471,0.04302240809955471
239.282,0.060493157022527555,0.060493157022527555
239.283,0.07246091394393606,0.07246091394393606
239.284,0.07806300103627084,0.07806300103627084
239.285,0.07720639828101716,0.07720639828101716
239.286,0.07049940697128965,0.07049940697128965
239.287,0.05922666572387025,0.05922666572387025
239.288,0.04531246968292724,0.04531246968292724
239.289,0.03117569695629352,0.03117569695629352
239.29,0.019399795719420965,0.019399795719420965
239.291,0.01221848862989372,0.01221848862989372
239.292,0.010920069093601326,0.010920069093601326
239.293,0.01535416509603249,0.01535416509603249
239.294,0.023743416405418438,0.023743416405418438
239.295,0.032940108332579765,0.032940108332579765
239.296,0.03913762919484709,0.03913762919484709
239.297,0.03889038353012331,0.03889038353012331
239.298,0.030169228847121587,0.030169228847121587
239.299,0.013131921385808099,0.013131921385808099
239.3,0.009656398518702258,-0.009656398518702258
239.301,0.03367002283658438,-0.03367002283658438
239.302,0.05345813399288735,-0.05345813399288735
239.303,0.06400794972975721,-0.06400794972975721
239.304,0.062065459290690184,-0.062065459290690184
239.305,0.047044234992266065,-0.047044234992266065
239.306,0.021264399478674645,-0.021264399478674645
239.307,0.01054782295975798,0.01054782295975798
239.308,0.04236258552467098,0.04236258552467098
239.309,0.06825063131825204,0.06825063131825204
239.31,0.08371701737676385,0.08371701737676385
239.311,0.08662819550845757,0.08662819550845757
239.312,0.07752367396583937,0.07752367396583937
239.313,0.05927919998853981,0.05927919998853981
239.314,0.03625851603270358,0.03625851603270358
239.315,0.013207936139908893,0.013207936139908893
239.316,0.00581459543157703,-0.00581459543157703
239.317,0.018227209691239366,-0.018227209691239366
239.318,0.02328050569711615,-0.02328050569711615
239.319,0.021957474641944086,-0.021957474641944086
239.32,0.01650123257636238,-0.01650123257636238
239.321,0.009725556556430703,-0.009725556556430703
239.322,0.0042858380329483525,-0.0042858380329483525
239.323,0.002068130003794799,-0.002068130003794799
239.324,0.0038063056528060413,-0.0038063056528060413
239.325,0.008978826671884432,-0.008978826671884432
239.326,0.015980392055112702,-0.015980392055112702
239.327,0.022516990507348678,-0.022516990507348678
239.328,0.026138105669017198,-0.026138105669017198
239.329,0.0247979987362813,-0.0247979987362813
239.33,0.017331298887775293,-0.017331298887775293
239.331,0.003740364763670123,-0.003740364763670123
239.332,0.014773881895319807,0.014773881895319807
239.333,0.036051190141759504,0.036051190141759504
239.334,0.05742862230749002,0.05742862230749002
239.335,0.07630096233820738,0.07630096233820738
239.336,0.09063560968051565,0.09063560968051565
239.337,0.09929875794361243,0.09929875794361243
239.338,0.10210237645615727,0.10210237645615727
239.339,0.0995696526139771,0.0995696526139771
239.34,0.0925137818575299,0.0925137818575299
239.341,0.0815972879192508,0.0815972879192508
239.342,0.06705656066077581,0.06705656066077581
239.343,0.04872548008538202,0.04872548008538202
239.344,0.02638326549723846,0.02638326549723846
239.345,0.0003188116020860221,0.0003188116020860221
239.346,0.0281058134579093,-0.0281058134579093
239.347,0.05615137671862991,-0.05615137671862991
239.348,0.079863519841606,-0.079863519841606
239.349,0.09476804465760214,-0.09476804465760214
239.35,0.09697951701368335,-0.09697951701368335
239.351,0.0844300051764657,-0.0844300051764657
239.352,0.05782955945289736,-0.05782955945289736
239.353,0.02099661199063363,-0.02099661199063363
239.354,0.019649572181236863,0.019649572181236863
239.355,0.056399189307595465,0.056399189307595465
239.356,0.0820703387344397,0.0820703387344397
239.357,0.09185041591538434,0.09185041591538434
239.358,0.08462265076787645,0.08462265076787645
239.359,0.06335385742810229,0.06335385742810229
239.36,0.034375126197091266,0.034375126197091266
239.361,0.005711659112571432,0.005711659112571432
239.362,0.015088531216154166,-0.015088531216154166
239.363,0.02300963723479721,-0.02300963723479721
239.364,0.01690593284163,-0.01690593284163
239.365,0.00027614380179663556,0.00027614380179663556
239.366,0.02246074810037313,0.02246074810037313
239.367,0.042302904763670046,0.042302904763670046
239.368,0.05338727434220658,0.05338727434220658
239.369,0.052105621602740904,0.052105621602740904
239.37,0.038656141427901414,0.038656141427901414
239.371,0.016882458124171995,0.016882458124171995
239.372,0.006970410958772044,-0.006970410958772044
239.373,0.02617545976917446,-0.02617545976917446
239.374,0.035513585408056825,-0.035513585408056825
239.375,0.032725575776661686,-0.032725575776661686
239.376,0.019005626140338072,-0.019005626140338072
239.377,0.0015689729379444461,0.0015689729379444461
239.378,0.023438777203187433,0.023438777203187433
239.379,0.04130831076449293,0.04130831076449293
239.38,0.05166530061319641,0.05166530061319641
239.381,0.053603440837632466,0.053603440837632466
239.382,0.048731552640611575,0.048731552640611575
239.383,0.04026668098667696,0.04026668098667696
239.384,0.03167912074829582,0.03167912074829582
239.385,0.025394073115712512,0.025394073115712512
239.386,0.022014495592063144,0.022014495592063144
239.387,0.020329701837947356,0.020329701837947356
239.388,0.018084961608461514,0.018084961608461514
239.389,0.01320872057609157,0.01320872057609157
239.39,0.005021828496848846,0.005021828496848846
239.391,0.005053077910989523,-0.005053077910989523
239.392,0.013600325549082526,-0.013600325549082526
239.393,0.016176069343790123,-0.016176069343790123
239.394,0.00886261144884859,-0.00886261144884859
239.395,0.01008193966960258,0.01008193966960258
239.396,0.03904543396245708,0.03904543396245708
239.397,0.07281084820074502,0.07281084820074502
239.398,0.10342430982006978,0.10342430982006978
239.399,0.12203397181823372,0.12203397181823372
239.4,0.12124079616678074,0.12124079616678074
239.401,0.09731605165262058,0.09731605165262058
239.402,0.05163832766479115,0.05163832766479115
239.403,0.009109796671202375,-0.009109796671202375
239.404,0.07411925004082898,-0.07411925004082898
239.405,0.1307663499605496,-0.1307663499605496
239.406,0.1675029744933627,-0.1675029744933627
239.407,0.17659841133005405,-0.17659841133005405
239.408,0.1560290209253571,-0.1560290209253571
239.409,0.11002193977917318,-0.11002193977917318
239.41,0.04809992717118727,-0.04809992717118727
239.411,0.017144533991724886,0.017144533991724886
239.412,0.07299633108631709,0.07299633108631709
239.413,0.1095568640460709,0.1095568640460709
239.414,0.12195239997724983,0.12195239997724983
239.415,0.11127679265811574,0.11127679265811574
239.416,0.08405347355125703,0.08405347355125703
239.417,0.0503714287691881,0.0503714287691881
239.418,0.021177337499716398,0.021177337499716398
239.419,0.005410919495821842,0.005410919495821842
239.42,0.007703828777805288,0.007703828777805288
239.421,0.02721747284457221,0.02721747284457221
239.422,0.05790846733484667,0.05790846733484667
239.423,0.09015260753103793,0.09015260753103793
239.424,0.1133168842803165,0.1133168842803165
239.425,0.11862810935691281,0.11862810935691281
239.426,0.10160633439851807,0.10160633439851807
239.427,0.06343319868644981,0.06343319868644981
239.428,0.01088697217872614,0.01088697217872614
239.429,0.04516523672810058,-0.04516523672810058
239.43,0.09236018252464384,-0.09236018252464384
239.431,0.11987486397142666,-0.11987486397142666
239.432,0.121140487007948,-0.121140487007948
239.433,0.09553748144878627,-0.09553748144878627
239.434,0.04862595120481594,-0.04862595120481594
239.435,0.009162665797263214,0.009162665797263214
239.436,0.06504962598550623,0.06504962598550623
239.437,0.10700672287074875,0.10700672287074875
239.438,0.1266325351219848,0.1266325351219848
239.439,0.12106797161391136,0.12106797161391136
239.44,0.09346678856735835,0.09346678856735835
239.441,0.05192379120028345,0.05192379120028345
239.442,0.007178191571185932,0.007178191571185932
239.443,0.0302625840629015,-0.0302625840629015
239.444,0.05278500112175122,-0.05278500112175122
239.445,0.05739821223419572,-0.05739821223419572
239.446,0.046087666822866025,-0.046087666822866025
239.447,0.02475314588741029,-0.02475314588741029
239.448,0.0011003337052545303,-0.0011003337052545303
239.449,0.017847498662425076,0.017847498662425076
239.45,0.027854082653439027,0.027854082653439027
239.451,0.028560376419094924,0.028560376419094924
239.452,0.023253455678808432,0.023253455678808432
239.453,0.01742374232124355,0.01742374232124355
239.454,0.016602372062057835,0.016602372062057835
239.455,0.0241994135429644,0.0241994135429644
239.456,0.04006622806220794,0.04006622806220794
239.457,0.06027764001478575,0.06027764001478575
239.458,0.07823989974755263,0.07823989974755263
239.459,0.08679911180139999,0.08679911180139999
239.46,0.08068807227679065,0.08068807227679065
239.461,0.058516769191002904,0.058516769191002904
239.462,0.023630658404277582,0.023630658404277582
239.463,0.01649982056312993,-0.01649982056312993
239.464,0.05223703190349982,-0.05223703190349982
239.465,0.07452540391895446,-0.07452540391895446
239.466,0.07760422886224883,-0.07760422886224883
239.467,0.06083721614883297,-0.06083721614883297
239.468,0.029059616467883354,-0.029059616467883354
239.469,0.008712980498838396,0.008712980498838396
239.47,0.041865553669516276,0.041865553669516276
239.471,0.061296978832869886,0.061296978832869886
239.472,0.06212620190978102,0.06212620190978102
239.473,0.045157810140994625,0.045157810140994625
239.474,0.016640616088948734,0.016640616088948734
239.475,0.013629205522260768,-0.013629205522260768
239.476,0.03529942882937631,-0.03529942882937631
239.477,0.04064455991881333,-0.04064455991881333
239.478,0.026971056112247815,-0.026971056112247815
239.479,0.00249125610245704,0.00249125610245704
239.48,0.03948683786754059,0.03948683786754059
239.481,0.07315004829879856,0.07315004829879856
239.482,0.09320578788547151,0.09320578788547151
239.483,0.09298858860388592,0.09298858860388592
239.484,0.07137950005275284,0.07137950005275284
239.485,0.033102407847562576,0.033102407847562576
239.486,0.012670199084579448,-0.012670199084579448
239.487,0.054939114413184664,-0.054939114413184664
239.488,0.08390849228220965,-0.08390849228220965
239.489,0.09351285806265364,-0.09351285806265364
239.49,0.08272457925638954,-0.08272457925638954
239.491,0.0553361211135448,-0.0553361211135448
239.492,0.01839974596563909,-0.01839974596563909
239.493,0.020086694934170035,0.020086694934170035
239.494,0.053463928274271266,0.053463928274271266
239.495,0.07795189722993068,0.07795189722993068
239.496,0.09303472910906052,0.09303472910906052
239.497,0.1006990392909779,0.1006990392909779
239.498,0.10392751424058067,0.10392751424058067
239.499,0.10508067614639383,0.10508067614639383
239.5,0.10479478146238708,0.10479478146238708
239.501,0.1017931969814494,0.1017931969814494
239.502,0.09364167950288182,0.09364167950288182
239.503,0.07811062827928739,0.07811062827928739
239.504,0.05457339487453394,0.05457339487453394
239.505,0.024853352865070732,0.024853352865070732
239.506,0.006861475039091736,-0.006861475039091736
239.507,0.03506486712762791,-0.03506486712762791
239.508,0.05459909674640284,-0.05459909674640284
239.509,0.062351251018936904,-0.062351251018936904
239.51,0.05835270510075996,-0.05835270510075996
239.511,0.045850755532480414,-0.045850755532480414
239.512,0.03028147310942919,-0.03028147310942919
239.513,0.017469540363341474,-0.017469540363341474
239.514,0.011670345847215158,-0.011670345847215158
239.515,0.014143905366002518,-0.014143905366002518
239.516,0.022776841946455906,-0.022776841946455906
239.517,0.032904141863581815,-0.032904141863581815
239.518,0.039053665272704374,-0.039053665272704374
239.519,0.03699675522494372,-0.03699675522494372
239.52,0.025362904133527375,-0.025362904133527375
239.521,0.006216564736065799,-0.006216564736065799
239.522,0.01564310216862741,0.01564310216862741
239.523,0.03443770784424416,0.03443770784424416
239.524,0.045602404729975676,0.045602404729975676
239.525,0.04761188374914349,0.04761188374914349
239.526,0.04273392941529153,0.04273392941529153
239.527,0.036363174967944945,0.036363174967944945
239.528,0.03508797817350828,0.03508797817350828
239.529,0.04411316592351455,0.04411316592351455
239.53,0.06493302599079187,0.06493302599079187
239.531,0.09411832288956212,0.09411832288956212
239.532,0.12374621735793867,0.12374621735793867
239.533,0.1434663338264388,0.1434663338264388
239.534,0.14363608390711646,0.14363608390711646
239.535,0.11856381365746405,0.11856381365746405
239.536,0.0688085538861627,0.0688085538861627
239.537,0.0017397999964710031,0.0017397999964710031
239.538,0.06991529290673326,-0.06991529290673326
239.539,0.13118304910681544,-0.13118304910681544
239.54,0.16873167967079827,-0.16873167967079827
239.541,0.1744011086943692,-0.1744011086943692
239.542,0.1473392140090879,-0.1473392140090879
239.543,0.09413335838618009,-0.09413335838618009
239.544,0.026935414771021904,-0.026935414771021904
239.545,0.03982305927997909,0.03982305927997909
239.546,0.0931308677865037,0.0931308677865037
239.547,0.12444083251840943,0.12444083251840943
239.548,0.1312426497697754,0.1312426497697754
239.549,0.1168461802071763,0.1168461802071763
239.55,0.08862072107356433,0.08862072107356433
239.551,0.0553838073328865,0.0553838073328865
