Czas,AbsSum,Sum
75.477,0.22314255762465374,-0.22314255762465374
75.47800000000001,0.2125640464681804,-0.2125640464681804
75.47900000000001,0.18459578750004413,-0.18459578750004413
75.48,0.14350115139078035,-0.14350115139078035
75.48100000000001,0.09551290461287631,-0.09551290461287631
75.482,0.0475389099094804,-0.0475389099094804
75.483,0.005796894152524934,-0.005796894152524934
75.48400000000001,0.025310466011444932,0.025310466011444932
75.485,0.04383906755166733,0.04383906755166733
75.486,0.05035174974107148,0.05035174974107148
75.48700000000001,0.04740831991849048,0.04740831991849048
75.488,0.03866844188883034,0.03866844188883034
75.489,0.027862391755683058,0.027862391755683058
75.49000000000001,0.017897796924903453,0.017897796924903453
75.491,0.010312452280559103,0.010312452280559103
75.492,0.005173183111304214,0.005173183111304214
75.49300000000001,0.0013913273155752304,0.0013913273155752304
75.494,0.0026861991770891214,-0.0026861991770891214
75.495,0.008614514223572844,-0.008614514223572844
75.49600000000001,0.017320722231128793,-0.017320722231128793
75.497,0.028849304479589888,-0.028849304479589888
75.498,0.042426996978664144,-0.042426996978664144
75.49900000000001,0.05678590844100673,-0.05678590844100673
75.5,0.07060500964888983,-0.07060500964888983
75.501,0.08290170424140753,-0.08290170424140753
75.50200000000001,0.09323402570273098,-0.09323402570273098
75.503,0.10164881388456737,-0.10164881388456737
75.504,0.10840625668295456,-0.10840625668295456
75.50500000000001,0.11359458643031928,-0.11359458643031928
75.506,0.11679275274074974,-0.11679275274074974
75.507,0.11692874902639694,-0.11692874902639694
75.50800000000001,0.11241974846659242,-0.11241974846659242
75.509,0.10158675666562023,-0.10158675666562023
75.51,0.08324096859155661,-0.08324096859155661
75.51100000000001,0.05727216982810801,-0.05727216982810801
75.512,0.0250532318361687,-0.0250532318361687
75.513,0.01048482348424895,0.01048482348424895
75.51400000000001,0.045166974344457156,0.045166974344457156
75.515,0.07423153204853361,0.07423153204853361
75.516,0.09318979577840247,0.09318979577840247
75.51700000000001,0.09869056402264875,0.09869056402264875
75.518,0.08918886921299185,0.08918886921299185
75.519,0.06526761813320148,0.06526761813320148
75.52000000000001,0.029546596613568177,0.029546596613568177
75.521,0.013789802395158701,-0.013789802395158701
75.522,0.05973305503401405,-0.05973305503401405
75.52300000000001,0.10329884870922024,-0.10329884870922024
75.524,0.14031727187332554,-0.14031727187332554
75.525,0.16802915913868743,-0.16802915913868743
75.52600000000001,0.18540467387601567,-0.18540467387601567
75.527,0.19315628674323815,-0.19315628674323815
75.528,0.19346539954170383,-0.19346539954170383
75.52900000000001,0.18947454639379036,-0.18947454639379036
75.53,0.18461792718734948,-0.18461792718734948
75.531,0.18187888746577896,-0.18187888746577896
75.53200000000001,0.1830794819983831,-0.1830794819983831
75.533,0.1883238488885819,-0.1883238488885819
75.534,0.1957251578264162,-0.1957251578264162
75.53500000000001,0.20153138646345137,-0.20153138646345137
75.536,0.20071527194289718,-0.20071527194289718
75.537,0.18800476519268916,-0.18800476519268916
75.53800000000001,0.15921365422631084,-0.15921365422631084
75.539,0.11261531947857384,-0.11261531947857384
75.54,0.0500238319698697,-0.0500238319698697
75.54100000000001,0.02275734796116957,0.02275734796116957
75.542,0.0963662498207265,0.0963662498207265
75.543,0.1592559033732348,0.1592559033732348
75.54400000000001,0.19983378211425706,0.19983378211425706
75.545,0.20895620316463814,0.20895620316463814
75.546,0.18220858706907994,0.18220858706907994
75.54700000000001,0.12137935667836253,0.12137935667836253
75.548,0.03467334698891955,0.03467334698891955
75.549,0.06450943089145089,-0.06450943089145089
75.55000000000001,0.16004663893970394,-0.16004663893970394
75.551,0.23629569431224717,-0.23629569431224717
75.552,0.2812803382638779,-0.2812803382638779
75.55300000000001,0.2890845038748665,-0.2890845038748665
75.554,0.2608557650640304,-0.2608557650640304
75.555,0.2041723416394723,-0.2041723416394723
75.55600000000001,0.1309580914427042,-0.1309580914427042
75.557,0.05451732105957696,-0.05451732105957696
75.558,0.013508645529390684,0.013508645529390684
75.55900000000001,0.06545942092986934,0.06545942092986934
75.56,0.09867485312290603,0.09867485312290603
75.561,0.11503853295065158,0.11503853295065158
75.56200000000001,0.11931077899245834,0.11931077899245834
75.563,0.11686952224077762,0.11686952224077762
75.56400000000001,0.11163168007470237,0.11163168007470237
75.56500000000001,0.10483437986136757,0.10483437986136757
75.566,0.09504449639306989,0.09504449639306989
75.56700000000001,0.07933636407729794,0.07933636407729794
75.56800000000001,0.05517056011772925,0.05517056011772925
75.569,0.022255646380846095,0.022255646380846095
75.57000000000001,0.01633486621185365,-0.01633486621185365
75.57100000000001,0.05427870225299081,-0.05427870225299081
75.572,0.08342853183127763,-0.08342853183127763
75.57300000000001,0.09616264283725473,-0.09616264283725473
75.57400000000001,0.08793653859941575,-0.08793653859941575
75.575,0.059191533043287836,-0.059191533043287836
75.57600000000001,0.015932483890704785,-0.015932483890704785
75.57700000000001,0.03132524930231195,0.03132524930231195
75.578,0.0700383112296572,0.0700383112296572
75.57900000000001,0.08888946192332225,0.08888946192332225
75.58000000000001,0.08089028603694204,0.08089028603694204
75.581,0.04542364076301775,0.04542364076301775
75.58200000000001,0.011389501689078707,-0.011389501689078707
75.58300000000001,0.07812975627687913,-0.07812975627687913
75.584,0.14093029941786983,-0.14093029941786983
75.58500000000001,0.18693790852815706,-0.18693790852815706
75.58600000000001,0.20742056496397454,-0.20742056496397454
75.587,0.19968515376072293,-0.19968515376072293
75.58800000000001,0.16733965946920748,-0.16733965946920748
75.58900000000001,0.11892837561520708,-0.11892837561520708
75.59,0.06543048081814629,-0.06543048081814629
75.59100000000001,0.017402015054786335,-0.017402015054786335
75.59200000000001,0.0174211045909487,0.0174211045909487
75.593,0.03545233220848987,0.03545233220848987
75.59400000000001,0.0372864100118413,0.0372864100118413
75.59500000000001,0.02661674727383434,0.02661674727383434
75.596,0.0085346672038904,0.0085346672038904
75.59700000000001,0.01217098333301081,-0.01217098333301081
75.59800000000001,0.032187529445199425,-0.032187529445199425
75.599,0.05005459702906667,-0.05005459702906667
75.60000000000001,0.06578767033041033,-0.06578767033041033
75.60100000000001,0.08005426242711933,-0.08005426242711933
75.602,0.09332470124752135,-0.09332470124752135
75.60300000000001,0.10536338890994368,-0.10536338890994368
75.60400000000001,0.11523342469949682,-0.11523342469949682
75.605,0.12174306557958126,-0.12174306557958126
75.60600000000001,0.1240672384692939,-0.1240672384692939
75.607,0.12220838725636596,-0.12220838725636596
75.608,0.11704307293849125,-0.11704307293849125
75.60900000000001,0.1098975420594075,-0.1098975420594075
75.61,0.10182404036596615,-0.10182404036596615
75.611,0.09291303395867911,-0.09291303395867911
75.61200000000001,0.08200179351572179,-0.08200179351572179
75.613,0.06700748547789426,-0.06700748547789426
75.614,0.04586635364942526,-0.04586635364942526
75.61500000000001,0.017791590454102835,-0.017791590454102835
75.616,0.015622034949634767,0.015622034949634767
75.617,0.04993730380891326,0.04993730380891326
75.61800000000001,0.0783769924357498,0.0783769924357498
75.619,0.09329536658367443,0.09329536658367443
75.62,0.08827139624822955,0.08827139624822955
75.62100000000001,0.060209862803639824,0.060209862803639824
75.622,0.010759935843864366,0.010759935843864366
75.623,0.053483565530482835,-0.053483565530482835
75.62400000000001,0.12218025639123742,-0.12218025639123742
75.625,0.18359129310871802,-0.18359129310871802
75.626,0.2274369089598267,-0.2274369089598267
75.62700000000001,0.24743314164922725,-0.24743314164922725
75.628,0.24274313109473333,-0.24274313109473333
75.629,0.2178946052486057,-0.2178946052486057
75.63000000000001,0.18118527666369866,-0.18118527666369866
75.631,0.14207186521910475,-0.14207186521910475
75.632,0.10836122240641144,-0.10836122240641144
75.63300000000001,0.08408516602778182,-0.08408516602778182
75.634,0.06871954936134006,-0.06871954936134006
75.635,0.057971504437022925,-0.057971504437022925
75.63600000000001,0.045847145607672446,-0.045847145607672446
75.637,0.027291706230060497,-0.027291706230060497
75.638,0.0005027934225535491,-0.0005027934225535491
75.63900000000001,0.0318812860453066,0.0318812860453066
75.64,0.06315399156438439,0.06315399156438439
75.641,0.0844030317515787,0.0844030317515787
75.64200000000001,0.08730412834830736,0.08730412834830736
75.643,0.06697465001003966,0.06697465001003966
75.644,0.02397785309709377,0.02397785309709377
75.64500000000001,0.03518349493880246,-0.03518349493880246
75.646,0.0992910723201601,-0.0992910723201601
75.647,0.15504240000620906,-0.15504240000620906
75.64800000000001,0.19035984780392068,-0.19035984780392068
75.649,0.19745130396075572,-0.19745130396075572
75.65,0.17477762259463492,-0.17477762259463492
75.65100000000001,0.12740716343090408,-0.12740716343090408
75.652,0.06570129988357343,-0.06570129988357343
75.653,0.0027342900037501394,-0.0027342900037501394
75.65400000000001,0.04882696935504249,0.04882696935504249
75.655,0.07955721376395264,0.07955721376395264
75.656,0.08512882684332301,0.08512882684332301
75.65700000000001,0.06680864872855996,0.06680864872855996
75.658,0.03060004066336064,0.03060004066336064
75.659,0.01462038161408219,-0.01462038161408219
75.66000000000001,0.05940773789866027,-0.05940773789866027
75.661,0.09589055376015276,-0.09589055376015276
75.662,0.11926291167884384,-0.11926291167884384
75.66300000000001,0.1283645438992016,-0.1283645438992016
75.664,0.12533955203767078,-0.12533955203767078
75.665,0.11457782807364347,-0.11457782807364347
75.66600000000001,0.10127246692530023,-0.10127246692530023
75.667,0.08995957941582644,-0.08995957941582644
75.668,0.08335955622872038,-0.08335955622872038
75.66900000000001,0.08174124095899771,-0.08174124095899771
75.67,0.08291313364380581,-0.08291313364380581
75.671,0.08282968381874423,-0.08282968381874423
75.67200000000001,0.07669560505089124,-0.07669560505089124
75.673,0.060360386487446016,-0.060360386487446016
75.674,0.03172403838369631,-0.03172403838369631
75.67500000000001,0.008163743496269804,0.008163743496269804
75.676,0.054616091809142286,0.054616091809142286
75.677,0.09965599260584512,0.09965599260584512
75.67800000000001,0.13326411728724752,0.13326411728724752
75.679,0.14538174472058563,0.14538174472058563
75.68,0.1283006088639711,0.1283006088639711
75.68100000000001,0.07890170992713452,0.07890170992713452
75.682,0.00015093953690281658,0.00015093953690281658
75.683,0.09863908672281774,-0.09863908672281774
75.68400000000001,0.20301608155734607,-0.20301608155734607
75.685,0.2959406338748829,-0.2959406338748829
75.686,0.36119075283865454,-0.36119075283865454
75.68700000000001,0.3868505958368397,-0.3868505958368397
75.688,0.36802770774638016,-0.36802770774638016
75.68900000000001,0.30808462817953697,-0.30808462817953697
75.69000000000001,0.21801867989925483,-0.21801867989925483
75.691,0.1140911373616339,-0.1140911373616339
75.69200000000001,0.014265558692000635,-0.014265558692000635
75.69300000000001,0.06566709495095302,0.06566709495095302
75.694,0.11531681206091182,0.11531681206091182
75.69500000000001,0.13149760709991254,0.13149760709991254
75.69600000000001,0.11822024618852622,0.11822024618852622
75.697,0.08498180774488473,0.08498180774488473
75.69800000000001,0.04390682427737058,0.04390682427737058
75.69900000000001,0.006569148772672451,0.006569148772672451
75.7,0.018649284761342866,-0.018649284761342866
75.70100000000001,0.028024790319007398,-0.028024790319007398
75.70200000000001,0.02253230833260622,-0.02253230833260622
75.703,0.006639759545522761,-0.006639759545522761
75.70400000000001,0.013621517912694614,0.013621517912694614
75.70500000000001,0.03263345869292733,0.03263345869292733
75.706,0.04660595599731954,0.04660595599731954
75.70700000000001,0.05407311274307025,0.05407311274307025
75.70800000000001,0.055458285884199654,0.055458285884199654
75.709,0.052012036750338275,0.052012036750338275
75.71000000000001,0.044615269003281055,0.044615269003281055
75.71100000000001,0.03294560946608205,0.03294560946608205
75.712,0.015338131997743476,0.015338131997743476
75.71300000000001,0.010601714119640837,-0.010601714119640837
75.71400000000001,0.046856458294247005,-0.046856458294247005
75.715,0.09374359574270685,-0.09374359574270685
75.71600000000001,0.14901356297030433,-0.14901356297030433
75.71700000000001,0.2076485638486698,-0.2076485638486698
75.718,0.26248608582429755,-0.26248608582429755
75.71900000000001,0.3055302889638848,-0.3055302889638848
75.72000000000001,0.3296047316411068,-0.3296047316411068
75.721,0.3299047260388793,-0.3299047260388793
75.72200000000001,0.30504932028473797,-0.30504932028473797
75.72300000000001,0.25738841914649135,-0.25738841914649135
75.724,0.19253282531040228,-0.19253282531040228
75.72500000000001,0.11827476392635694,-0.11827476392635694
75.72600000000001,0.04319619760344129,-0.04319619760344129
75.727,0.024706355691700432,0.024706355691700432
75.72800000000001,0.07911209006118058,0.07911209006118058
75.72900000000001,0.11603029160015654,0.11603029160015654
75.73,0.1339958352164039,0.1339958352164039
75.73100000000001,0.13388078675262505,0.13388078675262505
75.732,0.11844401145111716,0.11844401145111716
75.733,0.09173905412359118,0.09173905412359118
75.73400000000001,0.05847082746475585,0.05847082746475585
75.735,0.02336003714958923,0.02336003714958923
75.736,0.009440259079595892,-0.009440259079595892
75.73700000000001,0.03682557479458115,-0.03682557479458115
75.738,0.0570537865043671,-0.0570537865043671
75.739,0.06982513131914181,-0.06982513131914181
75.74000000000001,0.07608879214645314,-0.07608879214645314
75.741,0.07759561897779443,-0.07759561897779443
75.742,0.07629282554851924,-0.07629282554851924
75.74300000000001,0.07372121058101144,-0.07372121058101144
75.744,0.07059761372179474,-0.07059761372179474
75.745,0.06672570128484978,-0.06672570128484978
75.74600000000001,0.061279919372137504,-0.061279919372137504
75.747,0.05337834601613922,-0.05337834601613922
75.748,0.042744843317643055,-0.042744843317643055
75.74900000000001,0.03020508080864681,-0.03020508080864681
75.75,0.01779351010032748,-0.01779351010032748
75.751,0.00836790714515312,-0.00836790714515312
75.75200000000001,0.004800337025900214,-0.004800337025900214
75.753,0.0089805593968173,-0.0089805593968173
75.754,0.02096811172642965,-0.02096811172642965
75.75500000000001,0.03861921592629913,-0.03861921592629913
75.756,0.057886965350977704,-0.057886965350977704
75.757,0.07378240691398918,-0.07378240691398918
75.75800000000001,0.08175712511018152,-0.08175712511018152
75.759,0.07910267224674328,-0.07910267224674328
75.76,0.06592054854865592,-0.06592054854865592
75.76100000000001,0.04532139260749679,-0.04532139260749679
75.762,0.02273732568218656,-0.02273732568218656
75.763,0.004507980802377243,-0.004507980802377243
75.76400000000001,0.0038613147923765023,0.0038613147923765023
75.765,0.0007477559952421275,-0.0007477559952421275
75.766,0.018175375245163328,-0.018175375245163328
75.76700000000001,0.045028934632235895,-0.045028934632235895
75.768,0.07565064254695097,-0.07565064254695097
75.769,0.10370613619976621,-0.10370613619976621
75.77000000000001,0.12390225243250685,-0.12390225243250685
75.771,0.13331114897538676,-0.13331114897538676
75.772,0.13191663599133596,-0.13191663599133596
75.77300000000001,0.12225978517378144,-0.12225978517378144
75.774,0.1083561406663831,-0.1083561406663831
75.775,0.09428641195952148,-0.09428641195952148
75.77600000000001,0.08294964269770166,-0.08294964269770166
75.777,0.07538529975042185,-0.07538529975042185
75.778,0.07085024047960664,-0.07085024047960664
75.77900000000001,0.06755767227186815,-0.06755767227186815
75.78,0.06374755308579338,-0.06374755308579338
75.781,0.058645849914913506,-0.058645849914913506
75.78200000000001,0.05292313584394115,-0.05292313584394115
75.783,0.04846143505684852,-0.04846143505684852
75.784,0.0475097636672851,-0.0475097636672851
75.78500000000001,0.05155407139775792,-0.05155407139775792
75.786,0.06035506525638479,-0.06035506525638479
75.787,0.07156755642147616,-0.07156755642147616
75.78800000000001,0.0811571812119336,-0.0811571812119336
75.789,0.08454182495155382,-0.08454182495155382
75.79,0.07810782554244688,-0.07810782554244688
75.79100000000001,0.06058624794092926,-0.06058624794092926
75.792,0.033786519818701066,-0.033786519818701066
75.793,0.002377087918658982,-0.002377087918658982
75.79400000000001,0.027284669326980815,0.027284669326980815
75.795,0.04894287418511589,0.04894287418511589
75.796,0.05829355072681053,0.05829355072681053
75.79700000000001,0.05428641528772671,0.05428641528772671
75.798,0.039426657151328426,0.039426657151328426
75.799,0.01894173320019754,0.01894173320019754
75.80000000000001,0.0009480327568015534,-0.0009480327568015534
75.801,0.01510943506800877,-0.01510943506800877
75.802,0.021246505393662685,-0.021246505393662685
75.80300000000001,0.020727362266565796,-0.020727362266565796
75.804,0.018180252733984936,-0.018180252733984936
75.805,0.01994632481272962,-0.01994632481272962
75.80600000000001,0.031853606188701034,-0.031853606188701034
75.807,0.05701204535925375,-0.05701204535925375
75.808,0.09434453136080612,-0.09434453136080612
75.80900000000001,0.1383556097898614,-0.1383556097898614
75.81,0.18026396569112346,-0.18026396569112346
75.811,0.21020491810381137,-0.21020491810381137
75.81200000000001,0.21987751112866893,-0.21987751112866893
75.813,0.20487096760951706,-0.20487096760951706
75.81400000000001,0.16599927561317374,-0.16599927561317374
75.81500000000001,0.10926819524908571,-0.10926819524908571
75.816,0.04450104832215074,-0.04450104832215074
75.81700000000001,0.016967670126741385,0.016967670126741385
75.81800000000001,0.06487460481637353,0.06487460481637353
75.819,0.09218737071474559,0.09218737071474559
75.82000000000001,0.0963090981655157,0.0963090981655157
75.82100000000001,0.07910592118156723,0.07910592118156723
75.822,0.04588756398869043,0.04588756398869043
75.82300000000001,0.003752806536348796,0.003752806536348796
75.82400000000001,0.04015883655722707,-0.04015883655722707
75.825,0.08001801189004887,-0.08001801189004887
75.82600000000001,0.11196530086975276,-0.11196530086975276
75.82700000000001,0.13405322587684743,-0.13405322587684743
75.828,0.14568565155284752,-0.14568565155284752
75.82900000000001,0.14690728966623556,-0.14690728966623556
75.83000000000001,0.13789160567775993,-0.13789160567775993
75.831,0.11884284928079158,-0.11884284928079158
75.83200000000001,0.09032456710908143,-0.09032456710908143
75.83300000000001,0.053831413352178115,-0.053831413352178115
75.834,0.012304757645055897,-0.012304757645055897
75.83500000000001,0.029704763675032497,0.029704763675032497
75.83600000000001,0.06640719652480764,0.06640719652480764
75.837,0.09166757532233794,0.09166757532233794
75.83800000000001,0.10022630183127856,0.10022630183127856
75.83900000000001,0.08892080218253762,0.08892080218253762
75.84,0.05756279629484373,0.05756279629484373
75.84100000000001,0.009214872756287074,0.009214872756287074
75.84200000000001,0.050222807506447587,-0.050222807506447587
75.843,0.11301637912472473,-0.11301637912472473
75.84400000000001,0.17094346073792743,-0.17094346073792743
75.84500000000001,0.2166619472653074,-0.2166619472653074
75.846,0.24481067579025872,-0.24481067579025872
75.84700000000001,0.2526519420029847,-0.2526519420029847
75.84800000000001,0.2402023145784168,-0.2402023145784168
75.849,0.20992268639700262,-0.20992268639700262
75.85000000000001,0.16611542881594088,-0.16611542881594088
75.85100000000001,0.11419265575705018,-0.11419265575705018
75.852,0.059945858130217244,-0.059945858130217244
75.85300000000001,0.008890945238996695,-0.008890945238996695
75.85400000000001,0.0342853904940863,0.0342853904940863
75.855,0.06617172096214752,0.06617172096214752
75.85600000000001,0.08495312492829843,0.08495312492829843
75.857,0.09056451487123662,0.09056451487123662
75.858,0.08461713492106537,0.08461713492106537
75.85900000000001,0.07005530122843284,0.07005530122843284
75.86,0.050555085864336435,0.050555085864336435
75.861,0.029756690172035416,0.029756690172035416
75.86200000000001,0.01049795057991676,0.01049795057991676
75.863,0.005747175299236074,-0.005747175299236074
75.864,0.019049443120057075,-0.019049443120057075
75.86500000000001,0.0307446348797632,-0.0307446348797632
75.866,0.04275347588694434,-0.04275347588694434
75.867,0.056700706060315964,-0.056700706060315964
75.86800000000001,0.07312074256449841,-0.07312074256449841
75.869,0.09103514659923873,-0.09103514659923873
75.87,0.10808458881133454,-0.10808458881133454
75.87100000000001,0.12122027389314949,-0.12122027389314949
75.872,0.127761643423554,-0.127761643423554
75.873,0.12647628354151697,-0.12647628354151697
75.87400000000001,0.11829188212238917,-0.11829188212238917
75.875,0.10633508417227666,-0.10633508417227666
75.876,0.09519139581641778,-0.09519139581641778
75.87700000000001,0.08953643005121181,-0.08953643005121181
75.878,0.09252025306485023,-0.09252025306485023
75.879,0.10441370644446979,-0.10441370644446979
75.88000000000001,0.12199737929344856,-0.12199737929344856
75.881,0.1389868778269674,-0.1389868778269674
75.882,0.1474901309101888,-0.1474901309101888
75.88300000000001,0.1401703362543607,-0.1401703362543607
75.884,0.11254126446770452,-0.11254126446770452
75.885,0.06473121882804145,-0.06473121882804145
75.88600000000001,0.00215464757802053,-0.00215464757802053
75.887,0.06519472410580773,0.06519472410580773
75.888,0.12474219775526585,0.12474219775526585
75.88900000000001,0.16416891622124763,0.16416891622124763
75.89,0.17438180397716718,0.17438180397716718
75.891,0.15184719463974594,0.15184719463974594
75.89200000000001,0.09966455354645198,0.09966455354645198
75.893,0.027074112851008136,0.027074112851008136
75.894,0.05250554771208982,-0.05250554771208982
75.89500000000001,0.12443669290417447,-0.12443669290417447
75.896,0.17609410302952,-0.17609410302952
75.897,0.19958473918603248,-0.19958473918603248
75.89800000000001,0.19331270288732183,-0.19331270288732183
75.899,0.16204728672210433,-0.16204728672210433
75.9,0.11552768336741426,-0.11552768336741426
75.90100000000001,0.0659898993384137,-0.0659898993384137
75.902,0.025242181335549896,-0.025242181335549896
75.903,0.0019912246776068177,-0.0019912246776068177
75.90400000000001,2.4292239994672116e-05,-2.4292239994672116e-05
75.905,0.01761761406454576,-0.01761761406454576
75.906,0.048235569595490135,-0.048235569595490135
75.90700000000001,0.08228623458948736,-0.08228623458948736
75.908,0.10947619138801445,-0.10947619138801445
75.909,0.12120573921405342,-0.12120573921405342
75.91000000000001,0.11247696372432603,-0.11247696372432603
75.911,0.08293205297799777,-0.08293205297799777
75.912,0.03685485639115382,-0.03685485639115382
75.91300000000001,0.0177989125566389,0.0177989125566389
75.914,0.07107984259303479,0.07107984259303479
75.915,0.11304401435105782,0.11304401435105782
75.91600000000001,0.13565331913784662,0.13565331913784662
75.917,0.13421342625777055,0.13421342625777055
75.918,0.10811006057161832,0.10811006057161832
75.91900000000001,0.06076299391589535,0.06076299391589535
75.92,0.0011262215581387958,-0.0011262215581387958
75.921,0.06883423013504142,-0.06883423013504142
75.92200000000001,0.1331172308182872,-0.1331172308182872
75.923,0.18568007777158302,-0.18568007777158302
75.924,0.22038374833462437,-0.22038374833462437
75.92500000000001,0.23403813891868552,-0.23403813891868552
75.926,0.22671210119726193,-0.22671210119726193
75.927,0.20156618488372313,-0.20156618488372313
75.92800000000001,0.16426491546215294,-0.16426491546215294
75.929,0.1220552181459802,-0.1220552181459802
75.93,0.08261548702899801,-0.08261548702899801
75.93100000000001,0.05279836415571093,-0.05279836415571093
75.932,0.03741722712390183,-0.03741722712390183
75.933,0.038258333790071486,-0.038258333790071486
75.93400000000001,0.05352161565217062,-0.05352161565217062
75.935,0.07787941476419902,-0.07787941476419902
75.936,0.10327232998212055,-0.10327232998212055
75.93700000000001,0.12042739516587975,-0.12042739516587975
75.938,0.12090242388898365,-0.12090242388898365
75.93900000000001,0.09927360556667164,-0.09927360556667164
75.94000000000001,0.05495092063100426,-0.05495092063100426
75.941,0.006912760693434938,0.006912760693434938
75.94200000000001,0.07582046767854345,0.07582046767854345
75.94300000000001,0.137759455331661,0.137759455331661
75.944,0.1782071945501329,0.1782071945501329
75.94500000000001,0.18569208872826226,0.18569208872826226
75.94600000000001,0.155031789435508,0.155031789435508
75.947,0.08933270516594116,0.08933270516594116
75.94800000000001,5.641716671789254e-05,5.641716671789254e-05
75.94900000000001,0.09508628473669456,-0.09508628473669456
75.95,0.17607061759716025,-0.17607061759716025
75.95100000000001,0.22542844171292786,-0.22542844171292786
75.95200000000001,0.23281034202272788,-0.23281034202272788
75.953,0.19797165800894323,-0.19797165800894323
75.95400000000001,0.13125682193831711,-0.13125682193831711
75.95500000000001,0.05129401311110737,-0.05129401311110737
75.956,0.019620569407577948,0.019620569407577948
75.95700000000001,0.06129149051041782,0.06129149051041782
75.95800000000001,0.061007260402497154,0.061007260402497154
75.959,0.017045019719665877,0.017045019719665877
75.96000000000001,0.060715464514844664,-0.060715464514844664
75.96100000000001,0.15328929428071503,-0.15328929428071503
75.962,0.23753860344925148,-0.23753860344925148
75.96300000000001,0.29221803641778277,-0.29221803641778277
75.96400000000001,0.3034355428191391,-0.3034355428191391
75.965,0.2680233973163779,-0.2680233973163779
75.96600000000001,0.19393030979769532,-0.19393030979769532
75.96700000000001,0.09762079520227829,-0.09762079520227829
75.968,0.0006632083495026198,0.0006632083495026198
75.96900000000001,0.08232652705269139,0.08232652705269139
75.97000000000001,0.13493461081313107,0.13493461081313107
75.971,0.15456780919695112,0.15456780919695112
75.97200000000001,0.14548762959891115,0.14548762959891115
75.97300000000001,0.11744621067162453,0.11744621067162453
75.974,0.08169178052534454,0.08169178052534454
75.97500000000001,0.04707753059660469,0.04707753059660469
75.97600000000001,0.017563103468668295,0.017563103468668295
75.977,0.008142464883477918,-0.008142464883477918
75.97800000000001,0.03482035750186352,-0.03482035750186352
75.97900000000001,0.0676291337474686,-0.0676291337474686
75.98,0.10886344275916648,-0.10886344275916648
75.98100000000001,0.15583351262757827,-0.15583351262757827
75.982,0.20070301689809888,-0.20070301689809888
75.983,0.23242037147413697,-0.23242037147413697
75.98400000000001,0.24012933925682434,-0.24012933925682434
75.985,0.21690785453978823,-0.21690785453978823
75.986,0.1625439985086039,-0.1625439985086039
75.98700000000001,0.08436277526900526,-0.08436277526900526
75.988,0.004238402888673054,0.004238402888673054
75.989,0.08712508874505853,0.08712508874505853
75.99000000000001,0.1495916256249692,0.1495916256249692
75.991,0.1820500212212841,0.1820500212212841
75.992,0.18210832189591075,0.18210832189591075
75.99300000000001,0.15445550385709272,0.15445550385709272
75.994,0.1087043091783364,0.1087043091783364
75.995,0.05600794261081243,0.05600794261081243
75.99600000000001,0.00563496228219873,0.00563496228219873
75.997,0.03736118280502854,-0.03736118280502854
75.998,0.07267925899750116,-0.07267925899750116
75.99900000000001,0.10348071793524838,-0.10348071793524838
76.0,0.13389394703099367,-0.13389394703099367
76.001,0.16634329601498454,-0.16634329601498454
76.00200000000001,0.19975981757446637,-0.19975981757446637
76.003,0.2293697606152929,-0.2293697606152929
76.004,0.24814583489238118,-0.24814583489238118
76.00500000000001,0.24937081821340212,-0.24937081821340212
76.006,0.2293362258548889,-0.2293362258548889
76.007,0.18913673186737556,-0.18913673186737556
76.00800000000001,0.13484676296921128,-0.13484676296921128
76.009,0.07596031256874625,-0.07596031256874625
76.01,0.022620556862742114,-0.022620556862742114
76.01100000000001,0.017376039349715544,0.017376039349715544
76.012,0.040717724036159586,0.040717724036159586
76.013,0.049076955862381144,0.049076955862381144
76.01400000000001,0.04779026017901722,0.04779026017901722
76.015,0.04321762997542633,0.04321762997542633
76.016,0.03979172100007777,0.03979172100007777
76.01700000000001,0.03791489112776336,0.03791489112776336
76.018,0.03358058539391484,0.03358058539391484
76.019,0.019973572666582617,0.019973572666582617
76.02000000000001,0.009443131089489243,-0.009443131089489243
76.021,0.05744980802140476,-0.05744980802140476
76.022,0.12052840417389388,-0.12052840417389388
76.02300000000001,0.18834766556444116,-0.18834766556444116
76.024,0.24571745629385122,-0.24571745629385122
76.025,0.27660766636233425,-0.27660766636233425
76.02600000000001,0.2690683274183938,-0.2690683274183938
76.027,0.2194845998454269,-0.2194845998454269
76.028,0.13470745556398267,-0.13470745556398267
76.02900000000001,0.031203062669661885,-0.031203062669661885
76.03,0.0687222695453309,0.0687222695453309
76.031,0.14263215347665548,0.14263215347665548
76.03200000000001,0.17397025838925928,0.17397025838925928
76.033,0.15659354995779817,0.15659354995779817
76.034,0.09646709127739839,0.09646709127739839
76.03500000000001,0.010004296348416597,0.010004296348416597
76.036,0.08045544549011097,-0.08045544549011097
76.037,0.15268869047135736,-0.15268869047135736
76.03800000000001,0.19037878981886802,-0.19037878981886802
76.039,0.18700881359214583,-0.18700881359214583
76.04,0.14683379870759283,-0.14683379870759283
76.04100000000001,0.08282432633595704,-0.08282432633595704
76.042,0.012382077133776037,-0.012382077133776037
76.043,0.04775468467245747,0.04775468467245747
76.04400000000001,0.08585325389528564,0.08585325389528564
76.045,0.09756441654800718,0.09756441654800718
76.046,0.08583187549696025,0.08583187549696025
76.04700000000001,0.05864630613377364,0.05864630613377364
76.048,0.025614115989956332,0.025614115989956332
76.049,0.005396486519413601,-0.005396486519413601
76.05000000000001,0.030414764937242822,-0.030414764937242822
76.051,0.049722633512823355,-0.049722633512823355
76.052,0.06647539777066547,-0.06647539777066547
76.05300000000001,0.0842695353000229,-0.0842695353000229
76.054,0.10467988487553925,-0.10467988487553925
76.055,0.12575591400730624,-0.12575591400730624
76.05600000000001,0.14208812209621113,-0.14208812209621113
76.057,0.1464735644271683,-0.1464735644271683
76.058,0.1326282717398619,-0.1326282717398619
76.05900000000001,0.0980094953038605,-0.0980094953038605
76.06,0.045744934913334645,-0.045744934913334645
76.061,0.015067172557589714,0.015067172557589714
76.06200000000001,0.0709185258072722,0.0709185258072722
76.063,0.10696668677423071,0.10696668677423071
76.06400000000001,0.11081383930325006,0.11081383930325006
76.06500000000001,0.07595517877600799,0.07595517877600799
76.066,0.003945524739350947,0.003945524739350947
76.06700000000001,0.09532067430102187,-0.09532067430102187
76.06800000000001,0.20532086221622448,-0.20532086221622448
76.069,0.30620477463098017,-0.30620477463098017
76.07000000000001,0.3789004004107427,-0.3789004004107427
76.07100000000001,0.40907553522941087,-0.40907553522941087
76.072,0.3900745622873275,-0.3900745622873275
76.07300000000001,0.324217010703133,-0.324217010703133
76.07400000000001,0.22222834689182136,-0.22222834689182136
76.075,0.10097939023680569,-0.10097939023680569
76.07600000000001,0.019946701389172095,0.019946701389172095
76.07700000000001,0.1221222276573346,0.1221222276573346
76.078,0.19177532932069585,0.19177532932069585
76.07900000000001,0.222212706146921,0.222212706146921
76.08000000000001,0.2146822008385394,0.2146822008385394
76.081,0.17751701878958093,0.17751701878958093
76.08200000000001,0.1237685988562609,0.1237685988562609
76.08300000000001,0.0678732527418433,0.0678732527418433
76.084,0.022135268503998606,0.022135268503998606
76.08500000000001,0.006118665555811309,-0.006118665555811309
76.08600000000001,0.015989921147081643,-0.015989921147081643
76.087,0.012666420143463308,-0.012666420143463308
76.08800000000001,0.005353010706479644,-0.005353010706479644
76.08900000000001,0.0040210947065923985,-0.0040210947065923985
76.09,0.015895481252387378,-0.015895481252387378
76.09100000000001,0.04273195138113217,-0.04273195138113217
76.09200000000001,0.07977228032986317,-0.07977228032986317
76.093,0.11681284581971152,-0.11681284581971152
76.09400000000001,0.1411987547495701,-0.1411987547495701
76.09500000000001,0.14193598837980115,-0.14193598837980115
76.096,0.11369550149213126,-0.11369550149213126
76.09700000000001,0.059416771210204056,-0.059416771210204056
76.09800000000001,0.00944424914333597,0.00944424914333597
76.099,0.07531096859861997,0.07531096859861997
76.10000000000001,0.11900537279955214,0.11900537279955214
76.10100000000001,0.12516809681137353,0.12516809681137353
76.102,0.0869930021306553,0.0869930021306553
76.10300000000001,0.008801992532785352,0.008801992532785352
76.10400000000001,0.09443412086732128,-0.09443412086732128
76.105,0.20063455329111302,-0.20063455329111302
76.10600000000001,0.286283918340032,-0.286283918340032
76.107,0.33264333048582195,-0.33264333048582195
76.108,0.3306943170631095,-0.3306943170631095
76.10900000000001,0.2833635274517461,-0.2833635274517461
76.11,0.20438243452884775,-0.20438243452884775
76.111,0.11415089885237406,-0.11415089885237406
76.11200000000001,0.0338778435430831,-0.0338778435430831
76.113,0.020221392148321193,0.020221392148321193
76.114,0.04094507059076746,0.04094507059076746
76.11500000000001,0.031211344636114413,0.031211344636114413
76.116,0.0020611468851858827,0.0020611468851858827
76.117,0.031651213779708476,-0.031651213779708476
76.11800000000001,0.05638686080627198,-0.05638686080627198
76.119,0.06417868707703056,-0.06417868707703056
76.12,0.05468225998759757,-0.05468225998759757
76.12100000000001,0.034474275975616586,-0.034474275975616586
76.122,0.013993172877157734,-0.013993172877157734
76.123,0.0032949057242509516,-0.0032949057242509516
76.12400000000001,0.008154022141034889,-0.008154022141034889
76.125,0.02786570472262495,-0.02786570472262495
76.126,0.055471238393497324,-0.055471238393497324
76.12700000000001,0.08026569271969064,-0.08026569271969064
76.128,0.09165520597227628,-0.09165520597227628
76.129,0.08298357596418726,-0.08298357596418726
76.13000000000001,0.05399061208338418,-0.05399061208338418
76.131,0.011071061788317071,-0.011071061788317071
76.132,0.034714949650267,0.034714949650267
76.13300000000001,0.07115123914964583,0.07115123914964583
76.134,0.08866464529546447,0.08866464529546447
76.135,0.08312747877068705,0.08312747877068705
76.13600000000001,0.056772368610536805,0.056772368610536805
76.137,0.017021874653772473,0.017021874653772473
76.138,0.026230028344441658,-0.026230028344441658
76.13900000000001,0.06383643060760125,-0.06383643060760125
76.14,0.08995799362775447,-0.08995799362775447
76.141,0.10312607451634315,-0.10312607451634315
76.14200000000001,0.10558467898682533,-0.10558467898682533
76.143,0.10136105289880515,-0.10136105289880515
76.144,0.09398900413886413,-0.09398900413886413
76.14500000000001,0.08490466217879988,-0.08490466217879988
76.146,0.07321714990261141,-0.07321714990261141
76.147,0.05695094456008121,-0.05695094456008121
76.14800000000001,0.035199760852781314,-0.035199760852781314
76.149,0.010185156059826617,-0.010185156059826617
76.15,0.01183638318182112,0.01183638318182112
76.15100000000001,0.021487148021832825,0.021487148021832825
76.152,0.00897652568351237,0.00897652568351237
76.153,0.0321735953843888,-0.0321735953843888
76.15400000000001,0.10168389015806223,-0.10168389015806223
76.155,0.19072351878002425,-0.19072351878002425
76.156,0.2827015889183697,-0.2827015889183697
76.15700000000001,0.3567574255225594,-0.3567574255225594
76.158,0.39312635605412394,-0.39312635605412394
76.159,0.3788331432215577,-0.3788331432215577
76.16000000000001,0.3119214880125162,-0.3119214880125162
76.161,0.2027778396836043,-0.2027778396836043
76.162,0.07196169732389879,-0.07196169732389879
76.16300000000001,0.05495478119942354,0.05495478119942354
76.164,0.15406615343108743,0.15406615343108743
76.165,0.20934145735268617,0.20934145735268617
76.16600000000001,0.21648547976700638,0.21648547976700638
76.167,0.18330350688977437,0.18330350688977437
76.168,0.12652288850950355,0.12652288850950355
76.16900000000001,0.06614590199724257,0.06614590199724257
76.17,0.019177352151655835,0.019177352151655835
76.171,0.005267155045217575,-0.005267155045217575
76.17200000000001,0.00796217121019216,-0.00796217121019216
76.173,0.0018418921298402058,0.0018418921298402058
76.174,0.010629712558031912,0.010629712558031912
76.17500000000001,0.006092922442288762,0.006092922442288762
76.176,0.018059156063501502,-0.018059156063501502
76.177,0.05960392399479053,-0.05960392399479053
76.17800000000001,0.10845517632875668,-0.10845517632875668
76.179,0.1501937933165831,-0.1501937933165831
76.18,0.17122450331829098,-0.17122450331829098
76.18100000000001,0.16375172403254812,-0.16375172403254812
76.182,0.12883686230423574,-0.12883686230423574
76.183,0.0764603802577285,-0.0764603802577285
76.18400000000001,0.022534533284104263,-0.022534533284104263
76.185,0.016152579166054393,0.016152579166054393
76.186,0.027383406174354086,0.027383406174354086
76.18700000000001,0.0075399975186731805,0.0075399975186731805
76.188,0.03711706273570636,-0.03711706273570636
76.18900000000001,0.09234000596966352,-0.09234000596966352
76.19000000000001,0.14033583771121183,-0.14033583771121183
76.191,0.16531880363980878,-0.16531880363980878
76.19200000000001,0.15839812877316095,-0.15839812877316095
76.19300000000001,0.12027416348861464,-0.12027416348861464
76.194,0.06095032501202502,-0.06095032501202502
76.19500000000001,0.0033665089074546017,0.0033665089074546017
76.19600000000001,0.055130145591480995,0.055130145591480995
76.197,0.08053267678718523,0.08053267678718523
76.19800000000001,0.07325623021593697,0.07325623021593697
76.19900000000001,0.03585652947529905,0.03585652947529905
76.2,0.021470183321094405,-0.021470183321094405
76.20100000000001,0.08416924079968502,-0.08416924079968502
76.20200000000001,0.13751739282440334,-0.13751739282440334
76.203,0.17041421725070272,-0.17041421725070272
76.20400000000001,0.1777311444170584,-0.1777311444170584
76.20500000000001,0.16073803118796737,-0.16073803118796737
76.206,0.12577678105822798,-0.12577678105822798
76.20700000000001,0.08186156652188004,-0.08186156652188004
76.20800000000001,0.03810050234798246,-0.03810050234798246
76.209,0.0017176670124761095,-0.0017176670124761095
76.21000000000001,0.022907591808884353,0.022907591808884353
76.21100000000001,0.03420962160735308,0.03420962160735308
76.212,0.03278473500355372,0.03278473500355372
76.21300000000001,0.02061695699396182,0.02061695699396182
76.21400000000001,0.0005658235199541561,0.0005658235199541561
76.215,0.023774760695545738,-0.023774760695545738
76.21600000000001,0.048032810920243474,-0.048032810920243474
76.21700000000001,0.06718644190716694,-0.06718644190716694
76.218,0.07618108504064747,-0.07618108504064747
76.21900000000001,0.07111277148045836,-0.07111277148045836
76.22000000000001,0.050715907138497274,-0.050715907138497274
76.221,0.01761072509524597,-0.01761072509524597
76.22200000000001,0.02131956974801752,0.02131956974801752
76.22300000000001,0.055868303672971464,0.055868303672971464
76.224,0.07479122024454732,0.07479122024454732
76.22500000000001,0.06895534089947408,0.06895534089947408
76.22600000000001,0.03444865036980671,0.03444865036980671
76.227,0.025400528476061668,-0.025400528476061668
76.22800000000001,0.09993371539074825,-0.09993371539074825
76.22900000000001,0.17330286706474873,-0.17330286706474873
76.23,0.22843444686972514,-0.22843444686972514
76.23100000000001,0.25176466401580255,-0.25176466401580255
76.232,0.23733940629998196,-0.23733940629998196
76.233,0.18895407586402002,-0.18895407586402002
76.23400000000001,0.11953104516795854,-0.11953104516795854
76.235,0.047751551041744666,-0.047751551041744666
76.236,0.007177293798596551,0.007177293798596551
76.23700000000001,0.03111044267205698,0.03111044267205698
76.238,0.01921787842475875,0.01921787842475875
76.239,0.0224416653267816,-0.0224416653267816
76.24000000000001,0.07859039935746914,-0.07859039935746914
76.241,0.12922790054504196,-0.12922790054504196
76.242,0.1556594864384686,-0.1556594864384686
76.24300000000001,0.14626355728702378,-0.14626355728702378
76.244,0.10024833692147161,-0.10024833692147161
76.245,0.028227493912893364,-0.028227493912893364
76.24600000000001,0.0506139312943239,0.0506139312943239
76.247,0.11397259774861968,0.11397259774861968
76.248,0.14292084908099767,0.14292084908099767
76.24900000000001,0.1275451231726379,0.1275451231726379
76.25,0.0700759021462809,0.0700759021462809
76.251,0.015415259617886035,-0.015415259617886035
76.25200000000001,0.10668355371971716,-0.10668355371971716
76.253,0.17931332862502414,-0.17931332862502414
76.254,0.21337141592678477,-0.21337141592678477
76.25500000000001,0.19886356726811516,-0.19886356726811516
76.256,0.13850479278800087,-0.13850479278800087
76.257,0.04707847478466032,-0.04707847478466032
76.25800000000001,0.052398474383659854,0.052398474383659854
76.259,0.13463326519714913,0.13463326519714913
76.26,0.17853037998417975,0.17853037998417975
76.26100000000001,0.17248456480333707,0.17248456480333707
76.262,0.11715936707816677,0.11715936707816677
76.263,0.025110077173616574,0.025110077173616574
76.26400000000001,0.08256244623040898,-0.08256244623040898
76.265,0.18159738608441522,-0.18159738608441522
76.266,0.250593024732233,-0.250593024732233
76.26700000000001,0.2761471292336535,-0.2761471292336535
76.268,0.2558761705900239,-0.2558761705900239
76.269,0.19863135691565725,-0.19863135691565725
76.27000000000001,0.12193299137941427,-0.12193299137941427
76.271,0.047319368330936085,-0.047319368330936085
76.272,0.005203804842104143,0.005203804842104143
76.27300000000001,0.022230276110467795,0.022230276110467795
76.274,0.00028760755522161396,0.00028760755522161396
76.275,0.053379037692996234,-0.053379037692996234
76.27600000000001,0.12276537765849305,-0.12276537765849305
76.277,0.1873236318652316,-0.1873236318652316
76.278,0.22738235620225522,-0.22738235620225522
76.27900000000001,0.22939815228439875,-0.22939815228439875
76.28,0.1896822505562954,-0.1896822505562954
76.281,0.11560448293272918,-0.11560448293272918
76.28200000000001,0.02390500065494927,-0.02390500065494927
76.283,0.06350891011952875,0.06350891011952875
76.284,0.12522749173667913,0.12522749173667913
76.28500000000001,0.14598992802304145,0.14598992802304145
76.286,0.1208080650029788,0.1208080650029788
76.287,0.05641958666712599,0.05641958666712599
76.28800000000001,0.030372913967572246,-0.030372913967572246
76.289,0.11707495135670254,-0.11707495135670254
76.29,0.18142470351104012,-0.18142470351104012
76.29100000000001,0.2072570486025922,-0.2072570486025922
76.292,0.18869100982663456,-0.18869100982663456
76.293,0.13148258959116577,-0.13148258959116577
76.29400000000001,0.051183149398176364,-0.051183149398176364
76.295,0.03134565776326692,0.03134565776326692
76.296,0.09575346171050869,0.09575346171050869
76.29700000000001,0.12767824199463318,0.12767824199463318
76.298,0.12232078132831203,0.12232078132831203
76.299,0.08514324559261666,0.08514324559261666
76.30000000000001,0.029588259682814977,0.029588259682814977
76.301,0.02739666794545681,-0.02739666794545681
76.302,0.07060927005821083,-0.07060927005821083
76.30300000000001,0.09100757202432641,-0.09100757202432641
76.304,0.08798828386769908,-0.08798828386769908
76.305,0.06892756608024786,-0.06892756608024786
76.30600000000001,0.046249099639956714,-0.046249099639956714
76.307,0.033039966089345896,-0.033039966089345896
76.308,0.03864546263246349,-0.03864546263246349
76.30900000000001,0.06562094617544256,-0.06562094617544256
76.31,0.1089353056208966,-0.1089353056208966
76.311,0.15757712594381945,-0.15757712594381945
76.31200000000001,0.19795905143948478,-0.19795905143948478
76.313,0.21799004290683288,-0.21799004290683288
76.31400000000001,0.2105453296380092,-0.2105453296380092
76.31500000000001,0.17533239442656035,-0.17533239442656035
76.316,0.11871582469376807,-0.11871582469376807
76.31700000000001,0.051721297636457164,-0.051721297636457164
76.31800000000001,0.013030867893686127,0.013030867893686127
76.319,0.06447091916189951,0.06447091916189951
76.32000000000001,0.09541119103541607,0.09541119103541607
76.32100000000001,0.1035424568153207,0.1035424568153207
76.322,0.09106033570693306,0.09106033570693306
76.32300000000001,0.06330858081813151,0.06330858081813151
76.32400000000001,0.027044388999128754,0.027044388999128754
76.325,0.011102015762954442,-0.011102015762954442
76.32600000000001,0.04563254702552,-0.04563254702552
76.32700000000001,0.07261523946956039,-0.07261523946956039
76.328,0.0897492538964273,-0.0897492538964273
76.32900000000001,0.09633710229009662,-0.09633710229009662
76.33000000000001,0.0933357900047842,-0.0933357900047842
76.331,0.08344747183696632,-0.08344747183696632
76.33200000000001,0.07101682722830782,-0.07101682722830782
76.33300000000001,0.06144616973335304,-0.06144616973335304
76.334,0.05997815364087811,-0.05997815364087811
76.33500000000001,0.06999384037657341,-0.06999384037657341
76.33600000000001,0.09130856443126745,-0.09130856443126745
76.337,0.11915745584132398,-0.11915745584132398
76.33800000000001,0.1445134467574175,-0.1445134467574175
76.33900000000001,0.15603232687793844,-0.15603232687793844
76.34,0.14335495072771665,-0.14335495072771665
76.34100000000001,0.10090606724851336,-0.10090606724851336
76.34200000000001,0.030946416775717966,-0.030946416775717966
76.343,0.0553509136550705,0.0553509136550705
76.34400000000001,0.1395540627441063,0.1395540627441063
76.34500000000001,0.20027910448587405,0.20027910448587405
76.346,0.21913942978404766,0.21913942978404766
76.34700000000001,0.18661609919321975,0.18661609919321975
76.34800000000001,0.10592273790154039,0.10592273790154039
76.349,0.006625711533853829,-0.006625711533853829
76.35000000000001,0.1252354373535567,-0.1252354373535567
76.35100000000001,0.22147430986563177,-0.22147430986563177
76.352,0.27242758004048595,-0.27242758004048595
76.35300000000001,0.2676738511297455,-0.2676738511297455
76.35400000000001,0.21277938977315325,-0.21277938977315325
76.355,0.12798256497467864,-0.12798256497467864
76.35600000000001,0.04222259025737862,-0.04222259025737862
76.357,0.015806722298448372,0.015806722298448372
76.358,0.026836183304560723,0.026836183304560723
76.35900000000001,0.01252248604742734,-0.01252248604742734
76.36,0.08824861089485847,-0.08824861089485847
76.361,0.17300495796969306,-0.17300495796969306
76.36200000000001,0.23473525909410486,-0.23473525909410486
76.363,0.24713744492306677,-0.24713744492306677
76.364,0.1986761124429316,-0.1986761124429316
76.36500000000001,0.0971609146774497,-0.0971609146774497
76.366,0.03173409399287119,0.03173409399287119
76.367,0.15171769565681115,0.15171769565681115
76.36800000000001,0.2267335197857585,0.2267335197857585
76.369,0.23205013580468115,0.23205013580468115
76.37,0.162090927107438,0.162090927107438
76.37100000000001,0.03250694221409978,0.03250694221409978
76.372,0.12418491016058242,-0.12418491016058242
76.373,0.2680296724378133,-0.2680296724378133
76.37400000000001,0.36315707908420736,-0.36315707908420736
76.375,0.387796475450333,-0.387796475450333
76.376,0.33972498570624476,-0.33972498570624476
76.37700000000001,0.23562157564050645,-0.23562157564050645
76.378,0.10480128290654389,-0.10480128290654389
76.379,0.0203969387196703,0.0203969387196703
76.38000000000001,0.11429739356341218,0.11429739356341218
76.381,0.16450320595998602,0.16450320595998602
76.382,0.17347640246684448,0.17347640246684448
76.38300000000001,0.1549330252111223,0.1549330252111223
76.384,0.1267107622654038,0.1267107622654038
76.385,0.10293722832449026,0.10293722832449026
76.38600000000001,0.08846149059297459,0.08846149059297459
76.387,0.07757781556217314,0.07757781556217314
76.388,0.05741502762711104,0.05741502762711104
76.38900000000001,0.014588704438996514,0.014588704438996514
76.39,0.05753960562168814,-0.05753960562168814
76.391,0.15392448078378018,-0.15392448078378018
76.39200000000001,0.25733314043799504,-0.25733314043799504
76.393,0.3427701730629724,-0.3427701730629724
76.394,0.3854778793076177,-0.3854778793076177
76.39500000000001,0.3697537281541108,-0.3697537281541108
76.396,0.2953820767634232,-0.2953820767634232
76.397,0.17918102792589463,-0.17918102792589463
76.39800000000001,0.0507970885013348,-0.0507970885013348
76.399,0.05611547216331503,0.05611547216331503
76.4,0.11451767092097787,0.11451767092097787
76.40100000000001,0.11285175711335049,0.11285175711335049
76.402,0.05906150083629447,0.05906150083629447
76.403,0.021764829217417403,-0.021764829217417403
76.40400000000001,0.09553059838913014,-0.09553059838913014
76.405,0.13046732032557817,-0.13046732032557817
76.406,0.10794582846569878,-0.10794582846569878
76.40700000000001,0.029131743268590582,-0.029131743268590582
76.408,0.08481874601179618,0.08481874601179618
76.409,0.19920206732897894,0.19920206732897894
76.41000000000001,0.27681572879116123,0.27681572879116123
76.411,0.2900239683225201,0.2900239683225201
76.412,0.229885576989876,0.229885576989876
76.41300000000001,0.10933902441799193,0.10933902441799193
76.414,0.04060794074900753,-0.04060794074900753
76.415,0.18043664764118517,-0.18043664764118517
76.41600000000001,0.2742976639682565,-0.2742976639682565
76.417,0.30085540919378284,-0.30085540919378284
76.418,0.25932588769889675,-0.25932588769889675
76.41900000000001,0.1688643711394241,-0.1688643711394241
76.42,0.06167285575158188,-0.06167285575158188
76.421,0.02775248085852522,0.02775248085852522
76.42200000000001,0.07360842833652348,0.07360842833652348
76.423,0.0664088460429535,0.0664088460429535
76.424,0.014874417905709869,0.014874417905709869
76.42500000000001,0.058296371580018214,-0.058296371580018214
76.426,0.12509856770425964,-0.12509856770425964
76.427,0.16222033473467212,-0.16222033473467212
76.42800000000001,0.15891352202172015,-0.15891352202172015
76.429,0.12011791070400446,-0.12011791070400446
76.43,0.06392940104335054,-0.06392940104335054
76.43100000000001,0.014473632188253815,-0.014473632188253815
76.432,0.007198187295446967,0.007198187295446967
76.433,0.00904353462838181,-0.00904353462838181
76.43400000000001,0.05854370556030486,-0.05854370556030486
76.435,0.12327882006107438,-0.12327882006107438
76.436,0.178004371630475,-0.178004371630475
76.43700000000001,0.19897111579778104,-0.19897111579778104
76.438,0.17220913369582425,-0.17220913369582425
76.43900000000001,0.09858159525172883,-0.09858159525172883
76.44000000000001,0.006042386847513681,0.006042386847513681
76.441,0.11547177582562806,0.11547177582562806
76.44200000000001,0.20109391277022426,0.20109391277022426
76.44300000000001,0.24033925153665825,0.24033925153665825
76.444,0.22297502123461466,0.22297502123461466
76.44500000000001,0.15333001321589323,0.15333001321589323
76.44600000000001,0.04798994711153037,0.04798994711153037
76.447,0.06997588724740822,-0.06997588724740822
76.44800000000001,0.17811507920764125,-0.17811507920764125
76.44900000000001,0.2605883278978882,-0.2605883278978882
76.45,0.3111935976368001,-0.3111935976368001
76.45100000000001,0.33272866086813435,-0.33272866086813435
76.45200000000001,0.33335157576628827,-0.33335157576628827
76.453,0.32163200139086123,-0.32163200139086123
76.45400000000001,0.302348149378839,-0.302348149378839
76.45500000000001,0.2746713550283838,-0.2746713550283838
76.456,0.23337083677334036,-0.23337083677334036
76.45700000000001,0.17245313211639912,-0.17245313211639912
76.45800000000001,0.08967763941311457,-0.08967763941311457
76.459,0.009982729257933087,0.009982729257933087
76.46000000000001,0.11350629971730064,0.11350629971730064
76.46100000000001,0.20222437350046074,0.20222437350046074
76.462,0.2568633247826815,0.2568633247826815
76.46300000000001,0.26360986668012276,0.26360986668012276
76.46400000000001,0.21911824376030076,0.21911824376030076
76.465,0.13264197176139203,0.13264197176139203
76.46600000000001,0.024380196350055394,0.024380196350055394
76.46700000000001,0.0796285764243958,-0.0796285764243958
76.468,0.15457821823751827,-0.15457821823751827
76.46900000000001,0.18377074741263377,-0.18377074741263377
76.47000000000001,0.163167384260807,-0.163167384260807
76.471,0.10221308651655936,-0.10221308651655936
76.47200000000001,0.020709872748828184,-0.020709872748828184
76.47300000000001,0.05724784807912475,0.05724784807912475
76.474,0.1103661435159875,0.1103661435159875
76.47500000000001,0.12608933742314532,0.12608933742314532
76.47600000000001,0.10362130388540414,0.10362130388540414
76.477,0.05323188656574751,0.05323188656574751
76.47800000000001,0.007768687202237667,-0.007768687202237667
76.47900000000001,0.06098592040065831,-0.06098592040065831
76.48,0.09288449025231105,-0.09288449025231105
76.48100000000001,0.09886118324317494,-0.09886118324317494
76.482,0.08424819168870545,-0.08424819168870545
76.483,0.062049362225676474,-0.062049362225676474
76.48400000000001,0.04823152852431822,-0.04823152852431822
76.485,0.05611705627449193,-0.05611705627449193
76.486,0.09164671037116268,-0.09164671037116268
76.48700000000001,0.15096236264223317,-0.15096236264223317
76.488,0.22102076366629453,-0.22102076366629453
76.489,0.2830329368903399,-0.2830329368903399
76.49000000000001,0.31770549509106605,-0.31770549509106605
76.491,0.3107696679442701,-0.3107696679442701
76.492,0.2572407544974392,-0.2572407544974392
76.49300000000001,0.163240661841347,-0.163240661841347
76.494,0.044906770336312185,-0.044906770336312185
76.495,0.07530162537991969,0.07530162537991969
76.49600000000001,0.17391562777240477,0.17391562777240477
76.497,0.23201381811574895,0.23201381811574895
76.498,0.23962452441305815,0.23962452441305815
76.49900000000001,0.19789947679591413,0.19789947679591413
76.5,0.11856524242291777,0.11856524242291777
76.501,0.02084245113906391,0.02084245113906391
76.50200000000001,0.07335722735564565,-0.07335722735564565
76.503,0.14473595479388002,-0.14473595479388002
76.504,0.18108940158399933,-0.18108940158399933
76.50500000000001,0.1798550969709033,-0.1798550969709033
76.506,0.14811976410604555,-0.14811976410604555
76.507,0.10012971943231608,-0.10012971943231608
76.50800000000001,0.052999038421952416,-0.052999038421952416
76.509,0.021790463720728015,-0.021790463720728015
76.51,0.015321122226539474,-0.015321122226539474
76.51100000000001,0.03385810695143787,-0.03385810695143787
76.512,0.06935212654016998,-0.06935212654016998
76.513,0.10813989575648908,-0.10813989575648908
76.51400000000001,0.13532396461463936,-0.13532396461463936
76.515,0.13952414256825785,-0.13952414256825785
76.516,0.1165526538188757,-0.1165526538188757
76.51700000000001,0.07085891500824593,-0.07085891500824593
76.518,0.014252035223726423,-0.014252035223726423
76.519,0.037747833402668185,0.037747833402668185
76.52000000000001,0.07081188979199116,0.07081188979199116
76.521,0.07640143920598619,0.07640143920598619
76.522,0.05455134881582424,0.05455134881582424
76.52300000000001,0.013868310391096594,0.013868310391096594
76.524,0.03134057337873741,-0.03134057337873741
76.525,0.06593949771607488,-0.06593949771607488
76.52600000000001,0.07925803676453025,-0.07925803676453025
76.527,0.06901589082389303,-0.06901589082389303
76.528,0.04246488866797982,-0.04246488866797982
76.52900000000001,0.014208844552140554,-0.014208844552140554
76.53,0.0012633274351869783,-0.0012633274351869783
76.531,0.016887533626431916,-0.016887533626431916
76.53200000000001,0.06522649062984387,-0.06522649062984387
76.533,0.13865057738949027,-0.13865057738949027
76.534,0.21888894702642037,-0.21888894702642037
76.53500000000001,0.2818567105011812,-0.2818567105011812
76.536,0.3048511682042777,-0.3048511682042777
76.537,0.273943166136112,-0.273943166136112
76.53800000000001,0.1892100398731199,-0.1892100398731199
76.539,0.06603029494171053,-0.06603029494171053
76.54,0.06817377514285816,0.06817377514285816
76.54100000000001,0.18095975798638242,0.18095975798638242
76.542,0.24367923765885724,0.24367923765885724
76.543,0.23950929982624203,0.23950929982624203
76.54400000000001,0.16832141340098938,0.16832141340098938
76.545,0.04693632967739636,0.04693632967739636
76.546,0.09531216470711135,-0.09531216470711135
76.54700000000001,0.22439333191655164,-0.22439333191655164
76.548,0.31049336031011354,-0.31049336031011354
76.549,0.3354850822817853,-0.3354850822817853
76.55000000000001,0.2969242847357897,-0.2969242847357897
76.551,0.20764432926143273,-0.20764432926143273
76.552,0.09134590711294488,-0.09134590711294488
76.55300000000001,0.024292107671626484,0.024292107671626484
76.554,0.11485936480374082,0.11485936480374082
76.555,0.16478475836563078,0.16478475836563078
76.55600000000001,0.16989048073152735,0.16989048073152735
76.557,0.13661954322791403,0.13661954322791403
76.558,0.07863947234174917,0.07863947234174917
76.55900000000001,0.012198496262555647,0.012198496262555647
76.56,0.04823496299669561,-0.04823496299669561
76.561,0.09287252719012473,-0.09287252719012473
76.56200000000001,0.11754866099057026,-0.11754866099057026
76.563,0.1229387707752112,-0.1229387707752112
76.56400000000001,0.11280214582837556,-0.11280214582837556
76.56500000000001,0.09214652021793479,-0.09214652021793479
76.566,0.06598748060061421,-0.06598748060061421
76.56700000000001,0.038923046468524514,-0.038923046468524514
76.56800000000001,0.015279739801427272,-0.015279739801427272
76.569,0.0006853282799770266,0.0006853282799770266
76.57000000000001,0.00501423263769718,0.00501423263769718
76.57100000000001,0.005100553614501679,-0.005100553614501679
76.572,0.030074727022158743,-0.030074727022158743
76.57300000000001,0.066871864783008,-0.066871864783008
76.57400000000001,0.10878370847057284,-0.10878370847057284
76.575,0.1464805665248463,-0.1464805665248463
76.57600000000001,0.17028465244142066,-0.17028465244142066
76.57700000000001,0.17307956275033753,-0.17307956275033753
76.578,0.15289239590374948,-0.15289239590374948
76.57900000000001,0.11414810568678768,-0.11414810568678768
76.58000000000001,0.06695153596416703,-0.06695153596416703
76.581,0.024401075476781386,-0.024401075476781386
76.58200000000001,0.0013444456491242818,0.0013444456491242818
76.58300000000001,0.0030045382617018834,0.0030045382617018834
76.584,0.019229680697026685,-0.019229680697026685
76.58500000000001,0.05742851037417618,-0.05742851037417618
76.58600000000001,0.09821602805213692,-0.09821602805213692
76.587,0.12697810079483363,-0.12697810079483363
76.58800000000001,0.13264511545258972,-0.13264511545258972
76.58900000000001,0.11144905280858541,-0.11144905280858541
76.59,0.068344719538597,-0.068344719538597
76.59100000000001,0.015544011660711843,-0.015544011660711843
76.59200000000001,0.031410989239611053,0.031410989239611053
76.593,0.058752153272048746,0.058752153272048746
76.59400000000001,0.059047949768477936,0.059047949768477936
76.59500000000001,0.03365762934161309,0.03365762934161309
76.596,0.0077911638098958624,-0.0077911638098958624
76.59700000000001,0.05075587973617368,-0.05075587973617368
76.59800000000001,0.08083708882589458,-0.08083708882589458
76.599,0.08880772252620184,-0.08880772252620184
76.60000000000001,0.07386438072184731,-0.07386438072184731
76.60100000000001,0.04394071410773115,-0.04394071410773115
76.602,0.01292140402560571,-0.01292140402560571
76.60300000000001,0.004336065723625326,0.004336065723625326
76.60400000000001,0.002507863262806831,-0.002507863262806831
76.605,0.0351604957086491,-0.0351604957086491
76.60600000000001,0.08541780513985697,-0.08541780513985697
76.607,0.1372515363479938,-0.1372515363479938
76.608,0.17167755506788307,-0.17167755506788307
76.60900000000001,0.17288914602177208,-0.17288914602177208
76.61,0.13370070744593954,-0.13370070744593954
76.611,0.0585439745733346,-0.0585439745733346
76.61200000000001,0.03697926071225832,0.03697926071225832
76.613,0.12991096450811468,0.12991096450811468
76.614,0.19600568151136666,0.19600568151136666
76.61500000000001,0.2162740037271378,0.2162740037271378
76.616,0.18211570300964208,0.18211570300964208
76.617,0.09762727660820136,0.09762727660820136
76.61800000000001,0.02145986490196594,-0.02145986490196594
76.619,0.15177082042768486,-0.15177082042768486
76.62,0.2679791674693158,-0.2679791674693158
76.62100000000001,0.34859842469089397,-0.34859842469089397
76.622,0.38039206532379366,-0.38039206532379366
76.623,0.3604484629427941,-0.3604484629427941
76.62400000000001,0.2956995132052671,-0.2956995132052671
76.625,0.20035683510983493,-0.20035683510983493
76.626,0.09219779357942359,-0.09219779357942359
76.62700000000001,0.011242602564565107,0.011242602564565107
76.628,0.09570652013682235,0.09570652013682235
76.629,0.1519919266109564,0.1519919266109564
76.63000000000001,0.17641563272687488,0.17641563272687488
76.631,0.17022724644523946,0.17022724644523946
76.632,0.13839582028171238,0.13839582028171238
76.63300000000001,0.08817928814405507,0.08817928814405507
76.634,0.02776987900896244,0.02776987900896244
76.635,0.03483149673802355,-0.03483149673802355
76.63600000000001,0.09265938474947732,-0.09265938474947732
76.637,0.14033427400276155,-0.14033427400276155
76.638,0.1743090546257987,-0.1743090546257987
76.63900000000001,0.192806595308052,-0.192806595308052
76.64,0.19548562956095694,-0.19548562956095694
76.641,0.18295093791708072,-0.18295093791708072
76.64200000000001,0.15630304958266028,-0.15630304958266028
76.643,0.11694705583378961,-0.11694705583378961
76.644,0.06680649961068874,-0.06680649961068874
76.64500000000001,0.00891529231953525,-0.00891529231953525
76.646,0.05185904379262718,0.05185904379262718
76.647,0.10838038636313252,0.10838038636313252
76.64800000000001,0.15154547346636016,0.15154547346636016
76.649,0.17159864416617165,0.17159864416617165
76.65,0.16038654870064173,0.16038654870064173
76.65100000000001,0.11405567222680735,0.11405567222680735
76.652,0.03535816077411891,0.03535816077411891
76.653,0.0653613990961327,-0.0653613990961327
76.65400000000001,0.1711837968967832,-0.1711837968967832
76.655,0.2617725975580696,-0.2617725975580696
76.656,0.3180970854795879,-0.3180970854795879
76.65700000000001,0.3275143148568932,-0.3275143148568932
76.658,0.2876899589324293,-0.2876899589324293
76.659,0.20800070514704916,-0.20800070514704916
76.66000000000001,0.10770647776442588,-0.10770647776442588
76.661,0.011141773455660475,-0.011141773455660475
76.662,0.058845531085734315,0.058845531085734315
76.66300000000001,0.08731605266380371,0.08731605266380371
76.664,0.07153577197557937,0.07153577197557937
76.665,0.02171563928223863,0.02171563928223863
76.66600000000001,0.042177656124707585,-0.042177656124707585
76.667,0.09666749645364392,-0.09666749645364392
76.668,0.12217773567320289,-0.12217773567320289
76.66900000000001,0.10927375543619422,-0.10927375543619422
76.67,0.06171068202428098,-0.06171068202428098
76.671,0.004745709652314689,0.004745709652314689
76.67200000000001,0.06740015401787458,0.06740015401787458
76.673,0.10400069271290246,0.10400069271290246
76.674,0.10001626700087307,0.10001626700087307
76.67500000000001,0.0534377571025797,0.0534377571025797
76.676,0.024478127209486056,-0.024478127209486056
76.677,0.11276453720578195,-0.11276453720578195
76.67800000000001,0.18741292463932868,-0.18741292463932868
76.679,0.22893153271610156,-0.22893153271610156
76.68,0.2282846719950744,-0.2282846719950744
76.68100000000001,0.189268341344619,-0.189268341344619
76.682,0.1266034557442578,-0.1266034557442578
76.683,0.06049412279438171,-0.06049412279438171
76.68400000000001,0.009598766897681799,-0.009598766897681799
76.685,0.015119946514934979,0.015119946514934979
76.686,0.013544668507576407,0.013544668507576407
76.68700000000001,0.004483561580162609,-0.004483561580162609
76.688,0.023678994176143386,-0.023678994176143386
76.68900000000001,0.029745974356298444,-0.029745974356298444
76.69000000000001,0.015342365999008512,-0.015342365999008512
76.691,0.016652581295214075,0.016652581295214075
76.69200000000001,0.053821778102028484,0.053821778102028484
76.69300000000001,0.0786721026208348,0.0786721026208348
76.694,0.07531709634898753,0.07531709634898753
76.69500000000001,0.035977821715074354,0.035977821715074354
76.69600000000001,0.0350994982537326,-0.0350994982537326
76.697,0.12185118214899071,-0.12185118214899071
76.69800000000001,0.20084595959453233,-0.20084595959453233
76.69900000000001,0.2485970741251149,-0.2485970741251149
76.7,0.2493133807414627,-0.2493133807414627
76.70100000000001,0.20044755957413363,-0.20044755957413363
76.70200000000001,0.1140921055091777,-0.1140921055091777
76.703,0.013647514217326129,-0.013647514217326129
76.70400000000001,0.07322555265564978,0.07322555265564978
76.70500000000001,0.12310078844990446,0.12310078844990446
76.706,0.1239612921325679,0.1239612921325679
76.70700000000001,0.07872245080637286,0.07872245080637286
76.70800000000001,0.003984211032542984,0.003984211032542984
76.709,0.0755259836465435,-0.0755259836465435
76.71000000000001,0.13494950624250301,-0.13494950624250301
76.71100000000001,0.1570962814522704,-0.1570962814522704
76.712,0.1375363397147117,-0.1375363397147117
76.71300000000001,0.08542638151745074,-0.08542638151745074
76.71400000000001,0.019960002908062435,-0.019960002908062435
76.715,0.036231973828103836,0.036231973828103836
76.71600000000001,0.06445705489678466,0.06445705489678466
76.71700000000001,0.055683145308200066,0.055683145308200066
76.718,0.012837637847075367,0.012837637847075367
76.71900000000001,0.050866087098604296,-0.050866087098604296
76.72000000000001,0.11678093344329221,-0.11678093344329221
76.721,0.16705730480248582,-0.16705730480248582
76.72200000000001,0.19011017941559172,-0.19011017941559172
76.72300000000001,0.18358096669892543,-0.18358096669892543
76.724,0.15402155459038902,-0.15402155459038902
76.72500000000001,0.11369666531209421,-0.11369666531209421
76.72600000000001,0.07585261186978498,-0.07585261186978498
76.727,0.05021717901601841,-0.05021717901601841
76.72800000000001,0.04026425533549538,-0.04026425533549538
76.72900000000001,0.04302165005004177,-0.04302165005004177
76.73,0.051224932999343054,-0.051224932999343054
76.73100000000001,0.056789653081837144,-0.056789653081837144
76.732,0.05418088903805618,-0.05418088903805618
76.733,0.04241852418602532,-0.04241852418602532
76.73400000000001,0.02507469196176637,-0.02507469196176637
76.735,0.008437223196471444,-0.008437223196471444
76.736,0.0012905840049046713,0.0012905840049046713
76.73700000000001,0.0005664524254120895,0.0005664524254120895
76.738,0.01016135885074465,-0.01016135885074465
76.739,0.026836453524570647,-0.026836453524570647
76.74000000000001,0.04363718928916205,-0.04363718928916205
76.741,0.055443333734170985,-0.055443333734170985
76.742,0.05986428089598006,-0.05986428089598006
76.74300000000001,0.05798181786193335,-0.05798181786193335
76.744,0.05352056226833246,-0.05352056226833246
76.745,0.050832276101285045,-0.050832276101285045
76.74600000000001,0.05259094559825506,-0.05259094559825506
76.747,0.05823418725294238,-0.05823418725294238
76.748,0.06389236659410502,-0.06389236659410502
76.74900000000001,0.06393264073103877,-0.06393264073103877
76.75,0.05355448046966027,-0.05355448046966027
76.751,0.031385774496672014,-0.031385774496672014
76.75200000000001,0.0009503429192926349,-0.0009503429192926349
76.753,0.029742025155449436,0.029742025155449436
76.754,0.050523801588293615,0.050523801588293615
76.75500000000001,0.05258619599888159,0.05258619599888159
76.756,0.03192090721589058,0.03192090721589058
76.757,0.008649942817582579,-0.008649942817582579
76.75800000000001,0.059754522718434955,-0.059754522718434955
76.759,0.10815124028030432,-0.10815124028030432
76.76,0.141002401436094,-0.141002401436094
76.76100000000001,0.15029052242601748,-0.15029052242601748
76.762,0.135782932148225,-0.135782932148225
76.763,0.10538665335480824,-0.10538665335480824
76.76400000000001,0.07261792517232901,-0.07261792517232901
76.765,0.05193654050225105,-0.05193654050225105
76.766,0.05349825863659341,-0.05349825863659341
76.76700000000001,0.07916059239425333,-0.07916059239425333
76.768,0.12121781293307232,-0.12121781293307232
76.769,0.16444572020446346,-0.16444572020446346
76.77000000000001,0.1909051440990761,-0.1909051440990761
76.771,0.18597629343745647,-0.18597629343745647
76.772,0.14361950038134585,-0.14361950038134585
76.77300000000001,0.06905873209076385,-0.06905873209076385
76.774,0.022093784629191537,0.022093784629191537
76.775,0.10808321194531634,0.10808321194531634
76.77600000000001,0.16731716576315625,0.16731716576315625
76.777,0.1847278185556791,0.1847278185556791
76.778,0.15616407344393934,0.15616407344393934
76.77900000000001,0.08943698999079741,0.08943698999079741
76.78,0.001743672037407995,0.001743672037407995
76.781,0.08562679002780893,-0.08562679002780893
76.78200000000001,0.15354467530713778,-0.15354467530713778
76.783,0.19023465384915494,-0.19023465384915494
76.784,0.1938240095735133,-0.1938240095735133
76.78500000000001,0.17159293474342907,-0.17159293474342907
76.786,0.1363985707603328,-0.1363985707603328
76.787,0.10166357212168997,-0.10166357212168997
76.78800000000001,0.07672855810622914,-0.07672855810622914
76.789,0.06414352507563481,-0.06414352507563481
76.79,0.05971580335887772,-0.05971580335887772
76.79100000000001,0.05512259362351679,-0.05512259362351679
76.792,0.041994296954642296,-0.041994296954642296
76.793,0.01589166308137291,-0.01589166308137291
76.79400000000001,0.02130973516875523,0.02130973516875523
76.795,0.061500303771594655,0.061500303771594655
76.796,0.09284954171499793,0.09284954171499793
76.79700000000001,0.10384775223519793,0.10384775223519793
76.798,0.08744072073247211,0.08744072073247211
76.799,0.04380456728964299,0.04380456728964299
76.80000000000001,0.019203850276447998,-0.019203850276447998
76.801,0.08807715628395152,-0.08807715628395152
76.802,0.14748543710465922,-0.14748543710465922
76.80300000000001,0.18463878606142925,-0.18463878606142925
76.804,0.19278763071161797,-0.19278763071161797
76.805,0.1728028063635878,-0.1728028063635878
76.80600000000001,0.13245003001587274,-0.13245003001587274
76.807,0.08373388430517725,-0.08373388430517725
76.808,0.03927214859630124,-0.03927214859630124
76.80900000000001,0.00888616560273714,-0.00888616560273714
76.81,0.002592121949458237,0.002592121949458237
76.811,0.004206025561233284,-0.004206025561233284
76.81200000000001,0.02432158148476582,-0.02432158148476582
76.813,0.05059880536752115,-0.05059880536752115
76.81400000000001,0.07596855512942902,-0.07596855512942902
76.81500000000001,0.09513654257789561,-0.09513654257789561
76.816,0.1052787866653464,-0.1052787866653464
76.81700000000001,0.10578947553582352,-0.10578947553582352
76.81800000000001,0.09748165974601586,-0.09748165974601586
76.819,0.08177751413015133,-0.08177751413015133
76.82000000000001,0.060309022721745986,-0.060309022721745986
76.82100000000001,0.03505386134025357,-0.03505386134025357
76.822,0.008798051129379258,-0.008798051129379258
76.82300000000001,0.014500359280866126,0.014500359280866126
76.82400000000001,0.029874137296201475,0.029874137296201475
76.825,0.032244390561154246,0.032244390561154246
76.82600000000001,0.01791061571291963,0.01791061571291963
76.82700000000001,0.013840539822078557,-0.013840539822078557
76.828,0.05964660188714721,-0.05964660188714721
76.82900000000001,0.11205218309526421,-0.11205218309526421
76.83000000000001,0.16078903065115857,-0.16078903065115857
76.831,0.1951251009867626,-0.1951251009867626
76.83200000000001,0.20664117900330048,-0.20664117900330048
76.83300000000001,0.19158176811821537,-0.19158176811821537
76.834,0.15200869768922554,-0.15200869768922554
76.83500000000001,0.09534608807070566,-0.09534608807070566
76.83600000000001,0.03242433275938583,-0.03242433275938583
76.837,0.025373559014693736,0.025373559014693736
76.83800000000001,0.06896570005953984,0.06896570005953984
76.83900000000001,0.09354267376605097,0.09354267376605097
76.84,0.09909487494947022,0.09909487494947022
76.84100000000001,0.08944574048931075,0.08944574048931075
76.84200000000001,0.07025761880356152,0.07025761880356152
76.843,0.04681153514768188,0.04681153514768188
76.84400000000001,0.022393695338674302,0.022393695338674302
76.84500000000001,0.002158061066405148,-0.002158061066405148
76.846,0.02767765673941891,-0.02767765673941891
76.84700000000001,0.05509559858272628,-0.05509559858272628
76.84800000000001,0.08382440263793423,-0.08382440263793423
76.849,0.1108883537598171,-0.1108883537598171
76.85000000000001,0.13128760130750805,-0.13128760130750805
76.85100000000001,0.13958090184416272,-0.13958090184416272
76.852,0.1321442790244597,-0.1321442790244597
76.85300000000001,0.10921986645190929,-0.10921986645190929
76.85400000000001,0.07585372118694056,-0.07585372118694056
76.855,0.0411592796257525,-0.0411592796257525
76.85600000000001,0.015928632212237726,-0.015928632212237726
76.857,0.009243554617120564,-0.009243554617120564
76.858,0.02518187970236352,-0.02518187970236352
76.85900000000001,0.06079756939815484,-0.06079756939815484
76.86,0.10622081495322888,-0.10622081495322888
76.861,0.147068641926832,-0.147068641926832
76.86200000000001,0.1685862130253608,-0.1685862130253608
76.863,0.1603132353111405,-0.1603132353111405
76.864,0.11980908064669304,-0.11980908064669304
76.86500000000001,0.05417962604867055,-0.05417962604867055
76.866,0.021220688942343635,0.021220688942343635
76.867,0.08667722667101052,0.08667722667101052
76.86800000000001,0.12354001961474248,0.12354001961474248
76.869,0.11961712906376576,0.11961712906376576
76.87,0.07292973625014976,0.07292973625014976
76.87100000000001,0.007321600479080481,-0.007321600479080481
76.872,0.10291651144727354,-0.10291651144727354
76.873,0.1913165892946117,-0.1913165892946117
76.87400000000001,0.2515808539136096,-0.2515808539136096
76.875,0.2698224794251495,-0.2698224794251495
76.876,0.24268939040132254,-0.24268939040132254
76.87700000000001,0.17794811122272403,-0.17794811122272403
76.878,0.09209839893657501,-0.09209839893657501
76.879,0.00578541887048345,-0.00578541887048345
76.88000000000001,0.06164083934166409,0.06164083934166409
76.881,0.09690170991537062,0.09690170991537062
76.882,0.09565895612670183,0.09565895612670183
76.88300000000001,0.06284420523757439,0.06284420523757439
76.884,0.010561901495833803,0.010561901495833803
76.885,0.045665208284691006,-0.045665208284691006
76.88600000000001,0.09115518291910074,-0.09115518291910074
76.887,0.11565251568058232,-0.11565251568058232
76.888,0.11536901029907998,-0.11536901029907998
76.88900000000001,0.09312568355004036,-0.09312568355004036
76.89,0.05679773381788755,-0.05679773381788755
76.891,0.01669622829959183,-0.01669622829959183
76.89200000000001,0.017281031224620103,0.017281031224620103
76.893,0.037957331547713746,0.037957331547713746
76.894,0.042137425922112115,0.042137425922112115
76.89500000000001,0.030679161062684646,0.030679161062684646
76.896,0.0075781010350388645,0.0075781010350388645
76.897,0.021507521095918025,-0.021507521095918025
76.89800000000001,0.05080126845922439,-0.05080126845922439
76.899,0.07562043382051742,-0.07562043382051742
76.9,0.09303763012849742,-0.09303763012849742
76.90100000000001,0.10197947067517321,-0.10197947067517321
76.902,0.10290899136435483,-0.10290899136435483
76.903,0.09731221894537867,-0.09731221894537867
76.90400000000001,0.08719356616008056,-0.08719356616008056
76.905,0.07470580234450741,-0.07470580234450741
76.906,0.06194045545205906,-0.06194045545205906
76.90700000000001,0.050824728707952405,-0.050824728707952405
76.908,0.04303744730549086,-0.04303744730549086
76.909,0.03987383551394352,-0.03987383551394352
76.91000000000001,0.0420421121753477,-0.0420421121753477
76.911,0.04943754449283477,-0.04943754449283477
76.912,0.060984452126159994,-0.060984452126159994
76.91300000000001,0.07464497254033842,-0.07464497254033842
76.914,0.08766033083035252,-0.08766033083035252
76.915,0.09702534676223895,-0.09702534676223895
76.91600000000001,0.10011990827899009,-0.10011990827899009
76.917,0.09535632100527058,-0.09535632100527058
76.918,0.08267038478683719,-0.08267038478683719
76.91900000000001,0.06369994176522109,-0.06369994176522109
76.92,0.04155856854142015,-0.04155856854142015
76.921,0.020211923391599163,-0.020211923391599163
76.92200000000001,0.003576459961447287,-0.003576459961447287
76.923,0.005445525099515347,0.005445525099515347
76.924,0.005734173397059061,0.005734173397059061
76.92500000000001,0.0017140217320351647,-0.0017140217320351647
76.926,0.014028238546587524,-0.014028238546587524
76.927,0.027270085733182015,-0.027270085733182015
76.92800000000001,0.03762178403906746,-0.03762178403906746
76.929,0.042631133159193646,-0.042631133159193646
76.93,0.04212748236839914,-0.04212748236839914
76.93100000000001,0.03847436876470467,-0.03847436876470467
76.932,0.035990055340261895,-0.035990055340261895
76.933,0.03961142023891018,-0.03961142023891018
76.93400000000001,0.05313241302027771,-0.05313241302027771
76.935,0.07753405726931761,-0.07753405726931761
76.936,0.10996784626662248,-0.10996784626662248
76.93700000000001,0.14382361256893017,-0.14382361256893017
76.938,0.17002500265539477,-0.17002500265539477
76.93900000000001,0.1793234803142273,-0.1793234803142273
76.94000000000001,0.16501555020218006,-0.16501555020218006
76.941,0.12530300461607746,-0.12530300461607746
76.94200000000001,0.06453500837288573,-0.06453500837288573
76.94300000000001,0.007167815089563545,0.007167815089563545
76.944,0.07596224549263475,0.07596224549263475
76.94500000000001,0.12755525440148086,0.12755525440148086
76.94600000000001,0.15084392600564378,0.15084392600564378
76.947,0.14089176168097972,0.14089176168097972
76.94800000000001,0.10034359665187664,0.10034359665187664
76.94900000000001,0.03880066794745818,0.03880066794745818
76.95,0.02973147891195438,-0.02973147891195438
76.95100000000001,0.09062388345727335,-0.09062388345727335
76.95200000000001,0.1325413068550959,-0.1325413068550959
76.953,0.1503345511891131,-0.1503345511891131
76.95400000000001,0.14603964032589167,-0.14603964032589167
76.95500000000001,0.12768969619758264,-0.12768969619758264
76.956,0.10632646342709162,-0.10632646342709162
76.95700000000001,0.09217063824489247,-0.09217063824489247
76.95800000000001,0.09118550414472659,-0.09118550414472659
76.959,0.1031498657344182,-0.1031498657344182
76.96000000000001,0.1218730593864904,-0.1218730593864904
76.96100000000001,0.13748671860255013,-0.13748671860255013
76.962,0.14005955828209082,-0.14005955828209082
76.96300000000001,0.12332973989019769,-0.12332973989019769
76.96400000000001,0.08728854832825717,-0.08728854832825717
76.965,0.03870733014398031,-0.03870733014398031
76.96600000000001,0.01063331799668732,0.01063331799668732
76.96700000000001,0.0474923600049284,0.0474923600049284
76.968,0.061371458357286635,0.061371458357286635
76.96900000000001,0.04800492321777461,0.04800492321777461
76.97000000000001,0.010972456058799374,0.010972456058799374
76.971,0.03913832105712123,-0.03913832105712123
76.97200000000001,0.08780342656033979,-0.08780342656033979
76.97300000000001,0.12092253171893896,-0.12092253171893896
76.974,0.12909304162704494,-0.12909304162704494
76.97500000000001,0.11043995767985493,-0.11043995767985493
76.97600000000001,0.0711022148357483,-0.0711022148357483
76.977,0.023229511456674512,-0.023229511456674512
76.97800000000001,0.018855337779433823,0.018855337779433823
76.97900000000001,0.043087936611003075,0.043087936611003075
76.98,0.04326909316690264,0.04326909316690264
76.98100000000001,0.0207145647843745,0.0207145647843745
76.982,0.016531049247161422,-0.016531049247161422
76.983,0.05659315264236853,-0.05659315264236853
76.98400000000001,0.08777197399035219,-0.08777197399035219
76.985,0.1023065863610898,-0.1023065863610898
76.986,0.09866370055764029,-0.09866370055764029
76.98700000000001,0.08163798402381395,-0.08163798402381395
76.988,0.06030058508710645,-0.06030058508710645
76.989,0.04455635194365026,-0.04455635194365026
76.99000000000001,0.0415248021974004,-0.0415248021974004
76.991,0.0529957569728674,-0.0529957569728674
76.992,0.07482144751681241,-0.07482144751681241
76.99300000000001,0.09843038830732331,-0.09843038830732331
76.994,0.1139176041969423,-0.1139176041969423
76.995,0.11362965111767853,-0.11362965111767853
76.99600000000001,0.09500102368324215,-0.09500102368324215
76.997,0.06166158237255237,-0.06166158237255237
76.998,0.022428435967250415,-0.022428435967250415
76.99900000000001,0.011484710866223047,0.011484710866223047
77.0,0.030107182337354876,0.030107182337354876
77.001,0.02798584818364591,0.02798584818364591
77.00200000000001,0.0060097915242411926,0.0060097915242411926
77.003,0.028810279285072404,-0.028810279285072404
77.004,0.06552401372518091,-0.06552401372518091
77.00500000000001,0.09266202217619435,-0.09266202217619435
77.006,0.10178511336358742,-0.10178511336358742
77.007,0.09003817053374308,-0.09003817053374308
77.00800000000001,0.060936936777860495,-0.060936936777860495
77.009,0.023205383397656876,-0.023205383397656876
77.01,0.011895775555279542,0.011895775555279542
77.01100000000001,0.03385900076265158,0.03385900076265158
77.012,0.03581021688526875,0.03581021688526875
77.013,0.016153354112611318,0.016153354112611318
77.01400000000001,0.021394132995268045,-0.021394132995268045
77.015,0.06921281537424273,-0.06921281537424273
77.016,0.11804622202522419,-0.11804622202522419
77.01700000000001,0.15933468033422504,-0.15933468033422504
77.018,0.18692710376380128,-0.18692710376380128
77.019,0.1977969282755898,-0.1977969282755898
77.02000000000001,0.1917925992252294,-0.1917925992252294
77.021,0.1707862105779946,-0.1707862105779946
77.022,0.13772673065397423,-0.13772673065397423
77.02300000000001,0.0960192793371657,-0.0960192793371657
77.024,0.0493943609827755,-0.0493943609827755
77.025,0.002123512611218681,-0.002123512611218681
77.02600000000001,0.040780116048652504,0.040780116048652504
77.027,0.07376682966561376,0.07376682966561376
77.028,0.09157331583578698,0.09157331583578698
77.02900000000001,0.09056077480652669,0.09056077480652669
77.03,0.07014792325021779,0.07014792325021779
77.031,0.03374197802599088,0.03374197802599088
77.03200000000001,0.011369178974115823,-0.011369178974115823
77.033,0.05539829776998273,-0.05539829776998273
77.034,0.08849705182351231,-0.08849705182351231
77.03500000000001,0.10359668122264476,-0.10359668122264476
77.036,0.09874369594259935,-0.09874369594259935
77.037,0.07807387114796971,-0.07807387114796971
77.03800000000001,0.05093536464503756,-0.05093536464503756
77.039,0.029253800814227682,-0.029253800814227682
77.04,0.023839084925323273,-0.023839084925323273
77.04100000000001,0.040752541148887045,-0.040752541148887045
77.042,0.07892267903326577,-0.07892267903326577
77.043,0.12987011575271223,-0.12987011575271223
77.04400000000001,0.17976457248566036,-0.17976457248566036
77.045,0.213289200248738,-0.213289200248738
77.046,0.21817710683438418,-0.21817710683438418
77.04700000000001,0.18902287949136598,-0.18902287949136598
77.048,0.12915859503664462,-0.12915859503664462
77.049,0.04997093048912127,-0.04997093048912127
77.05000000000001,0.032161447859229364,0.032161447859229364
77.051,0.1003749163897314,0.1003749163897314
77.052,0.14187852323004235,0.14187852323004235
77.05300000000001,0.1511621768531255,0.1511621768531255
77.054,0.1309056560685078,0.1309056560685078
77.055,0.09039604937178036,0.09039604937178036
77.05600000000001,0.04207204775499718,0.04207204775499718
77.057,0.002594087000875045,-0.002594087000875045
77.058,0.03648952388487137,-0.03648952388487137
77.05900000000001,0.058436123233675086,-0.058436123233675086
77.06,0.07251520329790129,-0.07251520329790129
77.061,0.08550378623040877,-0.08550378623040877
77.06200000000001,0.10343819501238571,-0.10343819501238571
77.063,0.12860860218293424,-0.12860860218293424
77.06400000000001,0.15811254965251287,-0.15811254965251287
77.06500000000001,0.1845210768477662,-0.1845210768477662
77.066,0.1984413419230987,-0.1984413419230987
77.06700000000001,0.1920657853041885,-0.1920657853041885
77.06800000000001,0.16242444809322887,-0.16242444809322887
77.069,0.11313641969975019,-0.11313641969975019
77.07000000000001,0.05396270886874388,-0.05396270886874388
77.07100000000001,0.001778938137900754,0.001778938137900754
77.072,0.041129845499054074,0.041129845499054074
77.07300000000001,0.05545360973744273,0.05545360973744273
77.07400000000001,0.04312478123681096,0.04312478123681096
77.075,0.010034376936754352,0.010034376936754352
77.07600000000001,0.03227232987247597,-0.03227232987247597
77.07700000000001,0.07022305252811933,-0.07022305252811933
77.078,0.0924258808072006,-0.0924258808072006
77.07900000000001,0.0930909597620766,-0.0930909597620766
77.08000000000001,0.07357816224984026,-0.07357816224984026
77.081,0.04161883335076222,-0.04161883335076222
77.08200000000001,0.008534401570622463,-0.008534401570622463
77.08300000000001,0.014576021629272962,0.014576021629272962
77.084,0.020398796745787928,0.020398796745787928
77.08500000000001,0.007567299844075892,0.007567299844075892
77.08600000000001,0.019222526946977903,-0.019222526946977903
77.087,0.05108266737837086,-0.05108266737837086
77.08800000000001,0.07807384652611371,-0.07807384652611371
77.08900000000001,0.09251372250459022,-0.09251372250459022
77.09,0.0913508236618692,-0.0913508236618692
77.09100000000001,0.07687449935109647,-0.07687449935109647
77.09200000000001,0.0556290505060123,-0.0556290505060123
77.093,0.03600815895412346,-0.03600815895412346
77.09400000000001,0.025414765205697187,-0.025414765205697187
77.09500000000001,0.027952568432620173,-0.027952568432620173
77.096,0.043360911952457615,-0.043360911952457615
77.09700000000001,0.0674259569630874,-0.0674259569630874
77.09800000000001,0.09358161593908487,-0.09358161593908487
77.099,0.1150406383086493,-0.1150406383086493
77.10000000000001,0.12669154290593942,-0.12669154290593942
77.10100000000001,0.12617666381011705,-0.12617666381011705
77.102,0.11393989284698036,-0.11393989284698036
77.10300000000001,0.0924422506226451,-0.0924422506226451
77.10400000000001,0.06502783361267417,-0.06502783361267417
77.105,0.03497909510718933,-0.03497909510718933
77.10600000000001,0.005122311620841757,-0.005122311620841757
77.107,0.02197927984019432,0.02197927984019432
77.108,0.043528973600071685,0.043528973600071685
77.10900000000001,0.05615730053657031,0.05615730053657031
77.11,0.056149374118423134,0.056149374118423134
77.111,0.040384179225666506,0.040384179225666506
77.11200000000001,0.00776098248893331,0.00776098248893331
77.113,0.039429832607556836,-0.039429832607556836
77.114,0.09485331067422442,-0.09485331067422442
77.11500000000001,0.14870173727334646,-0.14870173727334646
77.116,0.1896049432950372,-0.1896049432950372
77.117,0.2074894906956063,-0.2074894906956063
77.11800000000001,0.1965732014430438,-0.1965732014430438
77.119,0.1575087886153701,-0.1575087886153701
77.12,0.09785928345511663,-0.09785928345511663
77.12100000000001,0.030567567558729802,-0.030567567558729802
77.122,0.029275490611291533,0.029275490611291533
77.123,0.06847221602979814,0.06847221602979814
77.12400000000001,0.07935407654676174,0.07935407654676174
77.125,0.06186776483819756,0.06186776483819756
77.126,0.023423778782922122,0.023423778782922122
77.12700000000001,0.023477161656796364,-0.023477161656796364
77.128,0.06510721793713103,-0.06510721793713103
77.129,0.09064303777784866,-0.09064303777784866
77.13000000000001,0.09525530778479874,-0.09525530778479874
77.131,0.08119073131712495,-0.08119073131712495
77.132,0.05654742750030517,-0.05654742750030517
77.13300000000001,0.03220836164734786,-0.03220836164734786
77.134,0.017999367891284757,-0.017999367891284757
77.135,0.019375050684906636,-0.019375050684906636
77.13600000000001,0.035729645799107534,-0.035729645799107534
77.137,0.06085568259764984,-0.06085568259764984
77.138,0.08533188503927969,-0.08533188503927969
77.13900000000001,0.09996942823202393,-0.09996942823202393
77.14,0.0991045447265595,-0.0991045447265595
77.141,0.08260673608460756,-0.08260673608460756
77.14200000000001,0.05593865502552409,-0.05593865502552409
77.143,0.028286524785598566,-0.028286524785598566
77.144,0.00943813687767614,-0.00943813687767614
77.14500000000001,0.006492897632821237,-0.006492897632821237
77.146,0.021512229875466193,-0.021512229875466193
77.147,0.05086344461137349,-0.05086344461137349
77.14800000000001,0.08641244785240487,-0.08641244785240487
77.149,0.11809656937429369,-0.11809656937429369
77.15,0.136975324643534,-0.136975324643534
77.15100000000001,0.13775473456803233,-0.13775473456803233
77.152,0.12002720334565875,-0.12002720334565875
77.153,0.0879566316567213,-0.0879566316567213
77.15400000000001,0.04867968202039352,-0.04867968202039352
77.155,0.01009254390222658,-0.01009254390222658
77.156,0.02118442531513698,0.02118442531513698
77.15700000000001,0.04104685612991399,0.04104685612991399
77.158,0.04811650068044382,0.04811650068044382
77.159,0.04311214095689864,0.04311214095689864
77.16000000000001,0.02786918569462027,0.02786918569462027
77.161,0.004553092053940722,0.004553092053940722
77.162,0.024579683037497913,-0.024579683037497913
77.16300000000001,0.056864445770345884,-0.056864445770345884
77.164,0.08868555938691403,-0.08868555938691403
77.165,0.1152163330592485,-0.1152163330592485
77.16600000000001,0.13087493508619819,-0.13087493508619819
77.167,0.13062033853656652,-0.13062033853656652
77.168,0.11178883054561961,-0.11178883054561961
77.16900000000001,0.07581329531749048,-0.07581329531749048
77.17,0.029041283203914303,-0.029041283203914303
77.171,0.017940779713557786,0.017940779713557786
77.17200000000001,0.052597748841135106,0.052597748841135106
77.173,0.06387153126183853,0.06387153126183853
77.174,0.04575670903406026,0.04575670903406026
77.17500000000001,0.0001692198668393763,-0.0001692198668393763
77.176,0.06425641177435215,-0.06425641177435215
77.177,0.13075119439709115,-0.13075119439709115
77.17800000000001,0.18185499776027325,-0.18185499776027325
77.179,0.20277507861581578,-0.20277507861581578
77.18,0.18625022992064977,-0.18625022992064977
77.18100000000001,0.13509526980623443,-0.13509526980623443
77.182,0.061856257442964746,-0.061856257442964746
77.183,0.014454904291761661,0.014454904291761661
77.18400000000001,0.07365113910603571,0.07365113910603571
77.185,0.1001205877035749,0.1001205877035749
77.186,0.0872873929267226,0.0872873929267226
77.18700000000001,0.03940909879604737,0.03940909879604737
77.188,0.029840800763219155,-0.029840800763219155
77.18900000000001,0.10155073633106348,-0.10155073633106348
77.19000000000001,0.15719254364761492,-0.15719254364761492
77.191,0.1839323474340243,-0.1839323474340243
77.19200000000001,0.17800549562979617,-0.17800549562979617
77.19300000000001,0.1451788383148186,-0.1451788383148186
77.194,0.09827413853880385,-0.09827413853880385
77.19500000000001,0.05266336320039744,-0.05266336320039744
77.19600000000001,0.021263674209884176,-0.021263674209884176
77.197,0.010662079721736939,-0.010662079721736939
77.19800000000001,0.01956654728713836,-0.01956654728713836
77.19900000000001,0.03996965893625215,-0.03996965893625215
77.2,0.06050172677732746,-0.06050172677732746
77.20100000000001,0.07074677805801932,-0.07074677805801932
77.20200000000001,0.06502349331023116,-0.06502349331023116
77.203,0.04436935902750749,-0.04436935902750749
77.20400000000001,0.016113552247259855,-0.016113552247259855
77.20500000000001,0.008747725784482352,0.008747725784482352
77.206,0.019432595593348534,0.019432595593348534
77.20700000000001,0.009181985584521657,0.009181985584521657
77.20800000000001,0.022269275467658556,-0.022269275467658556
77.209,0.06834502905607587,-0.06834502905607587
77.21000000000001,0.11747430626520983,-0.11747430626520983
77.21100000000001,0.1564940532808169,-0.1564940532808169
77.212,0.1745007074185816,-0.1745007074185816
77.21300000000001,0.1659515597639457,-0.1659515597639457
77.21400000000001,0.13211058068817738,-0.13211058068817738
77.215,0.0804938829706573,-0.0804938829706573
77.21600000000001,0.022599965582004722,-0.022599965582004722
77.21700000000001,0.029295877196007236,0.029295877196007236
77.218,0.06529002395377126,0.06529002395377126
77.21900000000001,0.08005803955258561,0.08005803955258561
77.22000000000001,0.07360370994737031,0.07360370994737031
77.221,0.05051432095702113,0.05051432095702113
77.22200000000001,0.018122269646175138,0.018122269646175138
77.22300000000001,0.015766986800193505,-0.015766986800193505
77.224,0.0448923951104665,-0.0448923951104665
77.22500000000001,0.06579014094072477,-0.06579014094072477
77.22600000000001,0.07806957670371839,-0.07806957670371839
77.227,0.08380686394459902,-0.08380686394459902
77.22800000000001,0.08637364589788077,-0.08637364589788077
77.22900000000001,0.0891083879028689,-0.0891083879028689
77.23,0.09420014316565095,-0.09420014316565095
77.23100000000001,0.1020317558151792,-0.1020317558151792
77.232,0.11107935169937566,-0.11107935169937566
77.233,0.11833406317928519,-0.11833406317928519
77.23400000000001,0.12012180681648832,-0.12012180681648832
77.235,0.11314453195961072,-0.11314453195961072
77.236,0.09553677455838094,-0.09553677455838094
77.23700000000001,0.06771437866927899,-0.06771437866927899
77.238,0.032793240118634825,-0.032793240118634825
77.239,0.0036053168422247595,0.0036053168422247595
77.24000000000001,0.03424815913991952,0.03424815913991952
77.241,0.05180758713720768,0.05180758713720768
77.242,0.05072921563328503,0.05072921563328503
77.24300000000001,0.029001257182539986,0.029001257182539986
77.244,0.010705909669276426,-0.010705909669276426
77.245,0.06098906294539197,-0.06098906294539197
77.24600000000001,0.11096782464537547,-0.11096782464537547
77.247,0.14869820644287257,-0.14869820644287257
77.248,0.16420786557683797,-0.16420786557683797
77.24900000000001,0.1523388192736631,-0.1523388192736631
77.25,0.1145295755179424,-0.1145295755179424
77.251,0.058891707760526546,-0.058891707760526546
77.25200000000001,0.0016024909752347938,0.0016024909752347938
77.253,0.052431857976073415,0.052431857976073415
77.254,0.08144554703759055,0.08144554703759055
77.25500000000001,0.08224075051992674,0.08224075051992674
77.256,0.055947501928655274,0.055947501928655274
77.257,0.01081571170412543,0.01081571170412543
77.25800000000001,0.04032954656981902,-0.04032954656981902
77.259,0.08401402812581815,-0.08401402812581815
77.26,0.11020183262290717,-0.11020183262290717
77.26100000000001,0.1152389926015015,-0.1152389926015015
77.262,0.10269172434765639,-0.10269172434765639
77.263,0.08179320665241163,-0.08179320665241163
77.26400000000001,0.06400330598036141,-0.06400330598036141
77.265,0.05882764092611725,-0.05882764092611725
77.266,0.07031328518443059,-0.07031328518443059
77.26700000000001,0.09543546016613647,-0.09543546016613647
77.268,0.12496914734235542,-0.12496914734235542
77.269,0.14660261654012252,-0.14660261654012252
77.27000000000001,0.14927672524662117,-0.14927672524662117
77.271,0.12728962606761807,-0.12728962606761807
77.272,0.0827496039657245,-0.0827496039657245
77.27300000000001,0.02548412378244158,-0.02548412378244158
77.274,0.029648938097164956,0.029648938097164956
77.275,0.06723042652444411,0.06723042652444411
77.27600000000001,0.07610110627440303,0.07610110627440303
77.277,0.05296552940317145,0.05296552940317145
77.278,0.0035897096419610364,0.0035897096419610364
77.27900000000001,0.0588181927667808,-0.0588181927667808
77.28,0.11753806180036797,-0.11753806180036797
77.281,0.15732274354007292,-0.15732274354007292
77.28200000000001,0.16884752351199228,-0.16884752351199228
77.283,0.1512244592081431,-0.1512244592081431
77.284,0.11182882551353945,-0.11182882551353945
77.28500000000001,0.06356844864144295,-0.06356844864144295
77.286,0.020550740044395832,-0.020550740044395832
77.287,0.006404615903957467,0.006404615903957467
77.28800000000001,0.012953069636549852,0.012953069636549852
77.289,0.00212939252677824,0.00212939252677824
77.29,0.017234754882350933,-0.017234754882350933
77.29100000000001,0.033960847750476586,-0.033960847750476586
77.292,0.03862991597865717,-0.03862991597865717
77.293,0.026959810049762,-0.026959810049762
77.29400000000001,0.0013538413788497516,-0.0013538413788497516
77.295,0.02984347435576362,0.02984347435576362
77.296,0.05508553055003507,0.05508553055003507
77.29700000000001,0.0634242876638853,0.0634242876638853
77.298,0.04813139490293783,0.04813139490293783
77.299,0.009001557097857882,0.009001557097857882
77.30000000000001,0.04734179009028694,-0.04734179009028694
77.301,0.10917184197160412,-0.10917184197160412
77.302,0.16283010689945931,-0.16283010689945931
77.30300000000001,0.19636215815839253,-0.19636215815839253
77.304,0.2025645179122919,-0.2025645179122919
77.305,0.18063907620541197,-0.18063907620541197
77.30600000000001,0.13611349655783445,-0.13611349655783445
77.307,0.07919799975590747,-0.07919799975590747
77.308,0.02215144083580689,-0.02215144083580689
77.30900000000001,0.02358177830497299,0.02358177830497299
77.31,0.049750661835806564,0.049750661835806564
77.311,0.05271021271064802,0.05271021271064802
77.31200000000001,0.033698553816777554,0.033698553816777554
77.313,0.0019010605627755028,-0.0019010605627755028
77.31400000000001,0.046001162266611995,-0.046001162266611995
77.31500000000001,0.08957150958528493,-0.08957150958528493
77.316,0.12436790674992038,-0.12436790674992038
77.31700000000001,0.144357155278647,-0.144357155278647
77.31800000000001,0.14665675079966378,-0.14665675079966378
77.319,0.13188317076084743,-0.13188317076084743
77.32000000000001,0.10386728774790643,-0.10386728774790643
77.32100000000001,0.06876917423829265,-0.06876917423829265
77.322,0.03372250578213276,-0.03372250578213276
77.32300000000001,0.0052541511551083,-0.0052541511551083
77.32400000000001,0.012176530997037638,0.012176530997037638
77.325,0.017141485804542222,0.017141485804542222
77.32600000000001,0.011409245743705165,0.011409245743705165
77.32700000000001,0.0007973054949773628,-0.0007973054949773628
77.328,0.014289610045025825,-0.014289610045025825
77.32900000000001,0.02472260545842031,-0.02472260545842031
77.33000000000001,0.030138872925634663,-0.030138872925634663
77.331,0.03168691176907068,-0.03168691176907068
77.33200000000001,0.03318299546119752,-0.03318299546119752
77.33300000000001,0.03956756752539903,-0.03956756752539903
77.334,0.05471925849102466,-0.05471925849102466
77.33500000000001,0.07938318585046233,-0.07938318585046233
77.33600000000001,0.11002116702972131,-0.11002116702972131
77.337,0.1391512992744971,-0.1391512992744971
77.33800000000001,0.1572672163804285,-0.1572672163804285
77.33900000000001,0.1558611106977319,-0.1558611106977319
77.34,0.1306156789465025,-0.1306156789465025
77.34100000000001,0.08365567300733012,-0.08365567300733012
77.34200000000001,0.02395097156358772,-0.02395097156358772
77.343,0.034495401455706176,0.034495401455706176
77.34400000000001,0.07631905180163989,0.07631905180163989
77.34500000000001,0.0893053304353677,0.0893053304353677
77.346,0.06834612517998107,0.06834612517998107
77.34700000000001,0.017517825879371562,0.017517825879371562
77.34800000000001,0.05052537979308569,-0.05052537979308569
77.349,0.11782776602719947,-0.11782776602719947
77.35000000000001,0.1661984484777379,-0.1661984484777379
77.35100000000001,0.18256768345833463,-0.18256768345833463
77.352,0.16297338930147476,-0.16297338930147476
77.35300000000001,0.11389133088573744,-0.11389133088573744
77.35400000000001,0.05042376816073646,-0.05042376816073646
77.355,0.008159277211619465,0.008159277211619465
77.35600000000001,0.04419007731502922,0.04419007731502922
77.357,0.046920139803941385,0.046920139803941385
77.358,0.015748464202577583,0.015748464202577583
77.35900000000001,0.039626393559273,-0.039626393559273
77.36,0.1021588694244644,-0.1021588694244644
77.361,0.1525812150971808,-0.1525812150971808
77.36200000000001,0.17511341093256172,-0.17511341093256172
77.363,0.16202612477561773,-0.16202612477561773
77.364,0.11572447025962107,-0.11572447025962107
77.36500000000001,0.04782191209131059,-0.04782191209131059
77.366,0.024391706521413647,0.024391706521413647
77.367,0.08291847999577895,0.08291847999577895
77.36800000000001,0.11392550077658137,0.11392550077658137
77.369,0.11112449608606934,0.11112449608606934
77.37,0.07681462059852184,0.07681462059852184
77.37100000000001,0.020514210332422067,0.020514210332422067
77.372,0.04417154445138982,-0.04417154445138982
77.373,0.10335342125586977,-0.10335342125586977
77.37400000000001,0.14618212149322807,-0.14618212149322807
77.375,0.16685406926485746,-0.16685406926485746
77.376,0.16498959167357707,-0.16498959167357707
77.37700000000001,0.14461803573130882,-0.14461803573130882
77.378,0.112375796235469,-0.112375796235469
77.379,0.07561955142672994,-0.07561955142672994
77.38000000000001,0.04098936387657626,-0.04098936387657626
77.381,0.013633929556427948,-0.013633929556427948
77.382,0.003011417285575524,0.003011417285575524
77.38300000000001,0.0071888773321919786,0.0071888773321919786
77.384,0.0011926608883882084,-0.0011926608883882084
77.385,0.0204374200448163,-0.0204374200448163
77.38600000000001,0.04693866150562509,-0.04693866150562509
77.387,0.07533537224483444,-0.07533537224483444
77.388,0.09921998344725202,-0.09921998344725202
77.38900000000001,0.11246636720182446,-0.11246636720182446
77.39,0.11093629819641215,-0.11093629819641215
77.391,0.09404032011858343,-0.09404032011858343
77.39200000000001,0.06551879730478316,-0.06551879730478316
77.393,0.032955318798547295,-0.032955318798547295
77.394,0.005920528090954669,-0.005920528090954669
77.39500000000001,0.006851975601156024,0.006851975601156024
77.396,0.00042173941601841847,0.00042173941601841847
77.397,0.024288768346403145,-0.024288768346403145
77.39800000000001,0.060154841343413645,-0.060154841343413645
77.399,0.09557584814534881,-0.09557584814534881
77.4,0.11791040095271643,-0.11791040095271643
77.40100000000001,0.11762407733007829,-0.11762407733007829
77.402,0.09180388671397699,-0.09180388671397699
77.403,0.04578600944613931,-0.04578600944613931
77.40400000000001,0.0078184860422843,0.0078184860422843
77.405,0.05258666182005478,0.05258666182005478
77.406,0.07327232312171139,0.07327232312171139
77.40700000000001,0.06077943123974805,0.06077943123974805
77.408,0.015489252768376982,0.015489252768376982
77.409,0.0522354849887664,-0.0522354849887664
77.41000000000001,0.12467523736444774,-0.12467523736444774
77.411,0.18180186495448136,-0.18180186495448136
77.412,0.20722906569765343,-0.20722906569765343
77.41300000000001,0.193202544978486,-0.193202544978486
77.414,0.14302918187677427,-0.14302918187677427
77.415,0.07013686042214473,-0.07013686042214473
77.41600000000001,0.005972273690935781,0.005972273690935781
77.417,0.06561242861535677,0.06561242861535677
77.418,0.0947881422626009,0.0947881422626009
77.41900000000001,0.0891958424114212,0.0891958424114212
77.42,0.05510586210787416,0.05510586210787416
77.421,0.006891106836005578,0.006891106836005578
77.42200000000001,0.03794707834642841,-0.03794707834642841
77.423,0.06460644577974617,-0.06460644577974617
77.424,0.0657624189604824,-0.0657624189604824
77.42500000000001,0.04376622504872596,-0.04376622504872596
77.426,0.009596956930122302,-0.009596956930122302
77.427,0.02102806447489658,0.02102806447489658
77.42800000000001,0.03306024773195704,0.03306024773195704
77.429,0.017248728355584664,0.017248728355584664
77.43,0.026679705417751554,-0.026679705417751554
77.43100000000001,0.08979423633589634,-0.08979423633589634
77.432,0.15671224901648395,-0.15671224901648395
77.433,0.21039002068073398,-0.21039002068073398
77.43400000000001,0.23737499129039008,-0.23737499129039008
77.435,0.23183300146145347,-0.23183300146145347
77.436,0.19710206142830378,-0.19710206142830378
77.43700000000001,0.1443520466743149,-0.1443520466743149
77.438,0.08886722889166132,-0.08886722889166132
77.43900000000001,0.045209461279726804,-0.045209461279726804
77.44000000000001,0.022832180625488308,-0.022832180625488308
77.441,0.02351409309884467,-0.02351409309884467
77.44200000000001,0.04135016064405872,-0.04135016064405872
77.44300000000001,0.06519489259991507,-0.06519489259991507
77.444,0.08267640974647417,-0.08267640974647417
77.44500000000001,0.08443395226125128,-0.08443395226125128
77.44600000000001,0.06721158278623729,-0.06721158278623729
77.447,0.03485446986706331,-0.03485446986706331
77.44800000000001,0.0030474201164991666,0.0030474201164991666
77.44900000000001,0.03437156598389124,0.03437156598389124
77.45,0.0484663890459327,0.0484663890459327
77.45100000000001,0.03966569302788692,0.03966569302788692
77.45200000000001,0.009221872528317299,0.009221872528317299
77.453,0.03491757127965289,-0.03491757127965289
77.45400000000001,0.08039198330905417,-0.08039198330905417
77.45500000000001,0.11404945826836588,-0.11404945826836588
77.456,0.1258068216115591,-0.1258068216115591
77.45700000000001,0.11160297284246345,-0.11160297284246345
77.45800000000001,0.07459637900385696,-0.07459637900385696
77.459,0.024290463094334802,-0.024290463094334802
77.46000000000001,0.02612339330659985,0.02612339330659985
77.46100000000001,0.06341359556930026,0.06341359556930026
77.462,0.07789610412294401,0.07789610412294401
77.46300000000001,0.06595896247333788,0.06595896247333788
77.46400000000001,0.03084937776467389,0.03084937776467389
77.465,0.0184424594523398,-0.0184424594523398
77.46600000000001,0.06982891246296352,-0.06982891246296352
77.46700000000001,0.11150653896607599,-0.11150653896607599
77.468,0.13509578625394425,-0.13509578625394425
77.46900000000001,0.13765730472923798,-0.13765730472923798
77.47000000000001,0.12204960503992046,-0.12204960503992046
77.471,0.09558743054568508,-0.09558743054568508
77.47200000000001,0.06746086746774571,-0.06746086746774571
77.47300000000001,0.04573705329988942,-0.04573705329988942
77.474,0.03488267990442928,-0.03488267990442928
77.47500000000001,0.034578928759297245,-0.034578928759297245
77.47600000000001,0.040195902533910255,-0.040195902533910255
77.477,0.04476827543546158,-0.04476827543546158
77.47800000000001,0.04182585532287941,-0.04182585532287941
77.47900000000001,0.0281353699801562,-0.0281353699801562
77.48,0.005404496278788362,-0.005404496278788362
77.48100000000001,0.01969901678474284,0.01969901678474284
77.482,0.037332744237015936,0.037332744237015936
77.483,0.03759409277633474,0.03759409277633474
77.48400000000001,0.014015343664216307,0.014015343664216307
77.485,0.033699350482063406,-0.033699350482063406
77.486,0.0986615565245691,-0.0986615565245691
77.48700000000001,0.16797806166258322,-0.16797806166258322
77.488,0.22590776979633198,-0.22590776979633198
77.489,0.2581304445832764,-0.2581304445832764
77.49000000000001,0.255857133407559,-0.255857133407559
77.491,0.21849989164585681,-0.21849989164585681
77.492,0.15402203209809895,-0.15402203209809895
77.49300000000001,0.07679569236910344,-0.07679569236910344
77.494,0.0035809449367540935,-0.0035809449367540935
77.495,0.05114740131185136,0.05114740131185136
77.49600000000001,0.0790719854571924,0.0790719854571924
77.497,0.07989614621933794,0.07989614621933794
77.498,0.06063957366761685,0.06063957366761685
77.49900000000001,0.03265266815692236,0.03265266815692236
77.5,0.00739517656357469,0.00739517656357469
77.501,0.0075622481604138425,-0.0075622481604138425
77.50200000000001,0.010936761162793296,-0.010936761162793296
77.503,0.007713912927848399,-0.007713912927848399
77.504,0.006742210317991049,-0.006742210317991049
77.50500000000001,0.01682503407610081,-0.01682503407610081
77.506,0.042746044381808734,-0.042746044381808734
77.507,0.08271616606858057,-0.08271616606858057
77.50800000000001,0.12825051171109902,-0.12825051171109902
77.509,0.16662873296158043,-0.16662873296158043
77.51,0.1851565071827015,-0.1851565071827015
77.51100000000001,0.17576079673502543,-0.17576079673502543
77.512,0.1382695018261394,-0.1382695018261394
77.513,0.08112808699993701,-0.08112808699993701
77.51400000000001,0.019167253024478637,-0.019167253024478637
77.515,0.030934918882923768,0.030934918882923768
77.516,0.0560157873129421,0.0560157873129421
77.51700000000001,0.05079291516232032,0.05079291516232032
77.518,0.01969573287045545,0.01969573287045545
77.519,0.024536244561983223,-0.024536244561983223
77.52000000000001,0.06508680527274269,-0.06508680527274269
77.521,0.08673721536777379,-0.08673721536777379
77.522,0.08106429214715183,-0.08106429214715183
77.52300000000001,0.049376465198289976,-0.049376465198289976
77.524,0.002356478938016271,-0.002356478938016271
77.525,0.04349624544262931,0.04349624544262931
77.52600000000001,0.07142479762181853,0.07142479762181853
77.527,0.07007736543581933,0.07007736543581933
77.528,0.03733199787822583,0.03733199787822583
77.52900000000001,0.01902317566166134,-0.01902317566166134
77.53,0.08396689868301732,-0.08396689868301732
77.531,0.14032077838695045,-0.14032077838695045
77.53200000000001,0.17443235188381012,-0.17443235188381012
77.533,0.18047367356965915,-0.18047367356965915
77.534,0.16187212725970945,-0.16187212725970945
77.53500000000001,0.12942749624270533,-0.12942749624270533
77.536,0.09686590949323048,-0.09686590949323048
77.537,0.07550692869249176,-0.07550692869249176
77.53800000000001,0.07003818587236488,-0.07003818587236488
77.539,0.07698203740404086,-0.07698203740404086
77.54,0.08644229974149953,-0.08644229974149953
77.54100000000001,0.08649256674280403,-0.08649256674280403
77.542,0.06855621489646169,-0.06855621489646169
77.543,0.03170675560617142,-0.03170675560617142
77.54400000000001,0.015846795175421535,0.015846795175421535
77.545,0.05883542780007267,0.05883542780007267
77.546,0.080012821886712,0.080012821886712
77.54700000000001,0.06654530181037299,0.06654530181037299
77.548,0.01543618816383785,0.01543618816383785
77.549,0.06406344528405183,-0.06406344528405183
77.55000000000001,0.152137672275803,-0.152137672275803
77.551,0.22387188242108813,-0.22387188242108813
77.552,0.25685668616632296,-0.25685668616632296
77.55300000000001,0.23847357704411976,-0.23847357704411976
77.554,0.17041632583332533,-0.17041632583332533
77.555,0.06884817781323749,-0.06884817781323749
77.55600000000001,0.039996413492650484,0.039996413492650484
77.557,0.1274567428208091,0.1274567428208091
77.558,0.17094481366050474,0.17094481366050474
77.55900000000001,0.16060684514550405,0.16060684514550405
77.56,0.10204542515571524,0.10204542515571524
77.561,0.014280193978866151,0.014280193978866151
77.56200000000001,0.07633580549210073,-0.07633580549210073
77.563,0.14424316956957162,-0.14424316956957162
77.56400000000001,0.17223996423387733,-0.17223996423387733
77.56500000000001,0.15613587065991053,-0.15613587065991053
77.566,0.10516856226626714,-0.10516856226626714
77.56700000000001,0.03827052416387078,-0.03827052416387078
77.56800000000001,0.02239586561241702,0.02239586561241702
77.569,0.05841439670997928,0.05841439670997928
77.57000000000001,0.06035203948052503,0.06035203948052503
77.57100000000001,0.029724439390190316,0.029724439390190316
77.572,0.022657455578919294,-0.022657455578919294
77.57300000000001,0.08108237540430663,-0.08108237540430663
77.57400000000001,0.13035557155674493,-0.13035557155674493
77.575,0.1603257423421247,-0.1603257423421247
77.57600000000001,0.16809580985769934,-0.16809580985769934
77.57700000000001,0.1574409788951251,-0.1574409788951251
77.578,0.13600338230067122,-0.13600338230067122
77.57900000000001,0.11159081341668309,-0.11159081341668309
77.58000000000001,0.08911703813515925,-0.08911703813515925
77.581,0.06933578679789809,-0.06933578679789809
77.58200000000001,0.0497152898930473,-0.0497152898930473
77.58300000000001,0.026900924496187306,-0.026900924496187306
77.584,0.00042955652573728464,0.00042955652573728464
77.58500000000001,0.029657547265401707,0.029657547265401707
77.58600000000001,0.05419876231377496,0.05419876231377496
77.587,0.06551368502317478,0.06551368502317478
77.58800000000001,0.05644603758241029,0.05644603758241029
77.58900000000001,0.024586359603165908,0.024586359603165908
77.59,0.025737760972668444,-0.025737760972668444
77.59100000000001,0.0837910825582231,-0.0837910825582231
77.59200000000001,0.1351862305303264,-0.1351862305303264
77.593,0.16625338121662236,-0.16625338121662236
77.59400000000001,0.16855851418376455,-0.16855851418376455
77.59500000000001,0.141966764970211,-0.141966764970211
77.596,0.09509023175576925,-0.09509023175576925
77.59700000000001,0.04283657369568383,-0.04283657369568383
77.59800000000001,0.0017795322851245077,-0.0017795322851245077
77.599,0.015151262413773958,0.015151262413773958
77.60000000000001,0.002894567305667284,0.002894567305667284
77.60100000000001,0.03403253035769682,-0.03403253035769682
77.602,0.08293499912417246,-0.08293499912417246
77.60300000000001,0.12700662818250075,-0.12700662818250075
77.60400000000001,0.15072998712547536,-0.15072998712547536
77.605,0.14484147814755954,-0.14484147814755954
77.60600000000001,0.1092562204449653,-0.1092562204449653
77.607,0.0530437375636279,-0.0530437375636279
77.608,0.00847108412051778,0.00847108412051778
77.60900000000001,0.05847522472705968,0.05847522472705968
77.61,0.08372755372168861,0.08372755372168861
77.611,0.07830860454924249,0.07830860454924249
77.61200000000001,0.04495774977710787,0.04495774977710787
77.613,0.0062678313607504865,-0.0062678313607504865
77.614,0.061403227359184354,-0.061403227359184354
77.61500000000001,0.10682892716797354,-0.10682892716797354
77.616,0.13297358916379076,-0.13297358916379076
77.617,0.13638062405897877,-0.13638062405897877
77.61800000000001,0.11969541289931551,-0.11969541289931551
77.619,0.0898607178625257,-0.0898607178625257
77.62,0.05536640621562672,-0.05536640621562672
77.62100000000001,0.02360575265419307,-0.02360575265419307
77.622,0.0007965003692400607,0.0007965003692400607
77.623,0.016295224255204577,0.016295224255204577
77.62400000000001,0.023549368690046535,0.023549368690046535
77.625,0.023966086824543265,0.023966086824543265
77.626,0.018418541458676163,0.018418541458676163
77.62700000000001,0.006720941779991607,0.006720941779991607
77.628,0.011953195025019903,-0.011953195025019903
77.629,0.03797368244727595,-0.03797368244727595
77.63000000000001,0.07005762434886187,-0.07005762434886187
77.631,0.10461238640114612,-0.10461238640114612
77.632,0.1360361850831201,-0.1360361850831201
77.63300000000001,0.15799336975771727,-0.15799336975771727
77.634,0.1652627655684823,-0.1652627655684823
77.635,0.1554916310590343,-0.1554916310590343
77.63600000000001,0.13018283385258422,-0.13018283385258422
77.637,0.094503175104656,-0.094503175104656
77.638,0.05592671738222976,-0.05592671738222976
77.63900000000001,0.02215452663340911,-0.02215452663340911
77.64,0.0009826808083439609,0.0009826808083439609
77.641,0.01093074880703937,0.01093074880703937
77.64200000000001,0.008679833164650042,0.008679833164650042
77.643,0.002131018588368061,-0.002131018588368061
77.644,0.016874481003109842,-0.016874481003109842
77.64500000000001,0.03169970431183511,-0.03169970431183511
77.646,0.044733450728060675,-0.044733450728060675
77.647,0.05629708863129079,-0.05629708863129079
77.64800000000001,0.06812061571862604,-0.06812061571862604
77.649,0.0819338290405498,-0.0819338290405498
77.65,0.09805697512062428,-0.09805697512062428
77.65100000000001,0.11460700674914237,-0.11460700674914237
77.652,0.12768609291062372,-0.12768609291062372
77.653,0.1325252984498051,-0.1325252984498051
77.65400000000001,0.1251722888647887,-0.1251722888647887
77.655,0.10408661134339603,-0.10408661134339603
77.656,0.07102643697922084,-0.07102643697922084
77.65700000000001,0.030868273216863806,-0.030868273216863806
77.658,0.00960366620353037,0.00960366620353037
77.659,0.04352115356555819,0.04352115356555819
77.66000000000001,0.06573102217115134,0.06573102217115134
77.661,0.07395470848076235,0.07395470848076235
77.662,0.06894791138425926,0.06894791138425926
77.66300000000001,0.053685538550443335,0.053685538550443335
77.664,0.031962679258431326,0.031962679258431326
77.665,0.007005744249760637,0.007005744249760637
77.66600000000001,0.01934901377441134,-0.01934901377441134
77.667,0.046613155639783854,-0.046613155639783854
77.668,0.07482303510417931,-0.07482303510417931
77.66900000000001,0.10336471833537964,-0.10336471833537964
77.67,0.13004557675368233,-0.13004557675368233
77.671,0.1509322903036041,-0.1509322903036041
77.67200000000001,0.16117085399132358,-0.16117085399132358
77.673,0.15658934378033318,-0.15658934378033318
77.674,0.1355211198526407,-0.1355211198526407
77.67500000000001,0.10012328975742524,-0.10012328975742524
77.676,0.05657904767071864,-0.05657904767071864
77.677,0.013935475731354341,-0.013935475731354341
77.67800000000001,0.01818386767365232,0.01818386767365232
77.679,0.03231714664857055,0.03231714664857055
77.68,0.025461677391722226,0.025461677391722226
77.68100000000001,0.0001309272685188212,0.0001309272685188212
77.682,0.03624693220971831,-0.03624693220971831
77.683,0.07346115898854166,-0.07346115898854166
77.68400000000001,0.10153236010408384,-0.10153236010408384
77.685,0.11364757116767321,-0.11364757116767321
77.686,0.10806759588497716,-0.10806759588497716
77.68700000000001,0.08839413729584544,-0.08839413729584544
77.688,0.062132048055502986,-0.062132048055502986
77.68900000000001,0.03805260084949169,-0.03805260084949169
77.69000000000001,0.02325969493665958,-0.02325969493665958
77.691,0.02094605285116169,-0.02094605285116169
77.69200000000001,0.02957342942238894,-0.02957342942238894
77.69300000000001,0.043710497546507354,-0.043710497546507354
77.694,0.05619053399296159,-0.05619053399296159
77.69500000000001,0.06080698459741296,-0.06080698459741296
77.69600000000001,0.05459963102574461,-0.05459963102574461
77.697,0.0389488186613407,-0.0389488186613407
77.69800000000001,0.019125447656181405,-0.019125447656181405
77.69900000000001,0.0024846153507449564,-0.0024846153507449564
77.7,0.004048996113097392,0.004048996113097392
77.70100000000001,0.003667484805842114,-0.003667484805842114
77.70200000000001,0.025595274489159325,-0.025595274489159325
77.703,0.05750364355337634,-0.05750364355337634
77.70400000000001,0.09230071736009404,-0.09230071736009404
77.70500000000001,0.12220794861074669,-0.12220794861074669
77.706,0.1410230577853696,-0.1410230577853696
77.70700000000001,0.1457300062418665,-0.1457300062418665
77.70800000000001,0.13698164853316996,-0.13698164853316996
77.709,0.11839488256284436,-0.11839488256284436
77.71000000000001,0.09500666679022218,-0.09500666679022218
77.71100000000001,0.07149929937122046,-0.07149929937122046
77.712,0.05083209184652526,-0.05083209184652526
77.71300000000001,0.0337179387801122,-0.0337179387801122
77.71400000000001,0.019042106292337158,-0.019042106292337158
77.715,0.004967966950087721,-0.004967966950087721
77.71600000000001,0.00976177288151292,0.00976177288151292
77.71700000000001,0.0248610019148221,0.0248610019148221
77.718,0.03824862781317773,0.03824862781317773
77.71900000000001,0.04659776560744122,0.04659776560744122
77.72000000000001,0.04646917722514532,0.04646917722514532
77.721,0.03560205679350292,0.03560205679350292
77.72200000000001,0.013890482633102996,0.013890482633102996
77.72300000000001,0.01629864390250224,-0.01629864390250224
77.724,0.05056710975602474,-0.05056710975602474
77.72500000000001,0.08352339080003746,-0.08352339080003746
77.72600000000001,0.11006581318804076,-0.11006581318804076
77.727,0.12650836380482644,-0.12650836380482644
77.72800000000001,0.1312392166685542,-0.1312392166685542
77.72900000000001,0.12479131121914211,-0.12479131121914211
77.73,0.1094111988403087,-0.1094111988403087
77.73100000000001,0.08835825784350781,-0.08835825784350781
77.732,0.06520338942332438,-0.06520338942332438
77.733,0.043323762495182105,-0.043323762495182105
77.73400000000001,0.025651516341522407,-0.025651516341522407
77.735,0.014596678577073918,-0.014596678577073918
77.736,0.011989735723411776,-0.011989735723411776
77.73700000000001,0.01890821436394552,-0.01890821436394552
77.738,0.035352209548691005,-0.035352209548691005
77.739,0.05986692963155971,-0.05986692963155971
77.74000000000001,0.08931112955644138,-0.08931112955644138
77.741,0.11898581416162268,-0.11898581416162268
77.742,0.14324966323253363,-0.14324966323253363
77.74300000000001,0.15658179874778677,-0.15658179874778677
77.744,0.1548692421633684,-0.1548692421633684
77.745,0.13656807007731753,-0.13656807007731753
77.74600000000001,0.1033698773196926,-0.1033698773196926
77.747,0.06011580149369555,-0.06011580149369555
77.748,0.013909240617857477,-0.013909240617857477
77.74900000000001,0.0273815442751284,0.0273815442751284
77.75,0.056849035131892656,0.056849035131892656
77.751,0.0700420885992763,0.0700420885992763
77.75200000000001,0.06583795098053091,0.06583795098053091
