Czas,AbsSum,Sum
169.756,0.04366899382148581,0.04366899382148581
169.757,0.030899822265610055,-0.030899822265610055
169.758,0.11849382325942837,-0.11849382325942837
169.759,0.20147590196035492,-0.20147590196035492
169.76000000000002,0.261356322934823,-0.261356322934823
169.761,0.2837440821175541,-0.2837440821175541
169.762,0.2625108848835054,-0.2625108848835054
169.763,0.20183619464315206,-0.20183619464315206
169.764,0.11540933252562746,-0.11540933252562746
169.765,0.02293574915001184,-0.02293574915001184
169.76600000000002,0.05505570553718697,0.05505570553718697
169.767,0.10256480246380528,0.10256480246380528
169.768,0.1120417683202184,0.1120417683202184
169.769,0.08575360250363051,0.08575360250363051
169.77,0.034293582515753984,0.034293582515753984
169.77100000000002,0.027160220299411675,-0.027160220299411675
169.77200000000002,0.08354555929304575,-0.08354555929304575
169.773,0.12404500185353085,-0.12404500185353085
169.774,0.1443905811192312,-0.1443905811192312
169.775,0.14677709894963553,-0.14677709894963553
169.776,0.13766225370311624,-0.13766225370311624
169.77700000000002,0.12443852779748976,-0.12443852779748976
169.77800000000002,0.11228825900528994,-0.11228825900528994
169.779,0.10237833850355083,-0.10237833850355083
169.78,0.091987175051089,-0.091987175051089
169.781,0.0764007845650676,-0.0764007845650676
169.782,0.05174707368807607,-0.05174707368807607
169.78300000000002,0.017598170448232975,-0.017598170448232975
169.78400000000002,0.021725132071866327,0.021725132071866327
169.785,0.05771489392949758,0.05771489392949758
169.786,0.07997239304794235,0.07997239304794235
169.787,0.07946853564316547,0.07946853564316547
169.788,0.05164898005501972,0.05164898005501972
169.78900000000002,0.0016749654884929965,-0.0016749654884929965
169.79000000000002,0.07227567447004413,-0.07227567447004413
169.791,0.14729133937425598,-0.14729133937425598
169.792,0.21223812855517343,-0.21223812855517343
169.793,0.25430475881045633,-0.25430475881045633
169.794,0.26499401714799253,-0.26499401714799253
169.79500000000002,0.2415086160764387,-0.2415086160764387
169.79600000000002,0.1867739792456291,-0.1867739792456291
169.797,0.10843651842986979,-0.10843651842986979
169.798,0.017396950686827894,-0.017396950686827894
169.799,0.07363253709996154,0.07363253709996154
169.8,0.15135195071908547,0.15135195071908547
169.80100000000002,0.20302562433169014,0.20302562433169014
169.80200000000002,0.2179033996788644,0.2179033996788644
169.803,0.1891614450851411,0.1891614450851411
169.804,0.11624304699739829,0.11624304699739829
169.805,0.006980509032572524,0.006980509032572524
169.806,0.1215010524964002,-0.1215010524964002
169.80700000000002,0.24411590240687908,-0.24411590240687908
169.80800000000002,0.33193508384668535,-0.33193508384668535
169.809,0.35875044170112325,-0.35875044170112325
169.81,0.30870714424330703,-0.30870714424330703
169.811,0.18282474867056375,-0.18282474867056375
169.812,0.0020362900601673672,-0.0020362900601673672
169.81300000000002,0.19499839061113833,0.19499839061113833
169.81400000000002,0.35967343956479736,0.35967343956479736
169.815,0.445415480594586,0.445415480594586
169.816,0.42086752628770485,0.42086752628770485
169.817,0.2804391440697036,0.2804391440697036
169.818,0.048681312027337054,0.048681312027337054
169.81900000000002,0.2235652227723518,-0.2235652227723518
169.82000000000002,0.47097106168559244,-0.47097106168559244
169.821,0.6307030021752996,-0.6307030021752996
169.822,0.6599761312787733,-0.6599761312787733
169.823,0.549002784749044,-0.549002784749044
169.824,0.32519605041761857,-0.32519605041761857
169.82500000000002,0.04688259723629351,-0.04688259723629351
169.82600000000002,0.21212923398541195,0.21212923398541195
169.827,0.38293788397985895,0.38293788397985895
169.828,0.42102732288631417,0.42102732288631417
169.829,0.3190412492593142,0.3190412492593142
169.83,0.10892654563104909,0.10892654563104909
169.83100000000002,0.14734229481551375,-0.14734229481551375
169.83200000000002,0.3757918593400378,-0.3757918593400378
169.833,0.5118767063699643,-0.5118767063699643
169.834,0.5188876047718934,-0.5188876047718934
169.835,0.3978465082481376,-0.3978465082481376
169.836,0.18602667130155326,-0.18602667130155326
169.83700000000002,0.05524455050011734,0.05524455050011734
169.83800000000002,0.25955166865840784,0.25955166865840784
169.839,0.37515811627983164,0.37515811627983164
169.84,0.37949261773271137,0.37949261773271137
169.841,0.2840799075560476,0.2840799075560476
169.842,0.12876325793227217,0.12876325793227217
169.84300000000002,0.03252085094162005,-0.03252085094162005
169.84400000000002,0.14955787877586257,-0.14955787877586257
169.845,0.19144149906894414,-0.19144149906894414
169.846,0.15505975140936912,-0.15505975140936912
169.847,0.06410447772630645,-0.06410447772630645
169.848,0.04059288203783229,0.04059288203783229
169.84900000000002,0.11579850242744616,0.11579850242744616
169.85,0.13058212185657525,0.13058212185657525
169.851,0.07613263733626341,0.07613263733626341
169.852,0.03232535842773754,-0.03232535842773754
169.853,0.1617454732298037,-0.1617454732298037
169.854,0.2730999663002004,-0.2730999663002004
169.85500000000002,0.3345722037934301,-0.3345722037934301
169.856,0.3315833612462744,-0.3315833612462744
169.857,0.27044127062071455,-0.27044127062071455
169.858,0.17474303248777245,-0.17474303248777245
169.859,0.07619475182533986,-0.07619475182533986
169.86,0.0033475566477982888,-0.0033475566477982888
169.86100000000002,0.027720193903757462,0.027720193903757462
169.862,0.01764913300218529,0.01764913300218529
169.863,0.01819096755491778,-0.01819096755491778
169.864,0.05681247016698954,-0.05681247016698954
169.865,0.07695461265556836,-0.07695461265556836
169.866,0.06712048924689262,-0.06712048924689262
169.86700000000002,0.029422616611611496,-0.029422616611611496
169.868,0.021966617848827585,0.021966617848827585
169.869,0.06691087076465663,0.06691087076465663
169.87,0.08744398814395016,0.08744398814395016
169.871,0.0747671913483734,0.0747671913483734
169.872,0.03247687941968902,0.03247687941968902
169.87300000000002,0.02509249706299055,-0.02509249706299055
169.874,0.07862774141976558,-0.07862774141976558
169.875,0.11135943027464368,-0.11135943027464368
169.876,0.11537749491103166,-0.11537749491103166
169.877,0.09429002613035276,-0.09429002613035276
169.878,0.06123602467667133,-0.06123602467667133
169.87900000000002,0.033097231030897234,-0.033097231030897234
169.88,0.023255806815336788,-0.023255806815336788
169.881,0.035833588158585505,-0.035833588158585505
169.882,0.063791202416704,-0.063791202416704
169.883,0.09176430332182073,-0.09176430332182073
169.884,0.10263559453362625,-0.10263559453362625
169.88500000000002,0.08530435168975525,-0.08530435168975525
169.886,0.04052227875646841,-0.04052227875646841
169.887,0.017727986259016948,0.017727986259016948
169.888,0.06622073549871699,0.06622073549871699
169.889,0.08070822539587352,0.08070822539587352
169.89,0.04552988059205587,0.04552988059205587
169.89100000000002,0.03895878455735824,-0.03895878455735824
169.892,0.15413009901867092,-0.15413009901867092
169.893,0.2672782674558877,-0.2672782674558877
169.894,0.3412700734944717,-0.3412700734944717
169.895,0.3466381193060557,-0.3466381193060557
169.89600000000002,0.2720704446480978,-0.2720704446480978
169.89700000000002,0.12960997011610487,-0.12960997011610487
169.898,0.04745694004646994,0.04745694004646994
169.899,0.21362406738512485,0.21362406738512485
169.9,0.32435995771298587,0.32435995771298587
169.901,0.34928412899683736,0.34928412899683736
169.90200000000002,0.28109456358763785,0.28109456358763785
169.90300000000002,0.13740786873468003,0.13740786873468003
169.904,0.04497761735229833,-0.04497761735229833
169.905,0.2213895231085724,-0.2213895231085724
169.906,0.3523703479047384,-0.3523703479047384
169.907,0.4142933236313554,-0.4142933236313554
169.90800000000002,0.40424447595430524,-0.40424447595430524
169.90900000000002,0.33798804267530613,-0.33798804267530613
169.91,0.2422442915395463,-0.2422442915395463
169.911,0.14439776802823645,-0.14439776802823645
169.912,0.06346378362980942,-0.06346378362980942
169.913,0.005448992943211217,-0.005448992943211217
169.91400000000002,0.035564856367130915,0.035564856367130915
169.91500000000002,0.07151881974966501,0.07151881974966501
169.916,0.1123872498746834,0.1123872498746834
169.917,0.15957417457750767,0.15957417457750767
169.918,0.2035577896935099,0.2035577896935099
169.919,0.22691656557673268,0.22691656557673268
169.92000000000002,0.21167890116675525,0.21167890116675525
169.92100000000002,0.1481174277752415,0.1481174277752415
169.922,0.04136360499918146,0.04136360499918146
169.923,0.08713907684566968,-0.08713907684566968
169.924,0.20449513306792033,-0.20449513306792033
169.925,0.27631476218684226,-0.27631476218684226
169.92600000000002,0.27851624281023835,-0.27851624281023835
169.92700000000002,0.20678482391506836,-0.20678482391506836
169.928,0.08005805578377301,-0.08005805578377301
169.929,0.0636816282061432,0.0636816282061432
169.93,0.1783979791269048,0.1783979791269048
169.931,0.22443404011470935,0.22443404011470935
169.93200000000002,0.1816798577033325,0.1816798577033325
169.93300000000002,0.056985823022012605,0.056985823022012605
169.934,0.11689113093363568,-0.11689113093363568
169.935,0.29075950524112415,-0.29075950524112415
169.936,0.41401431012488843,-0.41401431012488843
169.937,0.45042424516627655,-0.45042424516627655
169.93800000000002,0.38956188982522666,-0.38956188982522666
169.93900000000002,0.25012420874645436,-0.25012420874645436
169.94,0.07402570269435149,-0.07402570269435149
169.941,0.08683269786683834,0.08683269786683834
169.942,0.18682204766958965,0.18682204766958965
169.943,0.20060820211630825,0.20060820211630825
169.94400000000002,0.13045507883932417,0.13045507883932417
169.94500000000002,0.00457577702617451,0.00457577702617451
169.946,0.13274273405178094,-0.13274273405178094
169.947,0.2358449214449192,-0.2358449214449192
169.948,0.2723467166744077,-0.2723467166744077
169.949,0.23296473977401444,-0.23296473977401444
169.95000000000002,0.13350224302690605,-0.13350224302690605
169.95100000000002,0.008627684544825098,-0.008627684544825098
169.952,0.1002088739421303,0.1002088739421303
169.953,0.15853118191200477,0.15853118191200477
169.954,0.14968258755538133,0.14968258755538133
169.955,0.07932755694545746,0.07932755694545746
169.95600000000002,0.027577583424941876,-0.027577583424941876
169.95700000000002,0.13597536536301824,-0.13597536536301824
169.958,0.21269723088571701,-0.21269723088571701
169.959,0.23711091297972875,-0.23711091297972875
169.96,0.2069320863319718,-0.2069320863319718
169.961,0.13750849019434874,-0.13750849019434874
169.96200000000002,0.055180970584849165,-0.055180970584849165
169.96300000000002,0.012683377530675388,0.012683377530675388
169.964,0.047371154208908806,0.047371154208908806
169.965,0.04486117954631741,0.04486117954631741
169.966,0.016267744340591195,0.016267744340591195
169.967,0.017247357726048906,-0.017247357726048906
169.96800000000002,0.03310799689138455,-0.03310799689138455
169.96900000000002,0.016342884443196648,-0.016342884443196648
169.97,0.03421998749992894,0.03421998749992894
169.971,0.10474668051135883,0.10474668051135883
169.972,0.17058784782139136,0.17058784782139136
169.973,0.20443195165792405,0.20443195165792405
169.97400000000002,0.1856729689243417,0.1856729689243417
169.975,0.10787840136269256,0.10787840136269256
169.976,0.018090233266252365,-0.018090233266252365
169.977,0.16631271125752134,-0.16631271125752134
169.978,0.30269561279842705,-0.30269561279842705
169.979,0.3943751576126363,-0.3943751576126363
169.98000000000002,0.4188001663382689,-0.4188001663382689
169.981,0.3698553603894227,-0.3698553603894227
169.982,0.25936683212311007,-0.25936683212311007
169.983,0.11374433758521407,-0.11374433758521407
169.984,0.03309745799014019,0.03309745799014019
169.985,0.14844163572562286,0.14844163572562286
169.98600000000002,0.2087120757696308,0.2087120757696308
169.987,0.20466758422722808,0.20466758422722808
169.988,0.142744439940643,0.142744439940643
169.989,0.04252019801038842,0.04252019801038842
169.99,0.06877518202156274,-0.06877518202156274
169.991,0.16316967049957398,-0.16316967049957398
169.99200000000002,0.21858435118331987,-0.21858435118331987
169.993,0.22373188271629152,-0.22373188271629152
169.994,0.18032539411500748,-0.18032539411500748
169.995,0.10227244383696854,-0.10227244383696854
169.996,0.012141108895825425,-0.012141108895825425
169.997,0.06430680901075037,0.06430680901075037
169.99800000000002,0.10436663805226964,0.10436663805226964
169.999,0.09410674508685979,0.09410674508685979
170.0,0.03227094019731269,0.03227094019731269
170.001,0.0686351300795347,-0.0686351300795347
170.002,0.18456094743311202,-0.18456094743311202
170.003,0.2852120328203597,-0.2852120328203597
170.00400000000002,0.3414366008938793,-0.3414366008938793
170.005,0.3330348206243917,-0.3330348206243917
170.006,0.25498791185002523,-0.25498791185002523
170.007,0.12025870994120824,-0.12025870994120824
170.008,0.041983376897060776,0.041983376897060776
170.009,0.19272309690848122,0.19272309690848122
170.01000000000002,0.2927561500935314,0.2927561500935314
170.011,0.3132628140407434,0.3132628140407434
170.012,0.24440311209547416,0.24440311209547416
170.013,0.09932655615136898,0.09932655615136898
170.014,0.08791458365325522,-0.08791458365325522
170.015,0.2704093406526725,-0.2704093406526725
170.01600000000002,0.40050094425534377,-0.40050094425534377
170.017,0.44276013271203174,-0.44276013271203174
170.018,0.3841575647463987,-0.3841575647463987
170.019,0.23838651642786657,-0.23838651642786657
170.02,0.042843792066145525,-0.042843792066145525
170.02100000000002,0.15114453239796943,0.15114453239796943
170.02200000000002,0.2922714929954,0.2922714929954
170.023,0.34348829591810315,0.34348829591810315
170.024,0.29245856190365616,0.29245856190365616
170.025,0.15516193230508057,0.15516193230508057
170.026,0.02848132228892586,-0.02848132228892586
170.02700000000002,0.20579066335123042,-0.20579066335123042
170.02800000000002,0.32615246792502417,-0.32615246792502417
170.029,0.3552646940248151,-0.3552646940248151
170.03,0.2847343482693204,-0.2847343482693204
170.031,0.13431515400113125,-0.13431515400113125
170.032,0.053792191740946294,0.053792191740946294
170.03300000000002,0.22687253758296122,0.22687253758296122
170.03400000000002,0.3363996168358423,0.3363996168358423
170.035,0.3513215589443883,0.3513215589443883
170.036,0.26623458419780843,0.26623458419780843
170.037,0.1022930338123067,0.1022930338123067
170.038,0.09918310774564942,-0.09918310774564942
170.03900000000002,0.2883866567311576,-0.2883866567311576
170.04000000000002,0.4205627098701433,-0.4205627098701433
170.041,0.46760134058405134,-0.46760134058405134
170.042,0.42458417518531477,-0.42458417518531477
170.043,0.30973391336574796,-0.30973391336574796
170.044,0.15812412380161867,-0.15812412380161867
170.04500000000002,0.011216805386121687,-0.011216805386121687
170.04600000000002,0.09466400078630066,0.09466400078630066
170.047,0.1376977694986854,0.1376977694986854
170.048,0.11533455585658103,0.11533455585658103
170.049,0.043443497575353485,0.043443497575353485
170.05,0.049561732216887644,-0.049561732216887644
170.05100000000002,0.13167194544345617,-0.13167194544345617
170.05200000000002,0.1766255151968129,-0.1766255151968129
170.053,0.1710190763067797,-0.1710190763067797
170.054,0.11733736585327681,-0.11733736585327681
170.055,0.03229888597737529,-0.03229888597737529
170.056,0.05874310701026175,0.05874310701026175
170.05700000000002,0.12953989168711622,0.12953989168711622
170.05800000000002,0.1605154445024337,0.1605154445024337
170.059,0.14401688214674113,0.14401688214674113
170.06,0.08586222904362595,0.08586222904362595
170.061,0.0029229687071863353,0.0029229687071863353
170.062,0.08236589395367633,-0.08236589395367633
170.06300000000002,0.14881569999359023,-0.14881569999359023
170.06400000000002,0.18253580996640295,-0.18253580996640295
170.065,0.18044201840319352,-0.18044201840319352
170.066,0.1502550303286767,-0.1502550303286767
170.067,0.10712052636784908,-0.10712052636784908
170.068,0.06803108334717689,-0.06803108334717689
170.06900000000002,0.04591059001248665,-0.04591059001248665
170.07000000000002,0.045319823808256166,-0.045319823808256166
170.071,0.0612162261602075,-0.0612162261602075
170.072,0.08120241401902406,-0.08120241401902406
170.073,0.09053154901422245,-0.09053154901422245
170.074,0.0781747366876987,-0.0781747366876987
170.07500000000002,0.04181992905442655,-0.04181992905442655
170.07600000000002,0.010066913340402772,0.010066913340402772
170.077,0.06007804061582611,0.06007804061582611
170.078,0.08726446698521073,0.08726446698521073
170.079,0.07450119713188941,0.07450119713188941
170.08,0.01540473114879748,0.01540473114879748
170.08100000000002,0.08166261208970582,-0.08166261208970582
170.08200000000002,0.194187176238811,-0.194187176238811
170.083,0.2909705869425939,-0.2909705869425939
170.084,0.34112386087686286,-0.34112386087686286
170.085,0.3239470987950981,-0.3239470987950981
170.086,0.23653323807557758,-0.23653323807557758
170.08700000000002,0.09642204094600604,-0.09642204094600604
170.08800000000002,0.06196433003917634,0.06196433003917634
170.089,0.19645078604776178,0.19645078604776178
170.09,0.2693095770881404,0.2693095770881404
170.091,0.2588859379305952,0.2588859379305952
170.092,0.16696017700796717,0.16696017700796717
170.09300000000002,0.019299185410953656,0.019299185410953656
170.09400000000002,0.1411286963107079,-0.1411286963107079
170.095,0.2665107418095948,-0.2665107418095948
170.096,0.3185196798555865,-0.3185196798555865
170.097,0.2802489167133988,-0.2802489167133988
170.098,0.16197261152217812,-0.16197261152217812
170.09900000000002,0.0012467512502529754,0.0012467512502529754
170.1,0.1595973150605614,0.1595973150605614
170.101,0.2633052064617867,0.2633052064617867
170.102,0.2777335614889893,0.2777335614889893
170.103,0.19417717295439063,0.19417717295439063
170.104,0.03299667068798451,0.03299667068798451
170.10500000000002,0.16194345966911083,-0.16194345966911083
170.106,0.33590926224908313,-0.33590926224908313
170.107,0.43921622103314717,-0.43921622103314717
170.108,0.44165516323462817,-0.44165516323462817
170.109,0.34113746527683464,-0.34113746527683464
170.11,0.16407492153712855,-0.16407492153712855
170.11100000000002,0.04245507583145769,0.04245507583145769
170.112,0.2242452436311464,0.2242452436311464
170.113,0.3350559050217796,0.3350559050217796
170.114,0.3488292009621685,0.3488292009621685
170.115,0.26563714656128967,0.26563714656128967
170.116,0.11002379400087947,0.11002379400087947
170.11700000000002,0.07725817816886771,-0.07725817816886771
170.118,0.2512271947406015,-0.2512271947406015
170.119,0.374607965413163,-0.374607965413163
170.12,0.4263147680190269,-0.4263147680190269
170.121,0.4044533037619541,-0.4044533037619541
170.122,0.3236926868006481,-0.3236926868006481
170.12300000000002,0.20859401516437293,-0.20859401516437293
170.124,0.08551822811796161,-0.08551822811796161
170.125,0.024201287338300403,0.024201287338300403
170.126,0.10796875408428375,0.10796875408428375
170.127,0.16201539631829465,0.16201539631829465
170.128,0.1887037499190487,0.1887037499190487
170.12900000000002,0.19273403551389556,0.19273403551389556
170.13,0.17804467463489737,0.17804467463489737
170.131,0.1465955986297076,0.1465955986297076
170.132,0.09921345676393245,0.09921345676393245
170.133,0.03769876626042623,0.03769876626042623
170.134,0.03315656822222257,-0.03315656822222257
170.13500000000002,0.10491142692225841,-0.10491142692225841
170.136,0.1667913484164978,-0.1667913484164978
170.137,0.2086531329834581,-0.2086531329834581
170.138,0.22445477435783923,-0.22445477435783923
170.139,0.21474179620667666,-0.21474179620667666
170.14,0.18694825989332797,-0.18694825989332797
170.14100000000002,0.15313259388170397,-0.15313259388170397
170.142,0.12580526093904598,-0.12580526093904598
170.143,0.11333962382108975,-0.11333962382108975
170.144,0.11673821717263189,-0.11673821717263189
170.145,0.12911103814054026,-0.12911103814054026
170.14600000000002,0.1382389947760001,-0.1382389947760001
170.14700000000002,0.1314036729830803,-0.1314036729830803
170.148,0.10072261149087369,-0.10072261149087369
170.149,0.046920495081748004,-0.046920495081748004
170.15,0.020052748866242087,0.020052748866242087
170.151,0.08401724286880596,0.08401724286880596
170.15200000000002,0.12825341525410083,0.12825341525410083
170.15300000000002,0.1418554493468951,0.1418554493468951
170.154,0.12431080256914995,0.12431080256914995
170.155,0.0863703584224238,0.0863703584224238
170.156,0.046550809828894923,0.046550809828894923
170.157,0.02423295027439476,0.02423295027439476
170.15800000000002,0.031701992155294345,0.031701992155294345
170.15900000000002,0.06808757645637709,0.06808757645637709
170.16,0.11772178476038242,0.11772178476038242
170.161,0.15403000107677922,0.15403000107677922
170.162,0.14814358394593108,0.14814358394593108
170.163,0.07963152912502824,0.07963152912502824
170.16400000000002,0.05426111680564272,-0.05426111680564272
170.16500000000002,0.23429744532985086,-0.23429744532985086
170.166,0.42189391778800645,-0.42189391778800645
170.167,0.568569047116564,-0.568569047116564
170.168,0.6297381725124569,-0.6297381725124569
170.169,0.5787656161808439,-0.5787656161808439
170.17000000000002,0.41680534149484216,-0.41680534149484216
170.17100000000002,0.17502135865180657,-0.17502135865180657
170.172,0.09200238859128884,0.09200238859128884
170.173,0.3201502508097229,0.3201502508097229
170.174,0.4531165228039429,0.4531165228039429
170.175,0.45815239654989437,0.45815239654989437
170.17600000000002,0.3355079177811866,0.3355079177811866
170.17700000000002,0.11866374008800173,0.11866374008800173
170.178,0.13482349426984952,-0.13482349426984952
170.179,0.3592280913237692,-0.3592280913237692
170.18,0.4986632019029178,-0.4986632019029178
170.181,0.5219404348335275,-0.5219404348335275
170.18200000000002,0.4300331178745258,-0.4300331178745258
170.18300000000002,0.25417296664918576,-0.25417296664918576
170.184,0.045445790068667336,-0.045445790068667336
170.185,0.1407376984753519,0.1407376984753519
170.186,0.2605020962283464,0.2605020962283464
170.187,0.29299053976092737,0.29299053976092737
170.18800000000002,0.24428467620525196,0.24428467620525196
170.18900000000002,0.14301807822161283,0.14301807822161283
170.19,0.02951550909700229,0.02951550909700229
170.191,0.05780762219402835,-0.05780762219402835
170.192,0.09439260771004887,-0.09439260771004887
170.193,0.07618276410124902,-0.07618276410124902
170.19400000000002,0.019176777361686992,-0.019176777361686992
170.19500000000002,0.047556753108199734,0.047556753108199734
170.196,0.09278459754733426,0.09278459754733426
170.197,0.09417311123761074,0.09417311123761074
170.198,0.04586203500851527,0.04586203500851527
170.199,0.039818321855942806,-0.039818321855942806
170.20000000000002,0.13685168862888686,-0.13685168862888686
170.20100000000002,0.214577064106533,-0.214577064106533
170.202,0.24814456733375867,-0.24814456733375867
170.203,0.22688560646891254,-0.22688560646891254
170.204,0.15786855322367144,-0.15786855322367144
170.205,0.06355088386678942,-0.06355088386678942
170.20600000000002,0.025606688798913035,0.025606688798913035
170.20700000000002,0.0810697514917369,0.0810697514917369
170.208,0.08542568374672199,0.08542568374672199
170.209,0.037864401353012944,0.037864401353012944
170.21,0.0457776727554986,-0.0457776727554986
170.211,0.13833847252491893,-0.13833847252491893
170.21200000000002,0.21020550735507115,-0.21020550735507115
170.21300000000002,0.2388136771511764,-0.2388136771511764
170.214,0.21568264956194272,-0.21568264956194272
170.215,0.14876300381530738,-0.14876300381530738
170.216,0.059424423619232725,-0.059424423619232725
170.217,0.024823181287709772,0.024823181287709772
170.21800000000002,0.07940840929443516,0.07940840929443516
170.21900000000002,0.09055935576507035,0.09055935576507035
170.22,0.059376446982613906,0.059376446982613906
170.221,0.0008362230793197423,0.0008362230793197423
170.222,0.06185294349798176,-0.06185294349798176
170.223,0.10557155243932126,-0.10557155243932126
170.22400000000002,0.11542794667306588,-0.11542794667306588
170.225,0.08992919449235959,-0.08992919449235959
170.226,0.041405814578356015,-0.041405814578356015
170.227,0.008475277198108255,0.008475277198108255
170.228,0.03659416232437773,0.03659416232437773
170.229,0.026956266373269422,0.026956266373269422
170.23000000000002,0.02302108782215284,-0.02302108782215284
170.231,0.10077497159035531,-0.10077497159035531
170.232,0.18216637250265577,-0.18216637250265577
170.233,0.23930116705063686,-0.23930116705063686
170.234,0.25005881321694046,-0.25005881321694046
170.235,0.2061148195254312,-0.2061148195254312
170.23600000000002,0.11664295570233263,-0.11664295570233263
170.237,0.006248934777248083,-0.006248934777248083
170.238,0.09241227439461097,0.09241227439461097
170.239,0.14907098194281398,0.14907098194281398
170.24,0.14595168214038012,0.14595168214038012
170.241,0.08416055300787684,0.08416055300787684
170.24200000000002,0.015926994560150898,-0.015926994560150898
170.243,0.12064183426380504,-0.12064183426380504
170.244,0.19362292906986556,-0.19362292906986556
170.245,0.20771743265450893,-0.20771743265450893
170.246,0.1543121700056167,-0.1543121700056167
170.247,0.04695170798046988,-0.04695170798046988
170.24800000000002,0.08212305443981771,0.08212305443981771
170.249,0.1916067076336201,0.1916067076336201
170.25,0.24398910522583317,0.24398910522583317
170.251,0.21758379674754957,0.21758379674754957
170.252,0.11385132958189903,0.11385132958189903
170.253,0.04240576785410932,-0.04240576785410932
170.25400000000002,0.21013951178417556,-0.21013951178417556
170.255,0.344268067774699,-0.344268067774699
170.256,0.40917223294967275,-0.40917223294967275
170.257,0.3892258894827506,-0.3892258894827506
170.258,0.2930664416736679,-0.2930664416736679
170.259,0.1503358542517681,-0.1503358542517681
170.26000000000002,0.0020507010030698103,-0.0020507010030698103
170.261,0.11220870661402538,0.11220870661402538
170.262,0.1661320513118023,0.1661320513118023
170.263,0.1537852653800471,0.1537852653800471
170.264,0.08987416626637712,0.08987416626637712
170.265,0.0033548702690053833,0.0033548702690053833
170.26600000000002,0.07322452717742134,-0.07322452717742134
170.267,0.11491624557342561,-0.11491624557342561
170.268,0.11230170204037859,-0.11230170204037859
170.269,0.07358593010197712,-0.07358593010197712
170.27,0.020363863194412635,-0.020363863194412635
170.27100000000002,0.02123116474936615,0.02123116474936615
170.27200000000002,0.030716021065987142,0.030716021065987142
170.273,0.0011005098966481164,0.0011005098966481164
170.274,0.0584074709070691,-0.0584074709070691
170.275,0.12576530693086252,-0.12576530693086252
170.276,0.17428669804984587,-0.17428669804984587
170.27700000000002,0.18269871564623252,-0.18269871564623252
170.27800000000002,0.14343391018479779,-0.14343391018479779
170.279,0.06613891514472237,-0.06613891514472237
170.28,0.024942728330122232,0.024942728330122232
170.281,0.09890375563762688,0.09890375563762688
170.282,0.1287364465030676,0.1287364465030676
170.28300000000002,0.10089262889749229,0.10089262889749229
170.28400000000002,0.020516047967616746,0.020516047967616746
170.285,0.0895210671926473,-0.0895210671926473
170.286,0.19554691221746856,-0.19554691221746856
170.287,0.26373594078536566,-0.26373594078536566
170.288,0.2709735099378854,-0.2709735099378854
170.28900000000002,0.21237763421525802,-0.21237763421525802
170.29000000000002,0.10304498392783235,-0.10304498392783235
170.291,0.026490271859264558,0.026490271859264558
170.292,0.13954318657385034,0.13954318657385034
170.293,0.20427433312951782,0.20427433312951782
170.294,0.20290606849081638,0.20290606849081638
170.29500000000002,0.1363715696708896,0.1363715696708896
170.29600000000002,0.023188611090245947,0.023188611090245947
170.297,0.10675805075769129,-0.10675805075769129
170.298,0.22128131379853588,-0.22128131379853588
170.299,0.2948293915105351,-0.2948293915105351
170.3,0.3146134582946767,-0.3146134582946767
170.30100000000002,0.2823840694672045,-0.2823840694672045
170.30200000000002,0.21185762872744107,-0.21185762872744107
170.303,0.12318055191381927,-0.12318055191381927
170.304,0.0365884998459044,-0.0365884998459044
170.305,0.032635879511873966,0.032635879511873966
170.306,0.07657722614870766,0.07657722614870766
170.30700000000002,0.09428326243208729,0.09428326243208729
170.30800000000002,0.08939739279411585,0.08939739279411585
170.309,0.06725268902210524,0.06725268902210524
170.31,0.03277618857830977,0.03277618857830977
170.311,0.010071103331668607,-0.010071103331668607
170.312,0.05745604940478011,-0.05745604940478011
170.31300000000002,0.10429095044618042,-0.10429095044618042
170.31400000000002,0.143426032444409,-0.143426032444409
170.315,0.16624823248218235,-0.16624823248218235
170.316,0.16481356228759647,-0.16481356228759647
170.317,0.13483450858003931,-0.13483450858003931
170.318,0.07829631133311121,-0.07829631133311121
170.31900000000002,0.00444163422586652,-0.00444163422586652
170.32000000000002,0.071615057193265,0.071615057193265
170.321,0.1324949917669851,0.1324949917669851
170.322,0.1633344403549022,0.1633344403549022
170.323,0.15614052086475505,0.15614052086475505
170.324,0.11217869938780956,0.11217869938780956
170.32500000000002,0.041501344306888344,0.041501344306888344
170.32600000000002,0.04025064427850855,-0.04025064427850855
170.327,0.11664018299988221,-0.11664018299988221
170.328,0.17510209949707412,-0.17510209949707412
170.329,0.20983913837763601,-0.20983913837763601
170.33,0.22200975313457272,-0.22200975313457272
170.33100000000002,0.21735379682617106,-0.21735379682617106
170.33200000000002,0.2024281394284172,-0.2024281394284172
170.333,0.18117691479216702,-0.18117691479216702
170.334,0.15340146080723394,-0.15340146080723394
170.335,0.11586498536328527,-0.11586498536328527
170.336,0.065584466884549,-0.065584466884549
170.33700000000002,0.0038055809150331354,-0.0038055809150331354
170.33800000000002,0.061320840011878985,0.061320840011878985
170.339,0.11499571360533078,0.11499571360533078
170.34,0.13950224637753683,0.13950224637753683
170.341,0.12049407272635504,0.12049407272635504
170.342,0.053670919379868565,0.053670919379868565
170.34300000000002,0.0508496516313669,-0.0508496516313669
170.34400000000002,0.16865889397603573,-0.16865889397603573
170.345,0.2664499409921285,-0.2664499409921285
170.346,0.31154651057939264,-0.31154651057939264
170.347,0.282743044096348,-0.282743044096348
170.348,0.17880113980207846,-0.17880113980207846
170.34900000000002,0.021366643081702552,-0.021366643081702552
170.35,0.14930289212011671,0.14930289212011671
170.351,0.2850689469114851,0.2850689469114851
170.352,0.34409487603951994,0.34409487603951994
170.353,0.3040773093059803,0.3040773093059803
170.354,0.1701487587479691,0.1701487587479691
170.35500000000002,0.025403342333939927,-0.025403342333939927
170.356,0.2318865775774015,-0.2318865775774015
170.357,0.39492780271809236,-0.39492780271809236
170.358,0.47262977143078533,-0.47262977143078533
170.359,0.44802734562216806,-0.44802734562216806
170.36,0.33381968977844967,-0.33381968977844967
170.36100000000002,0.16782880960157376,-0.16782880960157376
170.362,0.0006615577227653269,-0.0006615577227653269
170.363,0.12038523278288027,0.12038523278288027
170.364,0.16591167087729963,0.16591167087729963
170.365,0.13276586659040568,0.13276586659040568
170.366,0.04355399137204907,0.04355399137204907
170.36700000000002,0.06230850482004924,-0.06230850482004924
170.368,0.1427907353090727,-0.1427907353090727
170.369,0.1677620478009526,-0.1677620478009526
170.37,0.12889652102575733,-0.12889652102575733
170.371,0.04171122005296779,-0.04171122005296779
170.372,0.06074713711109925,0.06074713711109925
170.37300000000002,0.14016102130264718,0.14016102130264718
170.374,0.16673104255201632,0.16673104255201632
170.375,0.12963897607376973,0.12963897607376973
170.376,0.04058837165887752,0.04058837165887752
170.377,0.07067888468794681,-0.07067888468794681
170.378,0.16715373114871968,-0.16715373114871968
170.37900000000002,0.2177027766505032,-0.2177027766505032
170.38,0.20790184864115058,-0.20790184864115058
170.381,0.14477672350684423,-0.14477672350684423
170.382,0.05388491215109292,-0.05388491215109292
170.383,0.030094317495854783,0.030094317495854783
170.384,0.07582000441773484,0.07582000441773484
170.38500000000002,0.06633987661331764,0.06633987661331764
170.386,0.004849508827343252,0.004849508827343252
170.387,0.0867785730035916,-0.0867785730035916
170.388,0.1760400349382143,-0.1760400349382143
170.389,0.2314480921076617,-0.2314480921076617
170.39,0.23359983006726925,-0.23359983006726925
170.39100000000002,0.18176385971122866,-0.18176385971122866
170.392,0.09376123506901057,-0.09376123506901057
170.393,0.0006655067470877629,0.0006655067470877629
170.394,0.07049976494766796,0.07049976494766796
170.395,0.09425751812004601,0.09425751812004601
170.39600000000002,0.06713707886510245,0.06713707886510245
170.39700000000002,0.0020928334081387057,0.0020928334081387057
170.398,0.07536421870855659,-0.07536421870855659
170.399,0.13660341619922645,-0.13660341619922645
170.4,0.16006796839466508,-0.16006796839466508
170.401,0.13858322577767146,-0.13858322577767146
170.40200000000002,0.0812839945573286,-0.0812839945573286
170.40300000000002,0.009670495415000313,-0.009670495415000313
170.404,0.050578630441085126,0.050578630441085126
170.405,0.07894209149705578,0.07894209149705578
170.406,0.06714308176182948,0.06714308176182948
170.407,0.02152407279519153,0.02152407279519153
170.40800000000002,0.03996019454849664,-0.03996019454849664
170.40900000000002,0.09482451933497393,-0.09482451933497393
170.41,0.1244692365833705,-0.1244692365833705
170.411,0.12080475953374847,-0.12080475953374847
170.412,0.0887299579753652,-0.0887299579753652
170.413,0.04371703871115329,-0.04371703871115329
170.41400000000002,0.005582090138120721,-0.005582090138120721
170.41500000000002,0.00911360823222429,0.00911360823222429
170.416,0.006829495122995577,-0.006829495122995577
170.417,0.04883757654587917,-0.04883757654587917
170.418,0.10259820335883607,-0.10259820335883607
170.419,0.1496115676366634,-0.1496115676366634
170.42000000000002,0.1740534172831938,-0.1740534172831938
170.42100000000002,0.16834099050874285,-0.16834099050874285
170.422,0.13538463079736018,-0.13538463079736018
170.423,0.08684023270143726,-0.08684023270143726
170.424,0.038223472727950236,-0.038223472727950236
170.425,0.0029106750138139237,-0.0029106750138139237
170.42600000000002,0.012601939501451165,0.012601939501451165
170.42700000000002,0.010391254972495378,0.010391254972495378
170.428,0.0007727089988940339,-0.0007727089988940339
170.429,0.009965456000756934,-0.009965456000756934
170.43,0.00934279037183161,-0.00934279037183161
170.431,0.002140699564937565,0.002140699564937565
170.43200000000002,0.018101622493002845,0.018101622493002845
170.43300000000002,0.02748555700864941,0.02748555700864941
170.434,0.01961178296762478,0.01961178296762478
170.435,0.010567098915015727,-0.010567098915015727
170.436,0.059214357246892724,-0.059214357246892724
170.437,0.11385069478454712,-0.11385069478454712
170.43800000000002,0.15721670679126265,-0.15721670679126265
170.43900000000002,0.1734364216081401,-0.1734364216081401
170.44,0.15418731336722535,-0.15418731336722535
170.441,0.10247392644252729,-0.10247392644252729
170.442,0.03242523776898998,-0.03242523776898998
170.443,0.03500377913635333,0.03500377913635333
170.44400000000002,0.0789937651361341,0.0789937651361341
170.44500000000002,0.0860015034425119,0.0860015034425119
170.446,0.05445738219485863,0.05445738219485863
170.447,0.004752576744216586,-0.004752576744216586
170.448,0.07225617756948122,-0.07225617756948122
170.449,0.12719625042908356,-0.12719625042908356
170.45000000000002,0.15469195990292384,-0.15469195990292384
170.45100000000002,0.1509851279957921,-0.1509851279957921
170.452,0.12433568907075199,-0.12433568907075199
170.453,0.09131437156983269,-0.09131437156983269
170.454,0.06988468636735667,-0.06988468636735667
170.455,0.0719138904663299,-0.0719138904663299
170.45600000000002,0.09802168034613856,-0.09802168034613856
170.45700000000002,0.13684297176734073,-0.13684297176734073
170.458,0.16913678842577085,-0.16913678842577085
170.459,0.17531883541572335,-0.17531883541572335
170.46,0.14362582485328312,-0.14362582485328312
170.461,0.07576515495047742,-0.07576515495047742
170.46200000000002,0.01227250350175324,0.01227250350175324
170.46300000000002,0.09483048638457525,0.09483048638457525
170.464,0.14520822408591183,0.14520822408591183
170.465,0.14529864114442947,0.14529864114442947
170.466,0.09273459740569834,0.09273459740569834
170.467,0.0027934603735531027,0.0027934603735531027
170.46800000000002,0.095900069402582,-0.095900069402582
170.46900000000002,0.17062746211274515,-0.17062746211274515
170.47,0.19570948135747834,-0.19570948135747834
170.471,0.16165713005055593,-0.16165713005055593
170.472,0.07905007252023888,-0.07905007252023888
170.473,0.02439034116755412,0.02439034116755412
170.47400000000002,0.11272148533431747,0.11272148533431747
170.475,0.15376845789922755,0.15376845789922755
170.476,0.13012648904887159,0.13012648904887159
170.477,0.04538745159864166,0.04538745159864166
170.478,0.07661078434197077,-0.07661078434197077
170.479,0.1993434018717516,-0.1993434018717516
170.48000000000002,0.2854646297846013,-0.2854646297846013
170.481,0.30899505275795014,-0.30899505275795014
170.482,0.2637269870491573,-0.2637269870491573
170.483,0.16503591016380226,-0.16503591016380226
170.484,0.04453786121846004,-0.04453786121846004
170.485,0.06053566423505874,0.06053566423505874
170.48600000000002,0.11960223904338663,0.11960223904338663
170.487,0.11848288876515789,0.11848288876515789
170.488,0.0634165198646286,0.0634165198646286
170.489,0.0218842945149208,-0.0218842945149208
170.49,0.10496109336490522,-0.10496109336490522
170.491,0.15600057457188532,-0.15600057457188532
170.49200000000002,0.15793446208400874,-0.15793446208400874
170.493,0.11183655133584758,-0.11183655133584758
170.494,0.03590855423931161,-0.03590855423931161
170.495,0.04140445955291239,0.04140445955291239
170.496,0.09162377836479774,0.09162377836479774
170.497,0.0961544884169161,0.0961544884169161
170.49800000000002,0.05250038783843047,0.05250038783843047
170.499,0.025253683591533238,-0.025253683591533238
170.5,0.11168050289158915,-0.11168050289158915
170.501,0.17898315136142073,-0.17898315136142073
170.502,0.20648970396170407,-0.20648970396170407
170.503,0.1873855536871495,-0.1873855536871495
170.50400000000002,0.1304676285770181,-0.1304676285770181
170.505,0.056504817311048394,-0.056504817311048394
170.506,0.009331278213007499,0.009331278213007499
170.507,0.046199416275349625,0.046199416275349625
170.508,0.04442914275901799,0.04442914275901799
170.509,0.00819631125666298,0.00819631125666298
170.51000000000002,0.04669484068650587,-0.04669484068650587
170.511,0.09891853078680335,-0.09891853078680335
170.512,0.1293113525073556,-0.1293113525073556
170.513,0.12738137593678422,-0.12738137593678422
170.514,0.09443610641306777,-0.09443610641306777
170.515,0.04241981839364284,-0.04241981839364284
170.51600000000002,0.010891841180453499,0.010891841180453499
170.517,0.04843730650881195,0.04843730650881195
170.518,0.05973238659451008,0.05973238659451008
170.519,0.043998075075131426,0.043998075075131426
170.52,0.009586833487304602,0.009586833487304602
170.52100000000002,0.029873146017373897,-0.029873146017373897
170.52200000000002,0.0610227554691245,-0.0610227554691245
170.523,0.07586604150783727,-0.07586604150783727
170.524,0.07452689295522874,-0.07452689295522874
170.525,0.06471410633895847,-0.06471410633895847
170.526,0.05819102107461405,-0.05819102107461405
170.52700000000002,0.06565106619836258,-0.06565106619836258
170.52800000000002,0.09196485073815786,-0.09196485073815786
170.529,0.13359954964647947,-0.13359954964647947
170.53,0.17919661015859112,-0.17919661015859112
170.531,0.21313869026925114,-0.21313869026925114
170.532,0.2208625185219666,-0.2208625185219666
170.53300000000002,0.19406028242649376,-0.19406028242649376
170.53400000000002,0.13396231920989377,-0.13396231920989377
170.535,0.05157149259432392,-0.05157149259432392
170.536,0.03523076647339729,0.03523076647339729
170.537,0.10674061863311901,0.10674061863311901
170.538,0.14699992097745085,0.14699992097745085
170.53900000000002,0.14812112333752636,0.14812112333752636
170.54000000000002,0.1120950078432219,0.1120950078432219
170.541,0.049679838674424825,0.049679838674424825
170.542,0.023083135537350974,-0.023083135537350974
170.543,0.08948502127658975,-0.08948502127658975
170.544,0.13641811661943704,-0.13641811661943704
170.54500000000002,0.15708935653499645,-0.15708935653499645
170.54600000000002,0.15160418979840273,-0.15160418979840273
170.547,0.12559589265722482,-0.12559589265722482
170.548,0.0876702026409858,-0.0876702026409858
170.549,0.04668699489926176,-0.04668699489926176
170.55,0.009761813682525045,-0.009761813682525045
170.55100000000002,0.0185611039364606,0.0185611039364606
170.55200000000002,0.03604023165927117,0.03604023165927117
170.553,0.041860322043084874,0.041860322043084874
170.554,0.03578489700389231,0.03578489700389231
170.555,0.01782969321307948,0.01782969321307948
170.556,0.011400766689670161,-0.011400766689670161
170.55700000000002,0.049960806876700126,-0.049960806876700126
170.55800000000002,0.09389954876985995,-0.09389954876985995
170.559,0.13720335250321458,-0.13720335250321458
170.56,0.1726284446161387,-0.1726284446161387
170.561,0.19332228322968392,-0.19332228322968392
170.562,0.19475682404840622,-0.19475682404840622
170.56300000000002,0.1762895410999078,-0.1762895410999078
170.56400000000002,0.14172235618827145,-0.14172235618827145
170.565,0.09853648312919461,-0.09853648312919461
170.566,0.055935516737127156,-0.055935516737127156
170.567,0.022264016245388762,-0.022264016245388762
170.568,0.0026218113006634125,-0.0026218113006634125
170.56900000000002,0.0025333743143252097,0.0025333743143252097
170.57000000000002,0.0026911456278374546,-0.0026911456278374546
170.571,0.011177219403680994,-0.011177219403680994
170.572,0.01533492662282454,-0.01533492662282454
170.573,0.009798104183642575,-0.009798104183642575
170.574,0.006613879654357557,0.006613879654357557
170.57500000000002,0.030324298048787446,0.030324298048787446
170.57600000000002,0.05402215466882443,0.05402215466882443
170.577,0.0689669116480387,0.0689669116480387
170.578,0.06784623095858255,0.06784623095858255
170.579,0.04727858516874761,0.04727858516874761
170.58,0.009162548634869427,0.009162548634869427
170.58100000000002,0.03956615182974188,-0.03956615182974188
170.58200000000002,0.08871761024027947,-0.08871761024027947
170.583,0.1276498988696515,-0.1276498988696515
170.584,0.1482651218253508,-0.1482651218253508
170.585,0.14732013280183043,-0.14732013280183043
170.586,0.12737741588387885,-0.12737741588387885
170.58700000000002,0.09611732478408463,-0.09611732478408463
170.58800000000002,0.06420035769481569,-0.06420035769481569
170.589,0.04227394239339455,-0.04227394239339455
170.59,0.037952498171779925,-0.037952498171779925
170.591,0.05360418475397766,-0.05360418475397766
170.592,0.08555802239405097,-0.08555802239405097
170.59300000000002,0.12496410874535768,-0.12496410874535768
170.59400000000002,0.160099173371142,-0.160099173371142
170.595,0.17952322607761773,-0.17952322607761773
170.596,0.17525850303244517,-0.17525850303244517
170.597,0.1451392815201783,-0.1451392815201783
170.598,0.09367907561936983,-0.09367907561936983
170.59900000000002,0.031175188102675944,-0.031175188102675944
170.6,0.028770158850525362,0.028770158850525362
170.601,0.07270304237116387,0.07270304237116387
170.602,0.09085000982896596,0.09085000982896596
170.603,0.07977521337998206,0.07977521337998206
170.604,0.04340731620581595,0.04340731620581595
170.60500000000002,0.007901062572440498,-0.007901062572440498
170.606,0.0600839471302963,-0.0600839471302963
170.607,0.09913813921511294,-0.09913813921511294
170.608,0.11492916656465757,-0.11492916656465757
170.609,0.10394464569838269,-0.10394464569838269
170.61,0.07018260408968346,-0.07018260408968346
170.61100000000002,0.02388716261710644,-0.02388716261710644
170.612,0.021521146549585035,0.021521146549585035
170.613,0.053417873683406336,0.053417873683406336
170.614,0.06364927598565662,0.06364927598565662
170.615,0.050774750736207075,0.050774750736207075
170.616,0.020170566273814527,0.020170566273814527
170.61700000000002,0.01804266745823746,-0.01804266745823746
170.618,0.05258219598753788,-0.05258219598753788
170.619,0.0749179376944592,-0.0749179376944592
170.62,0.08220314876169399,-0.08220314876169399
170.621,0.07819802061594605,-0.07819802061594605
170.622,0.07181177949466044,-0.07181177949466044
170.62300000000002,0.0736900163246964,-0.0736900163246964
170.624,0.0919645752206667,-0.0919645752206667
170.625,0.12862485230481158,-0.12862485230481158
170.626,0.17783011171535756,-0.17783011171535756
170.627,0.22688737792585556,-0.22688737792585556
170.628,0.25974903726514453,-0.25974903726514453
170.62900000000002,0.26202009174112073,-0.26202009174112073
170.63,0.22589871387585658,-0.22589871387585658
170.631,0.15340867048552587,-0.15340867048552587
170.632,0.05676104638690649,-0.05676104638690649
170.633,0.04443277043951155,0.04443277043951155
170.634,0.12836372969150567,0.12836372969150567
170.63500000000002,0.17710310951282437,0.17710310951282437
170.636,0.18168521189189857,0.18168521189189857
170.637,0.14459258682764853,0.14459258682764853
170.638,0.078835572509103,0.078835572509103
170.639,0.003888617936570027,0.003888617936570027
170.64,0.060251770649795255,-0.060251770649795255
170.64100000000002,0.09901693942534473,-0.09901693942534473
170.642,0.10734695786120241,-0.10734695786120241
170.643,0.0906265628958165,-0.0906265628958165
170.644,0.06221741028724537,-0.06221741028724537
170.645,0.03843184892922191,-0.03843184892922191
170.64600000000002,0.03262458680136593,-0.03262458680136593
170.64700000000002,0.05036499673679651,-0.05036499673679651
170.648,0.087299777988874,-0.087299777988874
170.649,0.13043712967315013,-0.13043712967315013
170.65,0.16246452833057146,-0.16246452833057146
170.651,0.16771539634817278,-0.16771539634817278
170.65200000000002,0.13784755781570757,-0.13784755781570757
170.65300000000002,0.07536573368655275,-0.07536573368655275
170.654,0.006212184713884961,0.006212184713884961
170.655,0.08569459093178078,0.08569459093178078
170.656,0.14011162014088963,0.14011162014088963
170.657,0.15141516436096736,0.15141516436096736
170.65800000000002,0.11197487241476156,0.11197487241476156
170.65900000000002,0.027221109340611616,0.027221109340611616
170.66,0.0853592186369212,-0.0853592186369212
170.661,0.20058906256790754,-0.20058906256790754
170.662,0.29207391285711626,-0.29207391285711626
170.663,0.3389494740809985,-0.3389494740809985
170.66400000000002,0.33104977525920554,-0.33104977525920554
170.66500000000002,0.2711529667755358,-0.2711529667755358
170.666,0.17383234076371024,-0.17383234076371024
170.667,0.06139521245670143,-0.06139521245670143
170.668,0.04184963694555388,0.04184963694555388
170.669,0.11539846707321044,0.11539846707321044
170.67000000000002,0.14695055211874553,0.14695055211874553
170.67100000000002,0.13442783388116974,0.13442783388116974
170.672,0.08537252111922577,0.08537252111922577
170.673,0.014189226873646321,0.014189226873646321
170.674,0.06180750162188586,-0.06180750162188586
170.675,0.1264149552864685,-0.1264149552864685
170.67600000000002,0.16767524600035622,-0.16767524600035622
170.67700000000002,0.17956244856924786,-0.17956244856924786
170.678,0.16214651262836488,-0.16214651262836488
170.679,0.12055825054621394,-0.12055825054621394
170.68,0.06329572524717675,-0.06329572524717675
170.681,0.00041260084042293865,-0.00041260084042293865
170.68200000000002,0.058039185966069606,0.058039185966069606
170.68300000000002,0.10317825974733319,0.10317825974733319
170.684,0.12813978427391315,0.12813978427391315
170.685,0.12874830704901497,0.12874830704901497
170.686,0.10411562402079588,0.10411562402079588
170.687,0.05711581714912661,0.05711581714912661
170.68800000000002,0.005467587366115301,-0.005467587366115301
170.68900000000002,0.07340490720527437,-0.07340490720527437
170.69,0.1343128640262572,-0.1343128640262572
170.691,0.17578450169653148,-0.17578450169653148
170.692,0.18806345253746537,-0.18806345253746537
170.693,0.16668101232699584,-0.16668101232699584
170.69400000000002,0.11431379886386683,-0.11431379886386683
170.69500000000002,0.04117365062866085,-0.04117365062866085
170.696,0.03646632473446698,0.03646632473446698
170.697,0.09953002347399642,0.09953002347399642
170.698,0.13056707554096625,0.13056707554096625
170.699,0.11830626243974218,0.11830626243974218
170.70000000000002,0.061107706936213146,0.061107706936213146
170.70100000000002,0.031752257216905,-0.031752257216905
170.702,0.14153735331120043,-0.14153735331120043
170.703,0.24410883200897082,-0.24410883200897082
170.704,0.3156993382548181,-0.3156993382548181
170.705,0.33896098781915773,-0.33896098781915773
170.70600000000002,0.3076577507851521,-0.3076577507851521
170.70700000000002,0.2286407401851297,-0.2286407401851297
170.708,0.12042590635680617,-0.12042590635680617
170.709,0.008615456372058405,-0.008615456372058405
170.71,0.08068962442489624,0.08068962442489624
170.711,0.12771788709318654,0.12771788709318654
170.71200000000002,0.12419397179378255,0.12419397179378255
170.71300000000002,0.07535803008396691,0.07535803008396691
170.714,0.0017766998544218593,-0.0017766998544218593
170.715,0.08346058425825675,-0.08346058425825675
170.716,0.14609543870430752,-0.14609543870430752
170.717,0.17296177011841318,-0.17296177011841318
170.71800000000002,0.15879913589971462,-0.15879913589971462
170.71900000000002,0.11088327362174855,-0.11088327362174855
170.72,0.046300354144000466,-0.046300354144000466
170.721,0.013715285034065827,0.013715285034065827
170.722,0.05060030222373357,0.05060030222373357
170.723,0.054291209129912144,0.054291209129912144
170.72400000000002,0.02622156685057231,0.02622156685057231
170.725,0.02145859205655065,-0.02145859205655065
170.726,0.07017797058987152,-0.07017797058987152
170.727,0.10135084564175101,-0.10135084564175101
170.728,0.10279215671346309,-0.10279215671346309
170.729,0.07301235244823068,-0.07301235244823068
170.73000000000002,0.021934604397834456,-0.021934604397834456
170.731,0.032261962645555586,0.032261962645555586
170.732,0.06918980196096958,0.06918980196096958
170.733,0.07322827464873094,0.07322827464873094
170.734,0.03911257379951705,0.03911257379951705
170.735,0.025772018970427246,-0.025772018970427246
170.73600000000002,0.10325367490949611,-0.10325367490949611
170.737,0.16990496549472633,-0.16990496549472633
170.738,0.2045276284362384,-0.2045276284362384
170.739,0.19518884990680518,-0.19518884990680518
170.74,0.1434886293603309,-0.1434886293603309
170.741,0.0645781792063187,-0.0645781792063187
170.74200000000002,0.017211533396057188,0.017211533396057188
170.743,0.0758596389783206,0.0758596389783206
170.744,0.09196100808321295,0.09196100808321295
170.745,0.059231079803987896,0.059231079803987896
170.746,0.01289548281802444,-0.01289548281802444
170.747,0.10149633324452678,-0.10149633324452678
170.74800000000002,0.17666425173199052,-0.17666425173199052
170.749,0.21040099243787524,-0.21040099243787524
170.75,0.18527227270390156,-0.18527227270390156
170.751,0.10024364541190023,-0.10024364541190023
170.752,0.028057495103608554,0.028057495103608554
170.753,0.16906905897189417,0.16906905897189417
170.75400000000002,0.2859850603572227,0.2859850603572227
170.755,0.345273263165883,0.345273263165883
170.756,0.3254166439491639,0.3254166439491639
170.757,0.22256341314814643,0.22256341314814643
170.758,0.051691762411602005,0.051691762411602005
170.759,0.15684901019112008,-0.15684901019112008
170.76000000000002,0.3643463757368458,-0.3643463757368458
170.761,0.5323712303776656,-0.5323712303776656
170.762,0.6308917525199008,-0.6308917525199008
170.763,0.6440094490594543,-0.6440094490594543
170.764,0.5722329250278917,-0.5722329250278917
170.765,0.43114313188769615,-0.43114313188769615
170.76600000000002,0.2471497902723122,-0.2471497902723122
170.767,0.05158965157092854,-0.05158965157092854
170.768,0.12541409962077266,0.12541409962077266
170.769,0.26009337035472035,0.26009337035472035
170.77,0.33835293322648297,0.33835293322648297
170.77100000000002,0.356935142495481,0.356935142495481
170.77200000000002,0.3225504492932776,0.3225504492932776
170.773,0.24941671651772412,0.24941671651772412
170.774,0.1558309254189314,0.1558309254189314
170.775,0.06045382889011974,0.06045382889011974
170.776,0.02104641751024594,-0.02104641751024594
170.77700000000002,0.0784489671468569,-0.0784489671468569
170.77800000000002,0.10815589445064422,-0.10815589445064422
170.779,0.11293711946959084,-0.11293711946959084
170.78,0.10036560177672815,-0.10036560177672815
170.781,0.08034231352770926,-0.08034231352770926
170.782,0.06232838322888812,-0.06232838322888812
170.78300000000002,0.052985241570931874,-0.052985241570931874
170.78400000000002,0.054822530922789325,-0.054822530922789325
170.785,0.06617077856332076,-0.06617077856332076
170.786,0.08239972224143166,-0.08239972224143166
170.787,0.09791427430986699,-0.09791427430986699
170.788,0.1082130992182071,-0.1082130992182071
170.78900000000002,0.1112880439782451,-0.1112880439782451
170.79000000000002,0.10789513569820641,-0.10789513569820641
170.791,0.10066215816502988,-0.10066215816502988
170.792,0.09245993486661674,-0.09245993486661674
170.793,0.08477629858585378,-0.08477629858585378
170.794,0.07685893778008757,-0.07685893778008757
170.79500000000002,0.06610255440092094,-0.06610255440092094
170.79600000000002,0.04963771268434014,-0.04963771268434014
170.797,0.02652404252169549,-0.02652404252169549
170.798,0.0004162571184642694,0.0004162571184642694
170.799,0.02409450977386296,0.02409450977386296
170.8,0.034548753362893425,0.034548753362893425
170.80100000000002,0.022100807561835856,0.022100807561835856
170.80200000000002,0.0186144568405906,-0.0186144568405906
170.803,0.0851638736374033,-0.0851638736374033
170.804,0.16584607877431468,-0.16584607877431468
170.805,0.2412101887649014,-0.2412101887649014
170.806,0.28860047057032934,-0.28860047057032934
170.80700000000002,0.28868216117411094,-0.28868216117411094
170.80800000000002,0.23205137868110604,-0.23205137868110604
170.809,0.12374148822741715,-0.12374148822741715
170.81,0.01612819637016827,0.01612819637016827
170.811,0.156237239865487,0.156237239865487
170.812,0.261747540245475,0.261747540245475
170.81300000000002,0.303759572618131,0.303759572618131
170.81400000000002,0.26778842172139194,0.26778842172139194
170.815,0.15862416191040007,0.15862416191040007
170.816,8.486490196712992e-05,-8.486490196712992e-05
170.817,0.17163244525915522,-0.17163244525915522
170.818,0.315891623282599,-0.315891623282599
170.81900000000002,0.4000233588188796,-0.4000233588188796
170.82000000000002,0.4071156061756921,-0.4071156061756921
170.821,0.34021783275809214,-0.34021783275809214
170.822,0.22064318131346627,-0.22064318131346627
170.823,0.08117180854433437,-0.08117180854433437
170.824,0.04366246042973332,0.04366246042973332
170.82500000000002,0.1271824173433478,0.1271824173433478
170.82600000000002,0.15719117600136734,0.15719117600136734
170.827,0.13777550424924878,0.13777550424924878
170.828,0.08605670476732552,0.08605670476732552
170.829,0.02527223862819894,0.02527223862819894
170.83,0.023331581300692128,-0.023331581300692128
170.83100000000002,0.047081950279704854,-0.047081950279704854
170.83200000000002,0.044898864020201934,-0.044898864020201934
170.833,0.026035411598551605,-0.026035411598551605
170.834,0.00531777838313785,-0.00531777838313785
170.835,0.0031859258666837587,0.0031859258666837587
170.836,0.008287330407892646,-0.008287330407892646
170.83700000000002,0.03837445047667054,-0.03837445047667054
170.83800000000002,0.0773602823553694,-0.0773602823553694
170.839,0.11108866617930102,-0.11108866617930102
170.84,0.12644877443628832,-0.12644877443628832
170.841,0.11637654788811036,-0.11637654788811036
170.842,0.0825696012772863,-0.0825696012772863
170.84300000000002,0.035006209330636806,-0.035006209330636806
170.84400000000002,0.01146042270334413,0.01146042270334413
170.845,0.042127994311944805,0.042127994311944805
170.846,0.047265876682579755,0.047265876682579755
170.847,0.025063793345306173,0.025063793345306173
170.848,0.01820886916807196,-0.01820886916807196
170.84900000000002,0.07070850397025563,-0.07070850397025563
170.85,0.11912315423951614,-0.11912315423951614
170.851,0.1528175240277151,-0.1528175240277151
170.852,0.16656394569886268,-0.16656394569886268
170.853,0.16104879595184174,-0.16104879595184174
170.854,0.14125176000126227,-0.14125176000126227
170.85500000000002,0.11360813279396376,-0.11360813279396376
170.856,0.08327034559199875,-0.08327034559199875
170.857,0.05263939359113967,-0.05263939359113967
170.858,0.021714474139224227,-0.021714474139224227
170.859,0.01002844757504806,0.01002844757504806
170.86,0.041226621717181944,0.041226621717181944
170.86100000000002,0.06697293271873384,0.06697293271873384
170.862,0.07893376444939837,0.07893376444939837
170.863,0.06754875297783647,0.06754875297783647
170.864,0.02572187528255121,0.02572187528255121
170.865,0.047309650727326624,-0.047309650727326624
170.866,0.14349353904721007,-0.14349353904721007
170.86700000000002,0.24608751920046856,-0.24608751920046856
170.868,0.33276942389729747,-0.33276942389729747
170.869,0.3810634834122515,-0.3810634834122515
170.87,0.37453997096324676,-0.37453997096324676
170.871,0.30786932130360667,-0.30786932130360667
170.872,0.18908512672371092,-0.18908512672371092
170.87300000000002,0.038252470937236716,-0.038252470937236716
170.874,0.11713621587672862,0.11713621587672862
170.875,0.24869345027335177,0.24869345027335177
170.876,0.33368375760019875,0.33368375760019875
170.877,0.35974237382153795,0.35974237382153795
170.878,0.3265897700649767,0.3265897700649767
170.87900000000002,0.2445788702893481,0.2445788702893481
170.88,0.1309041283796606,0.1309041283796606
170.881,0.004929383035954027,0.004929383035954027
170.882,0.11584269297837091,-0.11584269297837091
170.883,0.21811487644109195,-0.21811487644109195
170.884,0.2932114493554361,-0.2932114493554361
170.88500000000002,0.3361193243519627,-0.3361193243519627
170.886,0.34418100492686055,-0.34418100492686055
170.887,0.31644265418169326,-0.31644265418169326
170.888,0.25417050291336374,-0.25417050291336374
170.889,0.162314273132107,-0.162314273132107
170.89,0.05104197787962916,-0.05104197787962916
170.89100000000002,0.06380599964290412,0.06380599964290412
170.892,0.1622446174778458,0.1622446174778458
170.893,0.2238395453640809,0.2238395453640809
170.894,0.2328358977265641,0.2328358977265641
170.895,0.18322185294374083,0.18322185294374083
170.89600000000002,0.08194622703205523,0.08194622703205523
170.89700000000002,0.05112964440999612,-0.05112964440999612
170.898,0.18703305146558746,-0.18703305146558746
170.899,0.29451059403644886,-0.29451059403644886
170.9,0.34809012132664996,-0.34809012132664996
170.901,0.3350268757235868,-0.3350268757235868
170.90200000000002,0.25898690074193387,-0.25898690074193387
170.90300000000002,0.13923913592094073,-0.13923913592094073
170.904,0.0054827131231793835,-0.0054827131231793835
170.905,0.1102123864225184,0.1102123864225184
170.906,0.18197355090481815,0.18197355090481815
170.907,0.19667901015861378,0.19667901015861378
170.90800000000002,0.15663037477700015,0.15663037477700015
170.90900000000002,0.07771844196427846,0.07771844196427846
170.91,0.01613429364539143,-0.01613429364539143
170.911,0.10035774638135542,-0.10035774638135542
170.912,0.15658738083000534,-0.15658738083000534
170.913,0.17694850052517885,-0.17694850052517885
170.91400000000002,0.16469577619761488,-0.16469577619761488
170.91500000000002,0.1313861670493125,-0.1313861670493125
170.916,0.0918743360276354,-0.0918743360276354
170.917,0.05902027037829727,-0.05902027037829727
170.918,0.039914456322686864,-0.039914456322686864
170.919,0.03472770130895786,-0.03472770130895786
170.92000000000002,0.03826227019782191,-0.03826227019782191
170.92100000000002,0.04330257795052683,-0.04330257795052683
170.922,0.0442833217542038,-0.0442833217542038
170.923,0.039796791195732206,-0.039796791195732206
170.924,0.03301533717186511,-0.03301533717186511
170.925,0.029976994942618296,-0.029976994942618296
170.92600000000002,0.03653283894460502,-0.03653283894460502
170.92700000000002,0.05526563979775023,-0.05526563979775023
170.928,0.08367947295563705,-0.08367947295563705
170.929,0.11444690078174946,-0.11444690078174946
170.93,0.1376889103315947,-0.1376889103315947
170.931,0.14446429656700144,-0.14446429656700144
170.93200000000002,0.13016049170141353,-0.13016049170141353
170.93300000000002,0.09648679346156841,-0.09648679346156841
170.934,0.05126850253446791,-0.05126850253446791
170.935,0.006041594530841854,-0.006041594530841854
170.936,0.027742640644431216,0.027742640644431216
170.937,0.042571098666492224,0.042571098666492224
170.93800000000002,0.037403652933199805,0.037403652933199805
170.93900000000002,0.017962170679343137,0.017962170679343137
170.94,0.005368509471348926,-0.005368509471348926
170.941,0.021327716854784184,-0.021327716854784184
170.942,0.021950790409334564,-0.021950790409334564
170.943,0.005667951236169144,-0.005667951236169144
170.94400000000002,0.021779306483753924,0.021779306483753924
170.94500000000002,0.04898309761943653,0.04898309761943653
170.946,0.06258952534264184,0.06258952534264184
170.947,0.05190110533431147,0.05190110533431147
170.948,0.01285134960861778,0.01285134960861778
170.949,0.049981910484521164,-0.049981910484521164
170.95000000000002,0.12404922145821562,-0.12404922145821562
170.95100000000002,0.1920705677456882,-0.1920705677456882
170.952,0.23691908141407747,-0.23691908141407747
170.953,0.24669871243967745,-0.24669871243967745
170.954,0.21848545424839105,-0.21848545424839105
170.955,0.15957929105239355,-0.15957929105239355
170.95600000000002,0.08583175901598394,-0.08583175901598394
170.95700000000002,0.017457389547553936,-0.017457389547553936
170.958,0.026536831876177613,0.026536831876177613
170.959,0.03376334432645578,0.03376334432645578
170.96,0.0021867628981633302,0.0021867628981633302
170.961,0.058906822452279406,-0.058906822452279406
170.96200000000002,0.1310560922685433,-0.1310560922685433
170.96300000000002,0.19140345784666746,-0.19140345784666746
170.964,0.21890258122504525,-0.21890258122504525
170.965,0.20032901068147024,-0.20032901068147024
170.966,0.13446040545399107,-0.13446040545399107
170.967,0.033211591623207526,-0.033211591623207526
170.96800000000002,0.08073547362684574,0.08073547362684574
170.96900000000002,0.17935374708151364,0.17935374708151364
170.97,0.23644861230773118,0.23644861230773118
170.971,0.23474621989488464,0.23474621989488464
170.972,0.17096231161275877,0.17096231161275877
170.973,0.057356689479836964,0.057356689479836964
170.97400000000002,0.08084222025257837,-0.08084222025257837
170.975,0.21164371066809706,-0.21164371066809706
170.976,0.3045797366126153,-0.3045797366126153
170.977,0.3388331694346933,-0.3388331694346933
170.978,0.30889290166931704,-0.30889290166931704
170.979,0.22601454550371458,-0.22601454550371458
170.98000000000002,0.11491361955359758,-0.11491361955359758
170.981,0.006513970355882859,-0.006513970355882859
170.982,0.07119278142344765,0.07119278142344765
170.983,0.10144674663496356,0.10144674663496356
170.984,0.08358560932248049,0.08358560932248049
170.985,0.03284737043128416,0.03284737043128416
170.98600000000002,0.024981496533974967,-0.024981496533974967
170.987,0.06250837416958288,-0.06250837416958288
170.988,0.06045987451553714,-0.06045987451553714
170.989,0.014984914769800017,-0.014984914769800017
170.99,0.060037320121553606,0.060037320121553606
170.991,0.13673779625509375,0.13673779625509375
170.99200000000002,0.18214070478498612,0.18214070478498612
170.993,0.16950808035608178,0.16950808035608178
170.994,0.0884745568487153,0.0884745568487153
170.995,0.04952756554061599,-0.04952756554061599
170.996,0.21270753343212856,-0.21270753343212856
170.997,0.3572342613558458,-0.3572342613558458
170.99800000000002,0.4401782332643489,-0.4401782332643489
170.999,0.4331664816177113,-0.4331664816177113
171.0,0.33237700504712,-0.33237700504712
171.001,0.1614405421951921,-0.1614405421951921
171.002,0.034078535927548836,0.034078535927548836
171.003,0.19931973202058595,0.19931973202058595
171.00400000000002,0.28625607866853664,0.28625607866853664
171.005,0.2684368915989168,0.2684368915989168
171.006,0.14972281299353818,0.14972281299353818
171.007,0.03587641928712759,-0.03587641928712759
171.008,0.23346291335736435,-0.23346291335736435
171.009,0.38300271859642854,-0.38300271859642854
171.01000000000002,0.43692082802099985,-0.43692082802099985
171.011,0.37427242338725886,-0.37427242338725886
171.012,0.20723196827325907,-0.20723196827325907
171.013,0.022036854607765388,0.022036854607765388
171.014,0.25316338640556957,0.25316338640556957
171.015,0.4244611048876543,0.4244611048876543
171.01600000000002,0.48993091975709957,0.48993091975709957
171.017,0.4314758846329678,0.4314758846329678
171.018,0.26299931914557706,0.26299931914557706
171.019,0.025572222760061658,0.025572222760061658
171.02,0.22450210605398502,-0.22450210605398502
171.02100000000002,0.43094725802471334,-0.43094725802471334
171.02200000000002,0.5516189824309351,-0.5516189824309351
171.023,0.5676672034154013,-0.5676672034154013
171.024,0.4857282932526218,-0.4857282932526218
171.025,0.33332631384974154,-0.33332631384974154
171.026,0.14958517293742435,-0.14958517293742435
171.02700000000002,0.025577131519309182,0.025577131519309182
171.02800000000002,0.16062799332619648,0.16062799332619648
171.029,0.23781142118959941,0.23781142118959941
171.03,0.254084129455048,0.254084129455048
171.031,0.21837418860588342,0.21837418860588342
171.032,0.14685767741287759,0.14685767741287759
171.03300000000002,0.058110757713672134,0.058110757713672134
171.03400000000002,0.030523805687812544,-0.030523805687812544
171.035,0.10489594533800928,-0.10489594533800928
171.036,0.1546977718778757,-0.1546977718778757
171.037,0.17359725459401987,-0.17359725459401987
171.038,0.15955393678523055,-0.15955393678523055
171.03900000000002,0.11550824685717431,-0.11550824685717431
171.04000000000002,0.05001837069525095,-0.05001837069525095
171.041,0.022966867641988298,0.022966867641988298
171.042,0.08593062899324821,0.08593062899324821
171.043,0.12137548038117996,0.12137548038117996
171.044,0.11651583945963173,0.11651583945963173
171.04500000000002,0.06768289142520012,0.06768289142520012
171.04600000000002,0.017226717687029325,-0.017226717687029325
171.047,0.11954608241385756,-0.11954608241385756
171.048,0.2141850025261095,-0.2141850025261095
171.049,0.27657366142752315,-0.27657366142752315
171.05,0.290168170303598,-0.290168170303598
171.05100000000002,0.25202877408504765,-0.25202877408504765
171.05200000000002,0.174394192626515,-0.174394192626515
171.053,0.08138614538873723,-0.08138614538873723
171.054,0.001609815961070904,-0.001609815961070904
171.055,0.04109456579935067,0.04109456579935067
171.056,0.03569795533296438,0.03569795533296438
171.05700000000002,0.011993277315140882,-0.011993277315140882
171.05800000000002,0.08091596293420633,-0.08091596293420633
171.059,0.14165002401122517,-0.14165002401122517
171.06,0.16649996788506038,-0.16649996788506038
171.061,0.13942035535436992,-0.13942035535436992
171.062,0.06235954650400555,-0.06235954650400555
171.06300000000002,0.044307143855911724,0.044307143855911724
171.06400000000002,0.14764162027803152,0.14764162027803152
171.065,0.2125510848377461,0.2125510848377461
171.066,0.21338385368950563,0.21338385368950563
171.067,0.14285879826281467,0.14285879826281467
171.068,0.015277752506586806,0.015277752506586806
171.06900000000002,0.137175102575673,-0.137175102575673
171.07000000000002,0.273954321470252,-0.273954321470252
171.071,0.35845478595432323,-0.35845478595432323
171.072,0.36911320816178106,-0.36911320816178106
171.073,0.3057199575966424,-0.3057199575966424
171.074,0.18894429822474268,-0.18894429822474268
171.07500000000002,0.0533292282819261,-0.0533292282819261
171.07600000000002,0.06384021395866735,0.06384021395866735
171.077,0.13407513341025679,0.13407513341025679
171.078,0.14585908370569922,0.14585908370569922
171.079,0.10691220214809238,0.10691220214809238
171.08,0.04004271159021178,0.04004271159021178
171.08100000000002,0.025746159182950867,-0.025746159182950867
171.08200000000002,0.06568055305030152,-0.06568055305030152
171.083,0.06755089385840019,-0.06755089385840019
171.084,0.035179948173612474,-0.035179948173612474
171.085,0.013979205068584744,0.013979205068584744
171.086,0.05604803646322276,0.05604803646322276
171.08700000000002,0.0700188561306192,0.0700188561306192
171.08800000000002,0.045772242545125685,0.045772242545125685
171.089,0.012023380014931306,-0.012023380014931306
171.09,0.08545967301500867,-0.08545967301500867
171.091,0.14977221126608598,-0.14977221126608598
171.092,0.1822583196781591,-0.1822583196781591
171.09300000000002,0.17056776789849792,-0.17056776789849792
171.09400000000002,0.11745603129075421,-0.11745603129075421
171.095,0.040340495478471405,-0.040340495478471405
171.096,0.034200716213087956,0.034200716213087956
171.097,0.07912693547470595,0.07912693547470595
171.098,0.07591077394744139,0.07591077394744139
171.09900000000002,0.02081572284772637,0.02081572284772637
171.1,0.0735633680301584,-0.0735633680301584
171.101,0.1819487922492331,-0.1819487922492331
171.102,0.2739806120107735,-0.2739806120107735
171.103,0.3233021529632364,-0.3233021529632364
171.104,0.31527420841472753,-0.31527420841472753
171.10500000000002,0.25100142661012026,-0.25100142661012026
171.106,0.14660046132470617,-0.14660046132470617
171.107,0.02815262525483697,-0.02815262525483697
171.108,0.07593377914790578,0.07593377914790578
171.109,0.1427628739691693,0.1427628739691693
171.11,0.1607192408697662,0.1607192408697662
171.11100000000002,0.13168368529408125,0.13168368529408125
171.112,0.06937756642369886,0.06937756642369886
171.113,0.0053449662277996746,-0.0053449662277996746
171.114,0.07066412664208899,-0.07066412664208899
171.115,0.1096066849911046,-0.1096066849911046
171.116,0.1140097208565709,-0.1140097208565709
171.11700000000002,0.08583116378355982,-0.08583116378355982
171.118,0.03580039057390727,-0.03580039057390727
171.119,0.019935126487346855,0.019935126487346855
171.12,0.06413789647955803,0.06413789647955803
171.121,0.08270277956234917,0.08270277956234917
171.122,0.06789324717884515,0.06789324717884515
171.12300000000002,0.020040509181920907,0.020040509181920907
171.124,0.052500636342572404,-0.052500636342572404
171.125,0.13505070064450198,-0.13505070064450198
171.126,0.20963689360302173,-0.20963689360302173
171.127,0.25884164663839404,-0.25884164663839404
171.128,0.2697867539368145,-0.2697867539368145
171.12900000000002,0.2374543213188124,-0.2374543213188124
171.13,0.16653755086602717,-0.16653755086602717
171.131,0.07118665461115148,-0.07118665461115148
171.132,0.027595449851079534,0.027595449851079534
171.133,0.1065859300858143,0.1065859300858143
171.134,0.1460661651184798,0.1460661651184798
171.13500000000002,0.13522914607593783,0.13522914607593783
171.136,0.07572915433368688,0.07572915433368688
171.137,0.017845992860018423,-0.017845992860018423
171.138,0.12104715175652103,-0.12104715175652103
171.139,0.20564282925019106,-0.20564282925019106
171.14,0.24720593579751637,-0.24720593579751637
171.14100000000002,0.23211256178426742,-0.23211256178426742
171.142,0.16186025281072414,-0.16186025281072414
171.143,0.05327356511907999,-0.05327356511907999
171.144,0.06567677146881068,0.06567677146881068
171.145,0.16339656249276713,0.16339656249276713
171.14600000000002,0.21342611632191621,0.21342611632191621
171.14700000000002,0.20187695894986013,0.20187695894986013
171.148,0.13132515685747959,0.13132515685747959
171.149,0.019978579865096435,0.019978579865096435
171.15,0.10363412383869153,-0.10363412383869153
171.151,0.20883521548558426,-0.20883521548558426
171.15200000000002,0.27134465961476617,-0.27134465961476617
171.15300000000002,0.27963357264345123,-0.27963357264345123
171.154,0.23724575668565784,-0.23724575668565784
171.155,0.16055191627608767,-0.16055191627608767
171.156,0.07284959833670435,-0.07284959833670435
171.157,0.003157833545924582,0.003157833545924582
171.15800000000002,0.05203799360532679,0.05203799360532679
171.15900000000002,0.06938043569896024,0.06938043569896024
171.16,0.06159312131822747,0.06159312131822747
171.161,0.04207155800445528,0.04207155800445528
171.162,0.025266670834797278,0.025266670834797278
171.163,0.020822964145100764,0.020822964145100764
171.16400000000002,0.02984984712564054,0.02984984712564054
171.16500000000002,0.04458430330455809,0.04458430330455809
171.166,0.05149341785733452,0.05149341785733452
171.167,0.036670133002620675,0.036670133002620675
171.168,0.008402188174437608,-0.008402188174437608
171.169,0.082750306803687,-0.082750306803687
171.17000000000002,0.17493246694182396,-0.17493246694182396
171.17100000000002,0.26558129119916496,-0.26558129119916496
171.172,0.3326998654510992,-0.3326998654510992
171.173,0.35804747683076044,-0.35804747683076044
171.174,0.332613856056158,-0.332613856056158
171.175,0.2594911752979058,-0.2594911752979058
171.17600000000002,0.15328810273535554,-0.15328810273535554
171.17700000000002,0.03630382084739103,-0.03630382084739103
171.178,0.06735520960902908,0.06735520960902908
171.179,0.13797011982053164,0.13797011982053164
171.18,0.16495916828436474,0.16495916828436474
171.181,0.14893379702124787,0.14893379702124787
171.18200000000002,0.10065384953441714,0.10065384953441714
171.18300000000002,0.037373841442231326,0.037373841442231326
171.184,0.022237178884063402,-0.022237178884063402
171.185,0.0631179480678129,-0.0631179480678129
171.186,0.0774315797695454,-0.0774315797695454
171.187,0.06592155693371105,-0.06592155693371105
171.18800000000002,0.036830233471452534,-0.036830233471452534
171.18900000000002,0.0028645850522558414,-0.0028645850522558414
171.19,0.02283189190388968,0.02283189190388968
171.191,0.030555651536676276,0.030555651536676276
171.192,0.016738859056353306,0.016738859056353306
171.193,0.015203384847543466,-0.015203384847543466
171.19400000000002,0.056041308043944915,-0.056041308043944915
171.19500000000002,0.09356292241110375,-0.09356292241110375
171.196,0.11629778906780408,-0.11629778906780408
171.197,0.1171229846766344,-0.1171229846766344
171.198,0.09574396883073677,-0.09574396883073677
171.199,0.05929216455232411,-0.05929216455232411
171.20000000000002,0.020737847057078374,-0.020737847057078374
171.20100000000002,0.004608358276477098,0.004608358276477098
171.202,0.0036710486749751414,0.0036710486749751414
171.203,0.029967906371589526,-0.029967906371589526
171.204,0.09312905469918842,-0.09312905469918842
171.205,0.17263076164548996,-0.17263076164548996
171.20600000000002,0.24785225340950445,-0.24785225340950445
171.20700000000002,0.2958612949999415,-0.2958612949999415
171.208,0.2978801498102044,-0.2978801498102044
171.209,0.24530900596977734,-0.24530900596977734
171.21,0.14345104773365924,-0.14345104773365924
171.211,0.011573930986911618,-0.011573930986911618
171.21200000000002,0.12108720692906627,0.12108720692906627
171.21300000000002,0.22258284111899895,0.22258284111899895
171.214,0.26688865237961923,0.26688865237961923
171.215,0.24147836124002775,0.24147836124002775
171.216,0.1515080679305585,0.1515080679305585
171.217,0.01915676728343252,0.01915676728343252
171.21800000000002,0.12194961479368271,-0.12194961479368271
171.21900000000002,0.2358088172764966,-0.2358088172764966
171.22,0.2940494218020723,-0.2940494218020723
171.221,0.28392262674438795,-0.28392262674438795
171.222,0.21183947041132,-0.21183947041132
171.223,0.10131140170463349,-0.10131140170463349
171.22400000000002,0.014150760959289688,0.014150760959289688
171.225,0.10105765885197626,0.10105765885197626
171.226,0.1358305664285091,0.1358305664285091
171.227,0.1115290187635738,0.1115290187635738
171.228,0.03937055554303859,0.03937055554303859
171.229,0.05536232877197278,-0.05536232877197278
171.23000000000002,0.14165865342277828,-0.14165865342277828
171.231,0.1926574877200551,-0.1926574877200551
171.232,0.19391189799263164,-0.19391189799263164
171.233,0.14745015960721541,-0.14745015960721541
171.234,0.07044724247029388,-0.07044724247029388
171.235,0.010913276466541832,0.010913276466541832
171.23600000000002,0.0702593045471398,0.0702593045471398
171.237,0.08958483398233197,0.08958483398233197
171.238,0.06475860807026468,0.06475860807026468
171.239,0.006286427824811147,0.006286427824811147
171.24,0.06475896933037906,-0.06475896933037906
171.241,0.1241286654072874,-0.1241286654072874
171.24200000000002,0.15254928943466783,-0.15254928943466783
171.243,0.14191359344875332,-0.14191359344875332
171.244,0.09753834074000645,-0.09753834074000645
171.245,0.035899599486619915,-0.035899599486619915
171.246,0.02121881334218867,0.02121881334218867
171.247,0.05407773207894562,0.05407773207894562
171.24800000000002,0.05134778387898753,0.05134778387898753
171.249,0.013448456201208936,0.013448456201208936
171.25,0.048068813509954955,-0.048068813509954955
171.251,0.1146635939758105,-0.1146635939758105
171.252,0.16690964661266727,-0.16690964661266727
171.253,0.1904537619542609,-0.1904537619542609
171.25400000000002,0.17993043509092976,-0.17993043509092976
171.255,0.13976105755072032,-0.13976105755072032
171.256,0.08188913776504014,-0.08188913776504014
171.257,0.021509786235215378,-0.021509786235215378
171.258,0.02759834982650533,0.02759834982650533
171.259,0.056590554185025566,0.056590554185025566
171.26000000000002,0.06296739458782086,0.06296739458782086
171.261,0.04978533159759935,0.04978533159759935
171.262,0.02335997866351569,0.02335997866351569
171.263,0.009414851637219224,-0.009414851637219224
171.264,0.04306346029289854,-0.04306346029289854
171.265,0.07423798252473413,-0.07423798252473413
171.26600000000002,0.101191019229256,-0.101191019229256
171.267,0.12261138704309182,-0.12261138704309182
171.268,0.13664805888233655,-0.13664805888233655
171.269,0.14077014007693978,-0.14077014007693978
171.27,0.132629593374601,-0.132629593374601
171.27100000000002,0.1115349287848898,-0.1115349287848898
171.27200000000002,0.0797652875605328,-0.0797652875605328
171.273,0.04293361181212163,-0.04293361181212163
171.274,0.008968284929624759,-0.008968284929624759
171.275,0.014118906381813456,0.014118906381813456
171.276,0.020927755700335338,0.020927755700335338
171.27700000000002,0.010768463133620232,0.010768463133620232
171.27800000000002,0.011773290895916277,-0.011773290895916277
171.279,0.038209145588244287,-0.038209145588244287
171.28,0.059109485792818384,-0.059109485792818384
171.281,0.06762681205950838,-0.06762681205950838
171.282,0.06223682487666571,-0.06223682487666571
171.28300000000002,0.04755138745655718,-0.04755138745655718
171.28400000000002,0.03273001377484408,-0.03273001377484408
171.285,0.027929013491706622,-0.027929013491706622
171.286,0.040035799502535,-0.040035799502535
171.287,0.06931552818711284,-0.06931552818711284
171.288,0.10837125004209303,-0.10837125004209303
171.28900000000002,0.1440345741341662,-0.1440345741341662
171.29000000000002,0.16172691060262456,-0.16172691060262456
171.291,0.15085434933636543,-0.15085434933636543
171.292,0.10929865251218895,-0.10929865251218895
171.293,0.04525931852775977,-0.04525931852775977
171.294,0.024445273278040247,0.024445273278040247
171.29500000000002,0.07927670390206787,0.07927670390206787
171.29600000000002,0.10155651139534339,0.10155651139534339
171.297,0.08251961070689151,0.08251961070689151
171.298,0.025706154843333273,0.025706154843333273
171.299,0.05360357997432674,-0.05360357997432674
171.3,0.13287368467401084,-0.13287368467401084
171.30100000000002,0.18931340476515657,-0.18931340476515657
171.30200000000002,0.20707975863895323,-0.20707975863895323
171.303,0.18224674699568932,-0.18224674699568932
171.304,0.1238370533087596,-0.1238370533087596
171.305,0.05055316268748811,-0.05055316268748811
171.306,0.015668526016139994,0.015668526016139994
171.30700000000002,0.05704853400180032,0.05704853400180032
171.30800000000002,0.06573428326051967,0.06573428326051967
171.309,0.04595029507550619,0.04595029507550619
171.31,0.011804240234704722,0.011804240234704722
171.311,0.01843922920415586,-0.01843922920415586
171.312,0.029549059968182134,-0.029549059968182134
171.31300000000002,0.015385563244179279,-0.015385563244179279
171.31400000000002,0.01838390767648468,0.01838390767648468
171.315,0.05594820278508528,0.05594820278508528
171.316,0.07688476044005998,0.07688476044005998
171.317,0.06367335316124767,0.06367335316124767
171.318,0.008577649372993879,0.008577649372993879
171.31900000000002,0.08253819162963849,-0.08253819162963849
171.32000000000002,0.19086662455324188,-0.19086662455324188
171.321,0.2896853430706987,-0.2896853430706987
171.322,0.35217981702825607,-0.35217981702825607
171.323,0.3595464834489672,-0.3595464834489672
171.324,0.3067787564229053,-0.3067787564229053
171.32500000000002,0.20431846193895808,-0.20431846193895808
171.32600000000002,0.0751189936249741,-0.0751189936249741
171.327,0.05185931454640236,0.05185931454640236
171.328,0.14961166527668945,0.14961166527668945
171.329,0.20004120984502505,0.20004120984502505
171.33,0.19789155669174563,0.19789155669174563
171.33100000000002,0.1507282787136166,0.1507282787136166
171.33200000000002,0.07534278489315183,0.07534278489315183
171.333,0.00796594045365484,-0.00796594045365484
171.334,0.08125983314363039,-0.08125983314363039
171.335,0.1331841580499743,-0.1331841580499743
171.336,0.1604945336824728,-0.1604945336824728
171.33700000000002,0.1668500799224838,-0.1668500799224838
171.33800000000002,0.15973636759991916,-0.15973636759991916
171.339,0.1468754964601633,-0.1468754964601633
171.34,0.13343971634150464,-0.13343971634150464
171.341,0.1208878592951651,-0.1208878592951651
171.342,0.10752615120332976,-0.10752615120332976
171.34300000000002,0.09024790017229867,-0.09024790017229867
171.34400000000002,0.0665621191159862,-0.0665621191159862
171.345,0.0360692358267416,-0.0360692358267416
171.346,0.0009091996333875363,-0.0009091996333875363
171.347,0.0347986484251499,0.0347986484251499
171.348,0.06610558467615957,0.06610558467615957
171.34900000000002,0.0884081672297592,0.0884081672297592
171.35,0.09821815423881386,0.09821815423881386
171.351,0.09341645694589595,0.09341645694589595
171.352,0.07320172574796668,0.07320172574796668
171.353,0.03809794751579809,0.03809794751579809
171.354,0.009712493540201428,-0.009712493540201428
171.35500000000002,0.06576803940620479,-0.06576803940620479
171.356,0.12281045762813447,-0.12281045762813447
171.357,0.17096439510291217,-0.17096439510291217
171.358,0.19911136143000163,-0.19911136143000163
171.359,0.19753865936880244,-0.19753865936880244
171.36,0.16133840101448116,-0.16133840101448116
171.36100000000002,0.09348288122465342,-0.09348288122465342
171.362,0.00627445420201489,-0.00627445420201489
171.363,0.07986834696484024,0.07986834696484024
171.364,0.14057929870030206,0.14057929870030206
171.365,0.1539351556406785,0.1539351556406785
171.366,0.10738722818736468,0.10738722818736468
171.36700000000002,0.003050343781274778,0.003050343781274778
171.368,0.14063737541552768,-0.14063737541552768
171.369,0.29195043023512757,-0.29195043023512757
171.37,0.4132684332553562,-0.4132684332553562
171.371,0.4710317064851076,-0.4710317064851076
171.372,0.44545930217888385,-0.44545930217888385
171.37300000000002,0.33705110267412086,-0.33705110267412086
171.374,0.16767335164348318,-0.16767335164348318
171.375,0.024431711154706104,0.024431711154706104
171.376,0.1945280816979078,0.1945280816979078
171.377,0.30341774730207405,0.30341774730207405
171.378,0.3281247493088646,0.3281247493088646
171.37900000000002,0.2680547606723991,0.2680547606723991
171.38,0.14477533699603518,0.14477533699603518
171.381,0.004517907423502554,-0.004517907423502554
171.382,0.13787064474407285,-0.13787064474407285
171.383,0.22049811427348598,-0.22049811427348598
171.384,0.23422394393492085,-0.23422394393492085
171.38500000000002,0.18171328713159063,-0.18171328713159063
171.386,0.08444070582682961,-0.08444070582682961
171.387,0.024726960369159334,0.024726960369159334
171.388,0.1118510270695412,0.1118510270695412
171.389,0.15189597855292858,0.15189597855292858
171.39,0.135389029833074,0.135389029833074
171.39100000000002,0.06998435022171323,0.06998435022171323
171.392,0.023169677484770945,-0.023169677484770945
171.393,0.11675690715050258,-0.11675690715050258
171.394,0.1857871738654885,-0.1857871738654885
171.395,0.21457930858470808,-0.21457930858470808
171.39600000000002,0.20026239492738418,-0.20026239492738418
171.39700000000002,0.15209610213852554,-0.15209610213852554
171.398,0.08728880892786739,-0.08728880892786739
171.399,0.025017178024841158,-0.025017178024841158
171.4,0.01928135057514968,0.01928135057514968
171.401,0.03761871454133625,0.03761871454133625
171.40200000000002,0.030317207305643246,0.030317207305643246
171.40300000000002,0.004216698480872694,0.004216698480872694
171.404,0.030731612174857315,-0.030731612174857315
171.405,0.06507064810296426,-0.06507064810296426
171.406,0.09239928960928823,-0.09239928960928823
171.407,0.11023590094425628,-0.11023590094425628
171.40800000000002,0.11926713710579606,-0.11926713710579606
171.40900000000002,0.12166029154941715,-0.12166029154941715
171.41,0.11935977457975677,-0.11935977457975677
171.411,0.11312617317009632,-0.11312617317009632
171.412,0.10262106130340753,-0.10262106130340753
171.413,0.08731055335693205,-0.08731055335693205
171.41400000000002,0.06758629048307152,-0.06758629048307152
171.41500000000002,0.04543379942743342,-0.04543379942743342
171.416,0.024227257069997732,-0.024227257069997732
171.417,0.007673019018965221,-0.007673019018965221
171.418,0.0016413275041975428,0.0016413275041975428
171.419,0.0034059083714041982,0.0034059083714041982
171.42000000000002,0.00014952337312779118,-0.00014952337312779118
171.42100000000002,0.005130007849414309,-0.005130007849414309
171.422,0.007724899992347267,-0.007724899992347267
171.423,0.006147098990198718,-0.006147098990198718
171.424,0.0019154557222823554,-0.0019154557222823554
171.425,0.0001794088049063003,0.0001794088049063003
171.42600000000002,0.006394688922703784,-0.006394688922703784
171.42700000000002,0.027303647421937915,-0.027303647421937915
171.428,0.06456349983611553,-0.06456349983611553
171.429,0.114654030306931,-0.114654030306931
171.43,0.16837468989932025,-0.16837468989932025
171.431,0.2127236186274205,-0.2127236186274205
171.43200000000002,0.23437184460028593,-0.23437184460028593
171.43300000000002,0.22370479450914726,-0.22370479450914726
171.434,0.1781340385311193,-0.1781340385311193
171.435,0.10355211473507109,-0.10355211473507109
171.436,0.013365881595910678,-0.013365881595910678
171.437,0.0746873079817032,0.0746873079817032
171.43800000000002,0.14302204721542333,0.14302204721542333
171.43900000000002,0.17865056950309155,0.17865056950309155
171.44,0.17627660702132042,0.17627660702132042
171.441,0.1391681265279774,0.1391681265279774
171.442,0.07765459461967716,0.07765459461967716
171.443,0.005834378859545186,0.005834378859545186
171.44400000000002,0.06240251892834647,-0.06240251892834647
171.44500000000002,0.11679420743042834,-0.11679420743042834
171.446,0.1525990376967249,-0.1525990376967249
171.447,0.17055858909272514,-0.17055858909272514
171.448,0.17518825821601847,-0.17518825821601847
171.449,0.17217487202062187,-0.17217487202062187
171.45000000000002,0.1658819320922179,-0.1658819320922179
171.45100000000002,0.15782953743165828,-0.15782953743165828
171.452,0.1465982003050107,-0.1465982003050107
171.453,0.12906562226435248,-0.12906562226435248
171.454,0.10241495436872894,-0.10241495436872894
171.455,0.06610664514573494,-0.06610664514573494
171.45600000000002,0.023051405177486273,-0.023051405177486273
171.45700000000002,0.020475778432778924,0.020475778432778924
171.458,0.056198388267707955,0.056198388267707955
171.459,0.07606688332052824,0.07606688332052824
171.46,0.07466257745417382,0.07466257745417382
171.461,0.05103328487780723,0.05103328487780723
171.46200000000002,0.009390022564927047,0.009390022564927047
171.46300000000002,0.04157444295956514,-0.04157444295956514
171.464,0.09060006336056359,-0.09060006336056359
171.465,0.1265324754909145,-0.1265324754909145
171.466,0.14108542405374136,-0.14108542405374136
171.467,0.131000129043648,-0.131000129043648
171.46800000000002,0.09904922302439712,-0.09904922302439712
171.46900000000002,0.05359639988001963,-0.05359639988001963
171.47,0.006751308926500443,-0.006751308926500443
171.471,0.028512242883069527,0.028512242883069527
171.472,0.04164144132872338,0.04164144132872338
171.473,0.02741444477453059,0.02741444477453059
171.47400000000002,0.012284862040164435,-0.012284862040164435
171.475,0.06838568595724559,-0.06838568595724559
171.476,0.12643345740025846,-0.12643345740025846
171.477,0.1699980558798394,-0.1699980558798394
171.478,0.1849429279193412,-0.1849429279193412
171.479,0.16348251497346056,-0.16348251497346056
171.48000000000002,0.10688372003501256,-0.10688372003501256
171.481,0.02591767409996426,-0.02591767409996426
171.482,0.061283270248945865,0.061283270248945865
171.483,0.13358626272331642,0.13358626272331642
171.484,0.17236581649085925,0.17236581649085925
171.485,0.16664697534660045,0.16664697534660045
171.48600000000002,0.11635469745383453,0.11635469745383453
171.487,0.0326000087234255,0.0326000087234255
171.488,0.06523013947228429,-0.06523013947228429
171.489,0.15483676575063454,-0.15483676575063454
171.49,0.21727741208050677,-0.21727741208050677
171.491,0.242232437801711,-0.242232437801711
171.49200000000002,0.2306043805094533,-0.2306043805094533
171.493,0.19358703348214423,-0.19358703348214423
171.494,0.1484663744184308,-0.1484663744184308
171.495,0.11250325151379836,-0.11250325151379836
171.496,0.09692617879597787,-0.09692617879597787
171.497,0.10307961882594319,-0.10307961882594319
171.49800000000002,0.12209188385021275,-0.12209188385021275
171.499,0.13825116113314084,-0.13825116113314084
171.5,0.13499439637377952,-0.13499439637377952
171.501,0.10146393176692547,-0.10146393176692547
171.502,0.03731571701095138,-0.03731571701095138
171.503,0.04600809973017328,0.04600809973017328
171.50400000000002,0.12815531716652306,0.12815531716652306
171.505,0.18607058562878454,0.18607058562878454
171.506,0.20152008686190181,0.20152008686190181
171.507,0.16738952416649333,0.16738952416649333
171.508,0.09055091820806593,0.09055091820806593
171.509,0.009787728634910065,-0.009787728634910065
171.51000000000002,0.10780900930084314,-0.10780900930084314
171.511,0.17903782577280813,-0.17903782577280813
171.512,0.20787099996746927,-0.20787099996746927
171.513,0.19214810499100277,-0.19214810499100277
171.514,0.14322271464058078,-0.14322271464058078
171.515,0.08153929194874199,-0.08153929194874199
171.51600000000002,0.029280589239865096,-0.029280589239865096
171.517,0.002672890857904453,-0.002672890857904453
171.518,0.006652815992823413,-0.006652815992823413
171.519,0.033757869463624135,-0.033757869463624135
171.52,0.06759272056887455,-0.06759272056887455
171.52100000000002,0.08957670562873066,-0.08957670562873066
171.52200000000002,0.08648385903109435,-0.08648385903109435
171.523,0.05597924724557157,-0.05597924724557157
171.524,0.00805630699823201,-0.00805630699823201
171.525,0.03824990458937694,0.03824990458937694
171.526,0.061778517672590016,0.061778517672590016
171.52700000000002,0.047339351062893886,0.047339351062893886
171.52800000000002,0.007951240462221842,-0.007951240462221842
171.529,0.09247788773174159,-0.09247788773174159
171.53,0.18303328062479396,-0.18303328062479396
171.531,0.2519839427892765,-0.2519839427892765
171.532,0.27632262225350634,-0.27632262225350634
171.53300000000002,0.2455184596479576,-0.2455184596479576
171.53400000000002,0.16543767423557298,-0.16543767423557298
171.535,0.056929765385776765,-0.056929765385776765
171.536,0.05050254601903004,0.05050254601903004
171.537,0.12784670674454857,0.12784670674454857
171.538,0.1554797974468889,0.1554797974468889
171.53900000000002,0.1288760715395909,0.1288760715395909
171.54000000000002,0.05930322400326893,0.05930322400326893
171.541,0.030568834391558553,-0.030568834391558553
171.542,0.11448515891929112,-0.11448515891929112
171.543,0.1710669377871179,-0.1710669377871179
171.544,0.19001670563893924,-0.19001670563893924
171.54500000000002,0.17407422951933738,-0.17407422951933738
171.54600000000002,0.13631535867382827,-0.13631535867382827
171.547,0.09406644838384282,-0.09406644838384282
171.548,0.06187266579478157,-0.06187266579478157
171.549,0.046197076652839786,-0.046197076652839786
171.55,0.043771442344011646,-0.043771442344011646
171.55100000000002,0.04406778598763528,-0.04406778598763528
171.55200000000002,0.034763562596096254,-0.034763562596096254
171.553,0.007931671541591911,-0.007931671541591911
171.554,0.03557587621460834,0.03557587621460834
171.555,0.0853715329184701,0.0853715329184701
171.556,0.12481204172154903,0.12481204172154903
171.55700000000002,0.13714432630057027,0.13714432630057027
171.55800000000002,0.11219903891535665,0.11219903891535665
171.559,0.05103531517439963,0.05103531517439963
171.56,0.033352174710314486,-0.033352174710314486
171.561,0.1197129562071354,-0.1197129562071354
171.562,0.18541449685367406,-0.18541449685367406
171.56300000000002,0.21408550619076883,-0.21408550619076883
171.56400000000002,0.20124999850630498,-0.20124999850630498
171.565,0.15584378432177914,-0.15584378432177914
171.566,0.09696986390983175,-0.09696986390983175
171.567,0.046981019494024334,-0.046981019494024334
171.568,0.023343571557685072,-0.023343571557685072
171.56900000000002,0.03222844315779294,-0.03222844315779294
171.57000000000002,0.06620036159245446,-0.06620036159245446
171.571,0.10692686255956219,-0.10692686255956219
171.572,0.13202026057330263,-0.13202026057330263
171.573,0.12360897822166717,-0.12360897822166717
171.574,0.07556191375763022,-0.07556191375763022
171.57500000000002,0.003286435773701024,0.003286435773701024
171.57600000000002,0.09118191664908482,0.09118191664908482
171.577,0.16018766822458796,0.16018766822458796
171.578,0.1853655223970041,0.1853655223970041
171.579,0.15326760927759886,0.15326760927759886
171.58,0.06681255712356204,0.06681255712356204
171.58100000000002,0.05514626301754644,-0.05514626301754644
171.58200000000002,0.18343050509294156,-0.18343050509294156
171.583,0.2874247816623523,-0.2874247816623523
171.584,0.34424533214662256,-0.34424533214662256
171.585,0.34514429070738184,-0.34514429070738184
171.586,0.29711021474999466,-0.29711021474999466
171.58700000000002,0.2193172372495381,-0.2193172372495381
171.58800000000002,0.13584891865235338,-0.13584891865235338
171.589,0.06735575240614311,-0.06735575240614311
171.59,0.02457658905400184,-0.02457658905400184
171.591,0.0058910730427863545,-0.0058910730427863545
171.592,0.00043313896176955247,0.00043313896176955247
171.59300000000002,0.010328258299656667,0.010328258299656667
171.59400000000002,0.03665851280426313,0.03665851280426313
171.595,0.0833272896911974,0.0833272896911974
171.596,0.14292580286210033,0.14292580286210033
171.597,0.1987653135796652,0.1987653135796652
171.598,0.23054012246913191,0.23054012246913191
171.59900000000002,0.2215767827903381,0.2215767827903381
171.6,0.1650866354399918,0.1650866354399918
171.601,0.06722432110652266,0.06722432110652266
171.602,0.05409756713432967,-0.05409756713432967
171.603,0.1742046841219712,-0.1742046841219712
171.604,0.26874780483416616,-0.26874780483416616
171.60500000000002,0.3205116628213235,-0.3205116628213235
171.606,0.3237677808365692,-0.3237677808365692
171.607,0.28491954723978474,-0.28491954723978474
171.608,0.21949090083042955,-0.21949090083042955
171.609,0.14671563183685,-0.14671563183685
171.61,0.08367744092982754,-0.08367744092982754
171.61100000000002,0.04092180881117358,-0.04092180881117358
171.612,0.0207700834015746,-0.0207700834015746
171.613,0.018508642134268727,-0.018508642134268727
171.614,0.02560990264767138,-0.02560990264767138
171.615,0.033533113275784565,-0.033533113275784565
171.616,0.036641474600876744,-0.036641474600876744
171.61700000000002,0.03331177570240984,-0.03331177570240984
171.618,0.02515092053339929,-0.02515092053339929
171.619,0.01501925957549044,-0.01501925957549044
171.62,0.004983865833087409,-0.004983865833087409
171.621,0.004763563051121578,0.004763563051121578
171.622,0.015526277725488757,0.015526277725488757
171.62300000000002,0.028502794478745264,0.028502794478745264
171.624,0.042834367033636855,0.042834367033636855
171.625,0.054401234250665675,0.054401234250665675
171.626,0.05620759488323035,0.05620759488323035
171.627,0.04053268320146519,0.04053268320146519
171.628,0.002225703414081792,0.002225703414081792
171.62900000000002,0.05808577178957386,-0.05808577178957386
171.63,0.1322572575918689,-0.1322572575918689
171.631,0.2053462220201271,-0.2053462220201271
171.632,0.25894941148358386,-0.25894941148358386
171.633,0.276352425338683,-0.276352425338683
171.634,0.24793385954635339,-0.24793385954635339
171.63500000000002,0.17502164175785428,-0.17502164175785428
171.636,0.07077704377256722,-0.07077704377256722
171.637,0.04242338410325752,0.04242338410325752
171.638,0.13851894410698895,0.13851894410698895
171.639,0.19465509668685077,0.19465509668685077
171.64,0.19739810770934674,0.19739810770934674
171.64100000000002,0.14640890598554734,0.14640890598554734
171.642,0.054477716826045075,0.054477716826045075
171.643,0.05606851817999137,-0.05606851817999137
171.644,0.15948298658330173,-0.15948298658330173
171.645,0.23341379947031915,-0.23341379947031915
171.64600000000002,0.2644515236885171,-0.2644515236885171
171.64700000000002,0.25090874230993176,-0.25090874230993176
171.648,0.20222306530953993,-0.20222306530953993
171.649,0.1353930142021923,-0.1353930142021923
171.65,0.06967903186971525,-0.06967903186971525
171.651,0.02119483415473311,-0.02119483415473311
171.65200000000002,0.0011024286251495319,0.0011024286251495319
171.65300000000002,0.002944721441922149,-0.002944721441922149
171.654,0.025627861474562974,-0.025627861474562974
171.655,0.054365657984874693,-0.054365657984874693
171.656,0.07574487834717869,-0.07574487834717869
171.657,0.07944262924190959,-0.07944262924190959
171.65800000000002,0.061033007477583556,-0.061033007477583556
171.65900000000002,0.02307441338938665,-0.02307441338938665
171.66,0.025651690574722386,0.025651690574722386
171.661,0.07245174964603374,0.07245174964603374
171.662,0.10398041084532306,0.10398041084532306
171.663,0.1097000551320948,0.1097000551320948
171.66400000000002,0.08477949216879721,0.08477949216879721
171.66500000000002,0.03177774643516962,0.03177774643516962
171.666,0.03933552418331365,-0.03933552418331365
171.667,0.11297428628186634,-0.11297428628186634
171.668,0.171323589395301,-0.171323589395301
171.669,0.19869595014082764,-0.19869595014082764
171.67000000000002,0.1858861730279998,-0.1858861730279998
171.67100000000002,0.13337992395915943,-0.13337992395915943
171.672,0.05237612569631711,-0.05237612569631711
171.673,0.036985317899739245,0.036985317899739245
171.674,0.11009452976767053,0.11009452976767053
171.675,0.1441340963028792,0.1441340963028792
171.67600000000002,0.12455218105035981,0.12455218105035981
171.67700000000002,0.04987957466721271,0.04987957466721271
171.678,0.06671253875525829,-0.06671253875525829
171.679,0.19990598552317052,-0.19990598552317052
171.68,0.3184055834892523,-0.3184055834892523
171.681,0.3932328768572694,-0.3932328768572694
171.68200000000002,0.405792856743013,-0.405792856743013
171.68300000000002,0.353252411175646,-0.353252411175646
171.684,0.24944975176802708,-0.24944975176802708
171.685,0.12086723242012987,-0.12086723242012987
171.686,0.0012442540186654583,0.0012442540186654583
171.687,0.09020846077399303,0.09020846077399303
171.68800000000002,0.1317779769602323,0.1317779769602323
171.68900000000002,0.12792317861363411,0.12792317861363411
171.69,0.09524175332501494,0.09524175332501494
171.691,0.05843574590680811,0.05843574590680811
171.692,0.0409868350047049,0.0409868350047049
171.693,0.05618654894013453,0.05618654894013453
171.69400000000002,0.1016641678292507,0.1016641678292507
171.69500000000002,0.159460416591229,0.159460416591229
171.696,0.20185103163162044,0.20185103163162044
171.697,0.20113569940418863,0.20113569940418863
171.698,0.14015435359001183,0.14015435359001183
171.699,0.019895699819473922,0.019895699819473922
171.70000000000002,0.13860178975576543,-0.13860178975576543
171.70100000000002,0.29903071548670856,-0.29903071548670856
171.702,0.42002711625004285,-0.42002711625004285
171.703,0.4676863546177852,-0.4676863546177852
171.704,0.4263721117427549,-0.4263721117427549
171.705,0.30424607725170805,-0.30424607725170805
171.70600000000002,0.13158698938615465,-0.13158698938615465
171.70700000000002,0.04771671904411723,0.04771671904411723
171.708,0.18889241719395233,0.18889241719395233
171.709,0.25923173367738506,0.25923173367738506
171.71,0.24718711971489626,0.24718711971489626
171.711,0.16480145326718443,0.16480145326718443
171.71200000000002,0.04283550110924339,0.04283550110924339
171.71300000000002,0.07967160143880114,-0.07967160143880114
171.714,0.16790458927293106,-0.16790458927293106
171.715,0.2017490926573946,-0.2017490926573946
171.716,0.1809361628278361,-0.1809361628278361
171.717,0.12340771196275169,-0.12340771196275169
171.71800000000002,0.05775125518370894,-0.05775125518370894
171.71900000000002,0.012499256295486316,-0.012499256295486316
171.72,0.006037818606743461,-0.006037818606743461
171.721,0.04052513319422768,-0.04052513319422768
171.722,0.10173397976573129,-0.10173397976573129
171.723,0.16464366889339466,-0.16464366889339466
171.72400000000002,0.20264709874933318,-0.20264709874933318
171.725,0.19707593516903477,-0.19707593516903477
171.726,0.1437556338940713,-0.1437556338940713
171.727,0.054440721848043716,-0.054440721848043716
171.728,0.04718204598746456,0.04718204598746456
171.729,0.13335969103906198,0.13335969103906198
171.73000000000002,0.1811837501571496,0.1811837501571496
171.731,0.17948949743625908,0.17948949743625908
171.732,0.1315260988091631,0.1315260988091631
171.733,0.05275286130175205,0.05275286130175205
171.734,0.03515953459457821,-0.03515953459457821
171.735,0.11178421010664508,-0.11178421010664508
171.73600000000002,0.16414286240121112,-0.16414286240121112
171.737,0.18957041290814802,-0.18957041290814802
171.738,0.1944894629417694,-0.1944894629417694
171.739,0.18989318406892286,-0.18989318406892286
171.74,0.18552132414633338,-0.18552132414633338
171.741,0.185115825795234,-0.185115825795234
171.74200000000002,0.18463701737782168,-0.18463701737782168
171.743,0.17412043345049555,-0.17412043345049555
171.744,0.1424195538762426,-0.1424195538762426
171.745,0.0829482500367128,-0.0829482500367128
171.746,0.0018759680440285642,0.0018759680440285642
171.747,0.09933546527933701,0.09933546527933701
171.74800000000002,0.18896757827945665,0.18896757827945665
171.749,0.2482640660171611,0.2482640660171611
171.75,0.25964074174663554,0.25964074174663554
171.751,0.21630096036849755,0.21630096036849755
171.752,0.12495520841435548,0.12495520841435548
171.753,0.004412237515871942,0.004412237515871942
171.75400000000002,0.11955208128186723,-0.11955208128186723
171.755,0.22140248335629398,-0.22140248335629398
171.756,0.282819740711021,-0.282819740711021
171.757,0.2972618536075393,-0.2972618536075393
171.758,0.27078007624849165,-0.27078007624849165
171.759,0.2190206856633703,-0.2190206856633703
171.76000000000002,0.16157392224271971,-0.16157392224271971
171.761,0.11561859816138631,-0.11561859816138631
171.762,0.0909137759573293,-0.0909137759573293
171.763,0.08761300614354461,-0.08761300614354461
171.764,0.09735783860795888,-0.09735783860795888
171.765,0.10701681286514608,-0.10701681286514608
171.76600000000002,0.10364295518061839,-0.10364295518061839
171.767,0.07896623538140113,-0.07896623538140113
171.768,0.03205369771362454,-0.03205369771362454
171.769,0.030503728831404064,0.030503728831404064
171.77,0.09666974678937068,0.09666974678937068
171.77100000000002,0.15242571042940734,0.15242571042940734
171.77200000000002,0.18544367319969424,0.18544367319969424
171.773,0.18792503434203223,0.18792503434203223
171.774,0.1580019528512584,0.1580019528512584
171.775,0.09964331097850931,0.09964331097850931
171.776,0.021440699108194572,0.021440699108194572
171.77700000000002,0.06516287124359876,-0.06516287124359876
171.77800000000002,0.14771098066653532,-0.14771098066653532
171.779,0.21438012115427751,-0.21438012115427751
171.78,0.2554127971222515,-0.2554127971222515
171.781,0.26442306026505735,-0.26442306026505735
171.782,0.23958649764715378,-0.23958649764715378
171.78300000000002,0.18452673919480955,-0.18452673919480955
171.78400000000002,0.10851701051575013,-0.10851701051575013
171.785,0.02557449907415732,-0.02557449907415732
171.786,0.04777629364074576,0.04777629364074576
171.787,0.09588118572937931,0.09588118572937931
171.788,0.10779269722841223,0.10779269722841223
171.78900000000002,0.08051520175285631,0.08051520175285631
171.79000000000002,0.020552726334249982,0.020552726334249982
171.791,0.05700278247085078,-0.05700278247085078
171.792,0.13192104752946388,-0.13192104752946388
171.793,0.18407823825277025,-0.18407823825277025
171.794,0.19907783431466197,-0.19907783431466197
171.79500000000002,0.17255678888084536,-0.17255678888084536
171.79600000000002,0.1117576456292465,-0.1117576456292465
171.797,0.033716698826307234,-0.033716698826307234
171.798,0.03954025481097867,0.03954025481097867
171.799,0.08742677196117077,0.08742677196117077
171.8,0.0969048799433625,0.0969048799433625
171.80100000000002,0.06636649425037278,0.06636649425037278
171.80200000000002,0.0060403267686832685,0.0060403267686832685
171.803,0.06523761334767297,-0.06523761334767297
171.804,0.12589368660109757,-0.12589368660109757
171.805,0.15828159975763756,-0.15828159975763756
171.806,0.1540429098396343,-0.1540429098396343
171.80700000000002,0.11648933192108002,-0.11648933192108002
171.80800000000002,0.05929955797772313,-0.05929955797772313
171.809,0.002009078512850704,-0.002009078512850704
171.81,0.036215297828682935,0.036215297828682935
171.811,0.042513572269259337,0.042513572269259337
171.812,0.014128874797459945,0.014128874797459945
171.81300000000002,0.04105074258322605,-0.04105074258322605
171.81400000000002,0.10724344186538004,-0.10724344186538004
171.815,0.16581231484027992,-0.16581231484027992
171.816,0.20091296975384132,-0.20091296975384132
171.817,0.2039713143164238,-0.2039713143164238
171.818,0.17568965895983546,-0.17568965895983546
171.81900000000002,0.12514440602183874,-0.12514440602183874
171.82000000000002,0.06648489195857843,-0.06648489195857843
171.821,0.01445465430723858,-0.01445465430723858
171.822,0.019783358628678194,0.019783358628678194
171.823,0.03127773724496752,0.03127773724496752
171.824,0.021757045025951216,0.021757045025951216
171.82500000000002,0.0019231315634860024,-0.0019231315634860024
171.82600000000002,0.03058312854704115,-0.03058312854704115
171.827,0.055700388961099856,-0.055700388961099856
171.828,0.07159480732469992,-0.07159480732469992
171.829,0.0762627577020496,-0.0762627577020496
171.83,0.0708609342195452,-0.0708609342195452
171.83100000000002,0.05832128599143471,-0.05832128599143471
171.83200000000002,0.04181595248264003,-0.04181595248264003
171.833,0.023724731401063348,-0.023724731401063348
171.834,0.005444164212698888,-0.005444164212698888
171.835,0.012038542053078194,0.012038542053078194
171.836,0.027230132373671667,0.027230132373671667
171.83700000000002,0.03744265821990167,0.03744265821990167
171.83800000000002,0.038796428976881625,0.038796428976881625
171.839,0.02707928812826399,0.02707928812826399
171.84,0.000746296074353392,-0.000746296074353392
171.841,0.04489757493702684,-0.04489757493702684
171.842,0.10161220430191642,-0.10161220430191642
171.84300000000002,0.16299009418382926,-0.16299009418382926
171.84400000000002,0.2180566197685152,-0.2180566197685152
171.845,0.2548910583740718,-0.2548910583740718
171.846,0.2633303760046598,-0.2633303760046598
171.847,0.23756942461006314,-0.23756942461006314
171.848,0.17798301630474322,-0.17798301630474322
171.84900000000002,0.09167968260501724,-0.09167968260501724
171.85,0.008401576589619486,0.008401576589619486
171.851,0.10570677559445785,0.10570677559445785
171.852,0.1831636072856988,0.1831636072856988
171.853,0.22654307030595655,0.22654307030595655
171.854,0.22740901582134843,0.22740901582134843
171.85500000000002,0.1850409312332959,0.1850409312332959
171.856,0.10688592614387948,0.10688592614387948
171.857,0.007353386686594687,0.007353386686594687
171.858,0.09491829493912296,-0.09491829493912296
171.859,0.18086083339422976,-0.18086083339422976
171.86,0.23508989267995595,-0.23508989267995595
171.86100000000002,0.24941258747337647,-0.24941258747337647
171.862,0.2248300089605132,-0.2248300089605132
171.863,0.17139409469680444,-0.17139409469680444
171.864,0.1057555780664996,-0.1057555780664996
171.865,0.046845590862969466,-0.046845590862969466
171.866,0.010711095963462203,-0.010711095963462203
171.86700000000002,0.0058896663468511745,-0.0058896663468511745
171.868,0.03070977211178816,-0.03070977211178816
171.869,0.07347871200878042,-0.07347871200878042
171.87,0.11574327407594287,-0.11574327407594287
171.871,0.13787955342246394,-0.13787955342246394
171.872,0.12546991362861548,-0.12546991362861548
171.87300000000002,0.07453298079180803,-0.07453298079180803
171.874,0.006139122579880141,0.006139122579880141
171.875,0.09651410607037891,0.09651410607037891
171.876,0.1705488918946214,0.1705488918946214
171.877,0.2037474567188502,0.2037474567188502
171.878,0.18083441436313552,0.18083441436313552
171.87900000000002,0.10113973209289417,0.10113973209289417
171.88,0.02013775387686967,-0.02013775387686967
171.881,0.15542009939209678,-0.15542009939209678
171.882,0.2721518174495361,-0.2721518174495361
171.883,0.34199241963067306,-0.34199241963067306
171.884,0.3490230182504448,-0.3490230182504448
171.88500000000002,0.2944010214835209,-0.2944010214835209
171.886,0.19594196262338293,-0.19594196262338293
171.887,0.08267537953674942,-0.08267537953674942
171.888,0.01398375996386747,0.01398375996386747
171.889,0.0697064941724459,0.0697064941724459
171.89,0.07438895932502332,0.07438895932502332
171.89100000000002,0.03471047570059205,0.03471047570059205
171.892,0.028674333435885213,-0.028674333435885213
171.893,0.08836505469177258,-0.08836505469177258
171.894,0.11949368115458281,-0.11949368115458281
171.895,0.1080229213625219,-0.1080229213625219
171.89600000000002,0.05537213076578018,-0.05537213076578018
171.89700000000002,0.022104221939217572,0.022104221939217572
171.898,0.09856600262153714,0.09856600262153714
171.899,0.1472359586556493,0.1472359586556493
171.9,0.1492264894736426,0.1492264894736426
171.901,0.09977110198013794,0.09977110198013794
171.90200000000002,0.009879120458665458,0.009879120458665458
171.90300000000002,0.09704130890978968,-0.09704130890978968
171.904,0.19240384076717254,-0.19240384076717254
171.905,0.2511078502691203,-0.2511078502691203
171.906,0.2588552149260297,-0.2588552149260297
171.907,0.21586752338553183,-0.21586752338553183
171.90800000000002,0.13600840339789866,-0.13600840339789866
171.90900000000002,0.04184692104003396,-0.04184692104003396
171.91,0.042519498999152194,0.042519498999152194
171.911,0.09845023075350445,0.09845023075350445
171.912,0.11735293022799831,0.11735293022799831
171.913,0.10163487165035012,0.10163487165035012
171.91400000000002,0.06208360192527951,0.06208360192527951
171.91500000000002,0.01295041089782445,0.01295041089782445
171.916,0.033309919322452086,-0.033309919322452086
171.917,0.06974328236031746,-0.06974328236031746
171.918,0.09587276017787405,-0.09587276017787405
171.919,0.11588232393335296,-0.11588232393335296
171.92000000000002,0.13500800397836354,-0.13500800397836354
171.92100000000002,0.15577386136846472,-0.15577386136846472
171.922,0.17570125966887695,-0.17570125966887695
171.923,0.18749043130597176,-0.18749043130597176
171.924,0.18167436275989346,-0.18167436275989346
171.925,0.15075615267207532,-0.15075615267207532
171.92600000000002,0.09322906493973826,-0.09322906493973826
171.92700000000002,0.01586511020787784,-0.01586511020787784
171.928,0.0667569460789168,0.0667569460789168
171.929,0.13554602969496488,0.13554602969496488
171.93,0.17207761925860932,0.17207761925860932
171.931,0.1640406020012808,0.1640406020012808
171.93200000000002,0.10921169453415436,0.10921169453415436
171.93300000000002,0.016680072713251892,0.016680072713251892
171.934,0.0950771476342962,-0.0950771476342962
171.935,0.20268381614003628,-0.20268381614003628
171.936,0.28357466663185404,-0.28357466663185404
171.937,0.3212875880905608,-0.3212875880905608
171.93800000000002,0.3089340844831642,-0.3089340844831642
171.93900000000002,0.2500907130392892,-0.2500907130392892
171.94,0.1571662474105311,-0.1571662474105311
171.941,0.047995346468637345,-0.047995346468637345
171.942,0.05822291708012428,0.05822291708012428
171.943,0.14455896306656757,0.14455896306656757
171.94400000000002,0.19883886234738446,0.19883886234738446
171.94500000000002,0.21476848730556042,0.21476848730556042
171.946,0.19192092247603432,0.19192092247603432
171.947,0.13503355262705696,0.13503355262705696
171.948,0.0530242703852557,0.0530242703852557
171.949,0.042081435841810566,-0.042081435841810566
171.95000000000002,0.13636845631937589,-0.13636845631937589
171.95100000000002,0.21557732649687034,-0.21557732649687034
171.952,0.2670816622285712,-0.2670816622285712
171.953,0.2821466827679229,-0.2821466827679229
171.954,0.25800577795146407,-0.25800577795146407
171.955,0.199090852122755,-0.199090852122755
171.95600000000002,0.11679758832953124,-0.11679758832953124
171.95700000000002,0.027498665628526764,-0.027498665628526764
171.958,0.05094735930723204,0.05094735930723204
171.959,0.10339014275366853,0.10339014275366853
171.96,0.12112748024970577,0.12112748024970577
171.961,0.10404032571751509,0.10404032571751509
171.96200000000002,0.06038188441908532,0.06038188441908532
171.96300000000002,0.004184267041566381,0.004184267041566381
171.964,0.04898263757031307,-0.04898263757031307
171.965,0.0865972547138274,-0.0865972547138274
171.966,0.10266247429368514,-0.10266247429368514
171.967,0.09895548828841494,-0.09895548828841494
171.96800000000002,0.08366611430204318,-0.08366611430204318
171.96900000000002,0.06791996263421374,-0.06791996263421374
171.97,0.0614104897365233,-0.0614104897365233
171.971,0.06867900427360574,-0.06867900427360574
171.972,0.08736474056045518,-0.08736474056045518
171.973,0.1090642871480455,-0.1090642871480455
171.97400000000002,0.12252271274488691,-0.12252271274488691
171.975,0.1180456862994479,-0.1180456862994479
171.976,0.0915657522095048,-0.0915657522095048
171.977,0.04688109993948386,-0.04688109993948386
171.978,0.004811410468989363,0.004811410468989363
171.979,0.0480490951123238,0.0480490951123238
171.98000000000002,0.06794309035140667,0.06794309035140667
171.981,0.05516017709377108,0.05516017709377108
171.982,0.009397417753022719,0.009397417753022719
171.983,0.059834715189231114,-0.059834715189231114
171.984,0.13544736572197413,-0.13544736572197413
171.985,0.1973899416769216,-0.1973899416769216
171.98600000000002,0.22826056078436574,-0.22826056078436574
171.987,0.21822319352890474,-0.21822319352890474
171.988,0.16778186999410694,-0.16778186999410694
171.989,0.08764318734859855,-0.08764318734859855
171.99,0.004210478487592706,0.004210478487592706
171.991,0.0873024704457479,0.0873024704457479
171.99200000000002,0.1438777382860541,0.1438777382860541
171.993,0.1631010348684232,0.1631010348684232
171.994,0.14318228179530368,0.14318228179530368
171.995,0.09104212884052898,0.09104212884052898
171.996,0.019843265017376988,0.019843265017376988
171.997,0.054746179104818604,-0.054746179104818604
171.99800000000002,0.11845893056226564,-0.11845893056226564
171.999,0.16150758753016448,-0.16150758753016448
172.0,0.1801930563676858,-0.1801930563676858
172.001,0.1768623452315825,-0.1768623452315825
172.002,0.15846022294617212,-0.15846022294617212
172.003,0.1342008302594766,-0.1342008302594766
172.00400000000002,0.11298753993730049,-0.11298753993730049
172.005,0.10115804283899998,-0.10115804283899998
172.006,0.10098677952366497,-0.10098677952366497
172.007,0.11019806128196219,-0.11019806128196219
172.008,0.12256537260479161,-0.12256537260479161
172.009,0.12950116559554414,-0.12950116559554414
172.01000000000002,0.1223687062350518,-0.1223687062350518
172.011,0.09507505115373516,-0.09507505115373516
172.012,0.046361947674937065,-0.046361947674937065
172.013,0.01884287789173622,0.01884287789173622
172.014,0.08955409760329358,0.08955409760329358
172.015,0.15059295248950844,0.15059295248950844
172.01600000000002,0.18600015251982405,0.18600015251982405
172.017,0.1833092329900463,0.1833092329900463
172.018,0.13758918027148104,0.13758918027148104
172.019,0.05402335597253316,0.05402335597253316
172.02,0.05198239868605481,-0.05198239868605481
172.02100000000002,0.15757920767854905,-0.15757920767854905
172.02200000000002,0.23773686697053864,-0.23773686697053864
172.023,0.2717653875106546,-0.2717653875106546
172.024,0.24933260254757306,-0.24933260254757306
172.025,0.17416233922371338,-0.17416233922371338
172.026,0.06411005929888647,-0.06411005929888647
172.02700000000002,0.05271695745258742,0.05271695745258742
172.02800000000002,0.1449688596985379,0.1449688596985379
172.029,0.1863727763421299,0.1863727763421299
172.03,0.16304365938036347,0.16304365938036347
172.031,0.07764909855600344,0.07764909855600344
172.032,0.0508677155936923,-0.0508677155936923
172.03300000000002,0.19203698298551097,-0.19203698298551097
172.03400000000002,0.3118042695864158,-0.3118042695864158
172.035,0.38144017891383775,-0.38144017891383775
172.036,0.3849079179875935,-0.3849079179875935
172.037,0.32264855461328346,-0.32264855461328346
172.038,0.2108205799701276,-0.2108205799701276
172.03900000000002,0.07637516932376276,-0.07637516932376276
172.04000000000002,0.050459387278978696,0.050459387278978696
172.041,0.14403561314465607,0.14403561314465607
172.042,0.1892711510438445,0.1892711510438445
172.043,0.18424193582969273,0.18424193582969273
172.044,0.13897839279599866,0.13897839279599866
172.04500000000002,0.07121041162564334,0.07121041162564334
172.04600000000002,0.0006328272271813873,0.0006328272271813873
172.047,0.0564734850641323,-0.0564734850641323
172.048,0.09076546146348419,-0.09076546146348419
172.049,0.10077763879627877,-0.10077763879627877
172.05,0.09145787792139026,-0.09145787792139026
172.05100000000002,0.07120924823666341,-0.07120924823666341
172.05200000000002,0.048672826122007296,-0.048672826122007296
172.053,0.030341264539895274,-0.030341264539895274
172.054,0.01958797202689211,-0.01958797202689211
172.055,0.017060476053471718,-0.017060476053471718
172.056,0.02187368135964951,-0.02187368135964951
172.05700000000002,0.032832274206181844,-0.032832274206181844
172.05800000000002,0.04905844774965051,-0.04905844774965051
172.059,0.06980373465354872,-0.06980373465354872
172.06,0.09368749367366203,-0.09368749367366203
172.061,0.11792160765915116,-0.11792160765915116
172.062,0.13811518968549885,-0.13811518968549885
172.06300000000002,0.1489938620762714,-0.1489938620762714
172.06400000000002,0.14593144629343724,-0.14593144629343724
172.065,0.1267701909167912,-0.1267701909167912
172.066,0.0931872764968974,-0.0931872764968974
172.067,0.05095578761875841,-0.05095578761875841
172.068,0.008825552235275147,-0.008825552235275147
172.06900000000002,0.023729468419901645,0.023729468419901645
172.07000000000002,0.039192309615267984,0.039192309615267984
172.071,0.034200940827294524,0.034200940827294524
172.072,0.010488809449092917,0.010488809449092917
172.073,0.025766964403154957,-0.025766964403154957
172.074,0.06594780332948746,-0.06594780332948746
172.07500000000002,0.10161260689702278,-0.10161260689702278
172.07600000000002,0.12678694728336415,-0.12678694728336415
172.077,0.13912921920893084,-0.13912921920893084
172.078,0.13964247331785773,-0.13964247331785773
172.079,0.13119014352727176,-0.13119014352727176
172.08,0.11655465624556571,-0.11655465624556571
172.08100000000002,0.09695251092299595,-0.09695251092299595
172.08200000000002,0.07170960273036953,-0.07170960273036953
172.083,0.03928259648609489,-0.03928259648609489
172.084,0.0008085549336145359,0.0008085549336145359
172.085,0.046038864377400124,0.046038864377400124
172.086,0.08993657863254967,0.08993657863254967
