Czas,AbsSum,Sum
233.126,0.015505151122576999,-0.015505151122576999
233.127,0.010644501382501281,-0.010644501382501281
233.128,0.009802166166634096,-0.009802166166634096
233.129,0.013852963070518087,-0.013852963070518087
233.13,0.022703811679522956,-0.022703811679522956
233.131,0.0353220756402971,-0.0353220756402971
233.132,0.04995538080091089,-0.04995538080091089
233.133,0.06448733692241282,-0.06448733692241282
233.134,0.07685841815123062,-0.07685841815123062
233.135,0.08547541677451076,-0.08547541677451076
233.136,0.08953325222172648,-0.08953325222172648
233.137,0.0891805334241581,-0.0891805334241581
233.138,0.0854795960050041,-0.0854795960050041
233.139,0.08014685547453404,-0.08014685547453404
233.14,0.07510916122181799,-0.07510916122181799
233.141,0.07196710541408569,-0.07196710541408569
233.142,0.07150021064848144,-0.07150021064848144
233.143,0.07336255648517864,-0.07336255648517864
233.144,0.0760872007401664,-0.0760872007401664
233.145,0.07744313412755288,-0.07744313412755288
233.146,0.07508537747447808,-0.07508537747447808
233.147,0.06733697772979241,-0.06733697772979241
233.148,0.053876084759816534,-0.053876084759816534
233.149,0.03610002453802996,-0.03610002453802996
233.15,0.017011006791558647,-0.017011006791558647
233.151,0.0006001015236003493,-0.0006001015236003493
233.152,0.009139511697804803,0.009139511697804803
233.153,0.00931083325294857,0.00931083325294857
233.154,0.0009938716221810084,-0.0009938716221810084
233.155,0.020284252173975892,-0.020284252173975892
233.156,0.04489867457225849,-0.04489867457225849
233.157,0.06983563003631532,-0.06983563003631532
233.158,0.08997700938273134,-0.08997700938273134
233.159,0.10136719431036934,-0.10136719431036934
233.16,0.10218799779363041,-0.10218799779363041
233.161,0.09315493868085378,-0.09315493868085378
233.162,0.07722998654367752,-0.07722998654367752
233.163,0.05874708608379364,-0.05874708608379364
233.164,0.042216353868568146,-0.042216353868568146
233.165,0.031158058260252863,-0.031158058260252863
233.166,0.02729329474964004,-0.02729329474964004
233.167,0.03029535032640651,-0.03029535032640651
233.168,0.038126471280734764,-0.038126471280734764
233.169,0.047808406137141546,-0.047808406137141546
233.17,0.056357733960104794,-0.056357733960104794
233.171,0.061592781571047195,-0.061592781571047195
233.172,0.06258953997659,-0.06258953997659
233.173,0.05969939306106253,-0.05969939306106253
233.174,0.05419170093135639,-0.05419170093135639
233.175,0.047697598701195276,-0.047697598701195276
233.176,0.04167230907474062,-0.04167230907474062
233.177,0.03705412966213295,-0.03705412966213295
233.178,0.03420024299178315,-0.03420024299178315
233.179,0.03306342035048726,-0.03306342035048726
233.18,0.03348404669769012,-0.03348404669769012
233.181,0.03544034609369495,-0.03544034609369495
233.182,0.03913403246989566,-0.03913403246989566
233.183,0.044871099760052324,-0.044871099760052324
233.184,0.052792753952728644,-0.052792753952728644
233.185,0.06258090339466393,-0.06258090339466393
233.186,0.0732791505546807,-0.0732791505546807
233.187,0.08332853036418875,-0.08332853036418875
233.188,0.09083501593312482,-0.09083501593312482
233.189,0.09399622483331349,-0.09399622483331349
233.19,0.09155306680740116,-0.09155306680740116
233.191,0.08312177045936775,-0.08312177045936775
233.192,0.06930558717558277,-0.06930558717558277
233.193,0.05156491489813131,-0.05156491489813131
233.194,0.03190748482818595,-0.03190748482818595
233.195,0.012514010893960092,-0.012514010893960092
233.196,0.004580638772434309,0.004580638772434309
233.197,0.01767449559938128,0.01767449559938128
233.198,0.025448987760993802,0.025448987760993802
233.199,0.026944904495310062,0.026944904495310062
233.2,0.021557599134681915,0.021557599134681915
233.201,0.009126357019829223,0.009126357019829223
233.202,0.009870140626504709,-0.009870140626504709
233.203,0.0340807775766927,-0.0340807775766927
233.204,0.06114106711340439,-0.06114106711340439
233.205,0.08776394111760755,-0.08776394111760755
233.206,0.11014732769500035,-0.11014732769500035
233.207,0.12467704891988052,-0.12467704891988052
233.208,0.12878071170045757,-0.12878071170045757
233.209,0.12169581648099814,-0.12169581648099814
233.21,0.10489382868107466,-0.10489382868107466
233.211,0.0819696616365323,-0.0819696616365323
233.212,0.05794992124249709,-0.05794992124249709
233.213,0.03815136107225692,-0.03815136107225692
233.214,0.02687529360676666,-0.02687529360676666
233.215,0.026299816851789837,-0.026299816851789837
233.216,0.035898283325716984,-0.035898283325716984
233.217,0.052573319794138595,-0.052573319794138595
233.218,0.07149036972518752,-0.07149036972518752
233.219,0.08738629457981872,-0.08738629457981872
233.22,0.09598333657962677,-0.09598333657962677
233.221,0.09510413992377131,-0.09510413992377131
233.222,0.08517202460216533,-0.08517202460216533
233.223,0.06896532210651551,-0.06896532210651551
233.224,0.05071753294799686,-0.05071753294799686
233.225,0.034846675318903175,-0.034846675318903175
233.226,0.024698603128758934,-0.024698603128758934
233.227,0.021671080741433535,-0.021671080741433535
233.228,0.02495719901745319,-0.02495719901745319
233.229,0.031951804157131725,-0.031951804157131725
233.23,0.03916565142228601,-0.03916565142228601
233.231,0.04335001029001251,-0.04335001029001251
233.232,0.042489486538985544,-0.042489486538985544
233.233,0.03638046088516356,-0.03638046088516356
233.234,0.026651557685840044,-0.026651557685840044
233.235,0.016253264176142368,-0.016253264176142368
233.236,0.008592856687682282,-0.008592856687682282
233.237,0.006576329962017069,-0.006576329962017069
233.238,0.011822672795847478,-0.011822672795847478
233.239,0.02424573026065402,-0.02424573026065402
233.24,0.042083919243471435,-0.042083919243471435
233.241,0.06233608697288773,-0.06233608697288773
233.242,0.08146669548178331,-0.08146669548178331
233.243,0.09619554888481496,-0.09619554888481496
233.244,0.10418968848696442,-0.10418968848696442
233.245,0.10451696865006621,-0.10451696865006621
233.246,0.09778418073961892,-0.09778418073961892
233.247,0.08594990575873596,-0.08594990575873596
233.248,0.07186161613833009,-0.07186161613833009
233.249,0.058612512972953446,-0.058612512972953446
233.25,0.04884471723937778,-0.04884471723937778
233.251,0.04414031445454836,-0.04414031445454836
233.252,0.04463652205834023,-0.04463652205834023
233.253,0.04897036697817869,-0.04897036697817869
233.254,0.05459849172013154,-0.05459849172013154
233.255,0.05845336983707938,-0.05845336983707938
233.256,0.05780363512547604,-0.05780363512547604
233.257,0.05110869914874405,-0.05110869914874405
233.258,0.038625067344146946,-0.038625067344146946
233.259,0.022555473572145157,-0.022555473572145157
233.26,0.0066362230487392315,-0.0066362230487392315
233.261,0.004786736427000449,0.004786736427000449
233.262,0.007978121943947647,0.007978121943947647
233.263,0.0009942527672288648,0.0009942527672288648
233.264,0.015541611113205178,-0.015541611113205178
233.265,0.038352668779098376,-0.038352668779098376
233.266,0.0622095065186028,-0.0622095065186028
233.267,0.08128016479845945,-0.08128016479845945
233.268,0.09077320689797619,-0.09077320689797619
233.269,0.08839315028166683,-0.08839315028166683
233.27,0.0751464141779129,-0.0751464141779129
233.271,0.05520472474538407,-0.05520472474538407
233.272,0.034808751210665956,-0.034808751210665956
233.273,0.020495415512045145,-0.020495415512045145
233.274,0.017161196283760227,-0.017161196283760227
233.275,0.0265514747193476,-0.0265514747193476
233.276,0.046658429985047656,-0.046658429985047656
233.277,0.07224261053687142,-0.07224261053687142
233.278,0.09634585805347828,-0.09634585805347828
233.279,0.11234585720855073,-0.11234585720855073
233.28,0.11592013099789,-0.11592013099789
233.281,0.10630404802166193,-0.10630404802166193
233.282,0.08644378587872881,-0.08644378587872881
233.283,0.06199537947651057,-0.06199537947651057
233.284,0.039492824196946774,-0.039492824196946774
233.285,0.024279500683029642,-0.024279500683029642
233.286,0.01887645627799106,-0.01887645627799106
233.287,0.022319030146844776,-0.022319030146844776
233.288,0.030674057074451366,-0.030674057074451366
233.289,0.03855754554638913,-0.03855754554638913
233.29,0.04113743613005971,-0.04113743613005971
233.291,0.03594054859936935,-0.03594054859936935
233.292,0.02384423287738413,-0.02384423287738413
233.293,0.008903078337776149,-0.008903078337776149
233.294,0.0029493632419930194,0.0029493632419930194
233.295,0.005904186413326462,0.005904186413326462
233.296,0.003676085320808431,-0.003676085320808431
233.297,0.025852976000863892,-0.025852976000863892
233.298,0.056830353222496965,-0.056830353222496965
233.299,0.08991053023476792,-0.08991053023476792
233.3,0.11739815777537987,-0.11739815777537987
233.301,0.1328518159588391,-0.1328518159588391
233.302,0.13297040211945688,-0.13297040211945688
233.303,0.11852197858337976,-0.11852197858337976
233.304,0.09403493612479508,-0.09403493612479508
233.305,0.06637017311152649,-0.06637017311152649
233.306,0.042646157483102964,-0.042646157483102964
233.307,0.028181221120539113,-0.028181221120539113
233.308,0.02508978644741844,-0.02508978644741844
233.309,0.031936438566395386,-0.031936438566395386
233.31,0.044496654414280634,-0.044496654414280634
233.311,0.05731678330185119,-0.05731678330185119
233.312,0.0655262954826803,-0.0655262954826803
233.313,0.0663070220713321,-0.0663070220713321
233.314,0.05957466958136848,-0.05957466958136848
233.315,0.04771740527434998,-0.04771740527434998
233.316,0.034560163314211856,-0.034560163314211856
233.317,0.023969669486743173,-0.023969669486743173
233.318,0.018603777369943453,-0.018603777369943453
233.319,0.019217557698018473,-0.019217557698018473
233.32,0.024709432030772804,-0.024709432030772804
233.321,0.03281193759279022,-0.03281193759279022
233.322,0.041105615584516086,-0.041105615584516086
233.323,0.04794005590749639,-0.04794005590749639
233.324,0.052911644232167765,-0.052911644232167765
233.325,0.05674204516628101,-0.05674204516628101
233.326,0.06064751745543029,-0.06064751745543029
233.327,0.06549241107638659,-0.06549241107638659
233.328,0.07110427568017752,-0.07110427568017752
233.329,0.076062397035362,-0.076062397035362
233.33,0.07808228323103683,-0.07808228323103683
233.331,0.07487804171541057,-0.07487804171541057
233.332,0.0651844314646165,-0.0651844314646165
233.333,0.04953764546449568,-0.04953764546449568
233.334,0.030482336003352928,-0.030482336003352928
233.335,0.012069867595640882,-0.012069867595640882
233.336,0.0012310721155754933,0.0012310721155754933
233.337,0.005868683105114902,0.005868683105114902
233.338,0.00033913052083001105,0.00033913052083001105
233.339,0.014280986165657206,-0.014280986165657206
233.34,0.034601478792185336,-0.034601478792185336
233.341,0.05591516526412044,-0.05591516526412044
233.342,0.07360362337972637,-0.07360362337972637
233.343,0.08448875083920027,-0.08448875083920027
233.344,0.08768369654068753,-0.08768369654068753
233.345,0.08466855522550154,-0.08466855522550154
233.346,0.07858335505561209,-0.07858335505561209
233.347,0.07299979801807999,-0.07299979801807999
233.348,0.07060955401855917,-0.07060955401855917
233.349,0.07228887561908992,-0.07228887561908992
233.35,0.07685966094963415,-0.07685966094963415
233.351,0.08161579290847143,-0.08161579290847143
233.352,0.08341006236934723,-0.08341006236934723
233.353,0.0798984395013157,-0.0798984395013157
233.354,0.0704853167525904,-0.0704853167525904
233.355,0.056624205426196283,-0.056624205426196283
233.356,0.04136332445335045,-0.04136332445335045
233.357,0.028300308322291468,-0.028300308322291468
233.358,0.02032619884131659,-0.02032619884131659
233.359,0.018618040567109695,-0.018618040567109695
233.36,0.022252491221022574,-0.022252491221022574
233.361,0.028589953078717034,-0.028589953078717034
233.362,0.034298870515356183,-0.034298870515356183
233.363,0.036653183769008724,-0.036653183769008724
233.364,0.03462822079901995,-0.03462822079901995
233.365,0.029382202607789676,-0.029382202607789676
233.366,0.023922697569933926,-0.023922697569933926
233.367,0.022046693244786253,-0.022046693244786253
233.368,0.02690790740390725,-0.02690790740390725
233.369,0.039711092632198186,-0.039711092632198186
233.37,0.05900644819454559,-0.05900644819454559
233.371,0.0808638029108234,-0.0808638029108234
233.372,0.09991042017928498,-0.09991042017928498
233.373,0.11091910595888621,-0.11091910595888621
233.374,0.11043747460297315,-0.11043747460297315
233.375,0.09792345979331407,-0.09792345979331407
233.376,0.07600711033503682,-0.07600711033503682
233.377,0.04978298071820342,-0.04978298071820342
233.378,0.025355045371969753,-0.025355045371969753
233.379,0.008099474225540804,-0.008099474225540804
233.38,0.0011976782863982738,-0.0011976782863982738
233.381,0.004894292597159344,-0.004894292597159344
233.382,0.01668701761945357,-0.01668701761945357
233.383,0.03234330043700662,-0.03234330043700662
233.384,0.04736964064792859,-0.04736964064792859
233.385,0.05842385860310506,-0.05842385860310506
233.386,0.06420271374400921,-0.06420271374400921
233.387,0.06553857593116741,-0.06553857593116741
233.388,0.06472616518444307,-0.06472616518444307
233.389,0.06437147956950318,-0.06437147956950318
233.39,0.06621483294335628,-0.06621483294335628
233.391,0.07037378232922264,-0.07037378232922264
233.392,0.07528439684268917,-0.07528439684268917
233.393,0.0783528990825435,-0.0783528990825435
233.394,0.07706131461974786,-0.07706131461974786
233.395,0.07009787450119276,-0.07009787450119276
233.396,0.05806858437415874,-0.05806858437415874
233.397,0.043496629305394996,-0.043496629305394996
233.398,0.03007773429532723,-0.03007773429532723
233.399,0.02143818485135307,-0.02143818485135307
233.4,0.019836553458402517,-0.019836553458402517
233.401,0.025287826738833452,-0.025287826738833452
233.402,0.03545236919372052,-0.03545236919372052
233.403,0.04636697791788724,-0.04636697791788724
233.404,0.053793324835923695,-0.053793324835923695
233.405,0.05472767762565689,-0.05472767762565689
233.406,0.04853961373115123,-0.04853961373115123
233.407,0.0373180851074999,-0.0373180851074999
233.408,0.025266940112858127,-0.025266940112858127
233.409,0.01732037937877251,-0.01732037937877251
233.41,0.017428487565178008,-0.017428487565178008
233.411,0.027094903158414008,-0.027094903158414008
233.412,0.044682926451302896,-0.044682926451302896
233.413,0.06576040447859832,-0.06576040447859832
233.414,0.08440770528081754,-0.08440770528081754
233.415,0.09508327288566165,-0.09508327288566165
233.416,0.09444066783023541,-0.09444066783023541
233.417,0.08249061495819343,-0.08249061495819343
233.418,0.06270541190865175,-0.06270541190865175
233.419,0.04100586770569081,-0.04100586770569081
233.42,0.023939596240974637,-0.023939596240974637
233.421,0.016630772187019582,-0.016630772187019582
233.422,0.021163663672279287,-0.021163663672279287
233.423,0.03592636249537162,-0.03592636249537162
233.424,0.05613091461660735,-0.05613091461660735
233.425,0.07534365594109904,-0.07534365594109904
233.426,0.08753135483293883,-0.08753135483293883
233.427,0.08896305174432728,-0.08896305174432728
233.428,0.07935832709487711,-0.07935832709487711
233.429,0.06192210936410347,-0.06192210936410347
233.43,0.042270408100168355,-0.042270408100168355
233.431,0.026609625975967388,-0.026609625975967388
233.432,0.019766846208076783,-0.019766846208076783
233.433,0.023704617352980684,-0.023704617352980684
233.434,0.03698299376416492,-0.03698299376416492
233.435,0.055314161468620116,-0.055314161468620116
233.436,0.0729983452421582,-0.0729983452421582
233.437,0.08475185735414903,-0.08475185735414903
233.438,0.08732816127660226,-0.08732816127660226
233.439,0.08042182328858061,-0.08042182328858061
233.44,0.06659756247638637,-0.06659756247638637
233.441,0.05031359427562854,-0.05031359427562854
233.442,0.036399547977375435,-0.036399547977375435
233.443,0.02850966822741674,-0.02850966822741674
233.444,0.028054015370289176,-0.028054015370289176
233.445,0.03392754508864981,-0.03392754508864981
233.446,0.04307738756937651,-0.04307738756937651
233.447,0.05166997231720061,-0.05166997231720061
233.448,0.05643485912901591,-0.05643485912901591
233.449,0.055728391874541816,-0.055728391874541816
233.45,0.049981095943966714,-0.049981095943966714
233.451,0.041419188948870755,-0.041419188948870755
233.452,0.03320046097488172,-0.03320046097488172
233.453,0.028292275257413402,-0.028292275257413402
233.454,0.028484653686432382,-0.028484653686432382
233.455,0.03385961324781128,-0.03385961324781128
233.456,0.0428621871146313,-0.0428621871146313
233.457,0.052905698317929684,-0.052905698317929684
233.458,0.06126926957206302,-0.06126926957206302
233.459,0.06596649917685471,-0.06596649917685471
233.46,0.06630087752677127,-0.06630087752677127
233.461,0.06295420827130349,-0.06295420827130349
233.462,0.057625958199782,-0.057625958199782
233.463,0.05239061326033623,-0.05239061326033623
233.464,0.0490163715601627,-0.0490163715601627
233.465,0.048471832266591575,-0.048471832266591575
233.466,0.050753162670251095,-0.050753162670251095
233.467,0.05503505624739469,-0.05503505624739469
233.468,0.0600362695521065,-0.0600362695521065
233.469,0.06443509323064256,-0.06443509323064256
233.47,0.06718622609341185,-0.06718622609341185
233.471,0.06766280203818753,-0.06766280203818753
233.472,0.06563872854668196,-0.06563872854668196
233.473,0.06119485473612718,-0.06119485473612718
233.474,0.0546484976237267,-0.0546484976237267
233.475,0.04656528787919312,-0.04656528787919312
233.476,0.03783744099927322,-0.03783744099927322
233.477,0.029742360133927948,-0.029742360133927948
233.478,0.02386834716785524,-0.02386834716785524
233.479,0.02183054904572912,-0.02183054904572912
233.48,0.02479202909548872,-0.02479202909548872
233.481,0.032916675531043715,-0.032916675531043715
233.482,0.0449628620828606,-0.0449628620828606
233.483,0.058235422437307505,-0.058235422437307505
233.484,0.06902982773747302,-0.06902982773747302
233.485,0.07354374210449777,-0.07354374210449777
233.486,0.06904799635763836,-0.06904799635763836
233.487,0.05496918510066706,-0.05496918510066706
233.488,0.033499865662570794,-0.033499865662570794
233.489,0.009448646542260741,-0.009448646542260741
233.49,0.010745413324724895,0.010745413324724895
233.491,0.02064251597929201,0.02064251597929201
233.492,0.015649144524493064,0.015649144524493064
233.493,0.005463461643160805,-0.005463461643160805
233.494,0.03986664166054332,-0.03986664166054332
233.495,0.08109029257413891,-0.08109029257413891
233.496,0.12050819766019616,-0.12050819766019616
233.497,0.1495217033657199,-0.1495217033657199
233.498,0.1618365281031251,-0.1618365281031251
233.499,0.15517116195380953,-0.15517116195380953
233.5,0.13188258250334406,-0.13188258250334406
233.501,0.09830625896925171,-0.09830625896925171
233.502,0.0629887383235479,-0.0629887383235479
233.503,0.034323769305553475,-0.034323769305553475
233.504,0.018281740567859806,-0.018281740567859806
233.505,0.01689008008101489,-0.01689008008101489
233.506,0.02788917401062263,-0.02788917401062263
233.507,0.04562840531996226,-0.04562840531996226
233.508,0.06289414721618747,-0.06289414721618747
233.509,0.07309277052296748,-0.07309277052296748
233.51,0.07212857476392387,-0.07212857476392387
233.511,0.059439591888410304,-0.059439591888410304
233.512,0.03793749847709604,-0.03793749847709604
233.513,0.012945556747948062,-0.012945556747948062
233.514,0.009472474178793266,0.009472474178793266
233.515,0.02424187999953431,0.02424187999953431
233.516,0.0285408326856873,0.0285408326856873
233.517,0.022265384048977044,0.022265384048977044
233.518,0.007645512370509255,0.007645512370509255
233.519,0.011761826005406206,-0.011761826005406206
233.52,0.032298710102543926,-0.032298710102543926
233.521,0.05122023051383373,-0.05122023051383373
233.522,0.06718730012323693,-0.06718730012323693
233.523,0.08014750793079795,-0.08014750793079795
233.524,0.0907447740591143,-0.0907447740591143
233.525,0.09956022793508346,-0.09956022793508346
233.526,0.10652461475509145,-0.10652461475509145
233.527,0.11074969554250169,-0.11074969554250169
233.528,0.11084308062471249,-0.11084308062471249
233.529,0.10556944276598434,-0.10556944276598434
233.53,0.0945771661075876,-0.0945771661075876
233.531,0.07887608624983022,-0.07887608624983022
233.532,0.06084028833822319,-0.06084028833822319
233.533,0.04368639905954497,-0.04368639905954497
233.534,0.030577047739410057,-0.030577047739410057
233.535,0.02364797645765071,-0.02364797645765071
233.536,0.02330094500619906,-0.02330094500619906
233.537,0.02802616999180818,-0.02802616999180818
233.538,0.034843986732491894,-0.034843986732491894
233.539,0.0402457733176288,-0.0402457733176288
233.54,0.04134126712927444,-0.04134126712927444
233.541,0.0368426634798249,-0.0368426634798249
233.542,0.02756158280936638,-0.02756158280936638
233.543,0.01624780314675034,-0.01624780314675034
233.544,0.0068076090454556315,-0.0068076090454556315
233.545,0.003135955171751359,-0.003135955171751359
233.546,0.007917162833676827,-0.007917162833676827
233.547,0.021756563832762144,-0.021756563832762144
233.548,0.04290081471330698,-0.04290081471330698
233.549,0.06762379184083978,-0.06762379184083978
233.55,0.09115686500818754,-0.09115686500818754
233.551,0.10888837365299897,-0.10888837365299897
233.552,0.11749170479627635,-0.11749170479627635
233.553,0.11567894378054855,-0.11567894378054855
233.554,0.10439967236303682,-0.10439967236303682
233.555,0.08646978671551087,-0.08646978671551087
233.556,0.0657715733166192,-0.0657715733166192
233.557,0.04626943377827741,-0.04626943377827741
233.558,0.03111136003001147,-0.03111136003001147
233.559,0.022035463727722582,-0.022035463727722582
233.56,0.019196417423015144,-0.019196417423015144
233.561,0.021403815475936172,-0.021403815475936172
233.562,0.0266588660912509,-0.0266588660912509
233.563,0.03281326031089937,-0.03281326031089937
233.564,0.038164776586519844,-0.038164776586519844
233.565,0.041842807061467924,-0.041842807061467924
233.566,0.043906977838197525,-0.043906977838197525
233.567,0.04516219603157712,-0.04516219603157712
233.568,0.04676414677631624,-0.04676414677631624
233.569,0.0497363942554232,-0.0497363942554232
233.57,0.054536660650940316,-0.054536660650940316
233.571,0.06079476728384137,-0.06079476728384137
233.572,0.06730233318789924,-0.06730233318789924
233.573,0.07227275090807284,-0.07227275090807284
233.574,0.07382061641869764,-0.07382061641869764
233.575,0.07054680030347593,-0.07054680030347593
233.576,0.06207403449647608,-0.06207403449647608
233.577,0.04937179657178381,-0.04937179657178381
233.578,0.0347459669466762,-0.0347459669466762
233.579,0.021445669135774392,-0.021445669135774392
233.58,0.0129420629980882,-0.0129420629980882
233.581,0.012036067041259257,-0.012036067041259257
233.582,0.02002348574456525,-0.02002348574456525
233.583,0.03616029186116654,-0.03616029186116654
233.584,0.0576149475875839,-0.0576149475875839
233.585,0.07997601411472799,-0.07997601411472799
233.586,0.098230339070567,-0.098230339070567
233.587,0.10798295153058624,-0.10798295153058624
233.588,0.10659989287672611,-0.10659989287672611
233.589,0.0939526255520875,-0.0939526255520875
233.59,0.07253582921816915,-0.07253582921816915
233.591,0.046897988673490154,-0.046897988673490154
233.592,0.022519527735178957,-0.022519527735178957
233.593,0.004437647802122191,-0.004437647802122191
233.594,0.004001882237049559,0.004001882237049559
233.595,0.0019165364954127906,0.0019165364954127906
233.596,0.00903011626402661,-0.00903011626402661
233.597,0.025243919865303277,-0.025243919865303277
233.598,0.042316124979960734,-0.042316124979960734
233.599,0.056295528481882906,-0.056295528481882906
233.6,0.0647332705643211,-0.0647332705643211
233.601,0.0671974998439846,-0.0671974998439846
233.602,0.06512953377630004,-0.06512953377630004
233.603,0.061124681555524196,-0.061124681555524196
233.604,0.05790094724075023,-0.05790094724075023
233.605,0.05730942055866983,-0.05730942055866983
233.606,0.059713184867133284,-0.059713184867133284
233.607,0.06392802855402424,-0.06392802855402424
233.608,0.06772432801791795,-0.06772432801791795
233.609,0.06870078105538113,-0.06870078105538113
233.61,0.06521998612639579,-0.06521998612639579
233.611,0.057082042786473774,-0.057082042786473774
233.612,0.045707582107849754,-0.045707582107849754
233.613,0.03377133721928671,-0.03377133721928671
233.614,0.024412597790708257,-0.024412597790708257
233.615,0.020286906578239505,-0.020286906578239505
233.616,0.02276903518333262,-0.02276903518333262
233.617,0.03155810005547932,-0.03155810005547932
233.618,0.04479514399093243,-0.04479514399093243
233.619,0.05963205142899497,-0.05963205142899497
233.62,0.07304752306676121,-0.07304752306676121
233.621,0.08263833889236893,-0.08263833889236893
233.622,0.08714174219510151,-0.08714174219510151
233.623,0.08655326773799443,-0.08655326773799443
233.624,0.08185199613015515,-0.08185199613015515
233.625,0.0744784371304762,-0.0744784371304762
233.626,0.06578284495587172,-0.06578284495587172
233.627,0.05665106665779751,-0.05665106665779751
233.628,0.04742907240783245,-0.04742907240783245
233.629,0.03814096912629761,-0.03814096912629761
233.63,0.02887682701194494,-0.02887682701194494
233.631,0.0201599310108026,-0.0201599310108026
233.632,0.013111849628403949,-0.013111849628403949
233.633,0.009313502710210031,-0.009313502710210031
233.634,0.010380741658628345,-0.010380741658628345
233.635,0.017388929371030093,-0.017388929371030093
233.636,0.030349757357768903,-0.030349757357768903
233.637,0.04793961762202714,-0.04793961762202714
233.638,0.0676030587778601,-0.0676030587778601
233.639,0.08603353699579419,-0.08603353699579419
233.64,0.09990893756413077,-0.09990893756413077
233.641,0.10667398367620384,-0.10667398367620384
233.642,0.1051441851557241,-0.1051441851557241
233.643,0.09576113545176768,-0.09576113545176768
233.644,0.0804367504400495,-0.0804367504400495
233.645,0.06204746445286646,-0.06204746445286646
233.646,0.04373777571743309,-0.04373777571743309
233.647,0.028235521674844666,-0.028235521674844666
233.648,0.017358659489001504,-0.017358659489001504
233.649,0.011817401160964969,-0.011817401160964969
233.65,0.011315486807482289,-0.011315486807482289
233.651,0.014865154070388908,-0.014865154070388908
233.652,0.021180319920584667,-0.021180319920584667
233.653,0.029014036188331982,-0.029014036188331982
233.654,0.03735280223213866,-0.03735280223213866
233.655,0.04545005692230153,-0.04545005692230153
233.656,0.05274619327529717,-0.05274619327529717
233.657,0.058759179249393556,-0.058759179249393556
233.658,0.06302735187707809,-0.06302735187707809
233.659,0.06514886348720439,-0.06514886348720439
233.66,0.06490808971601159,-0.06490808971601159
233.661,0.06243099861772028,-0.06243099861772028
233.662,0.0582885185893145,-0.0582885185893145
233.663,0.053478277894902115,-0.053478277894902115
233.664,0.04925631018573373,-0.04925631018573373
233.665,0.04684588072018114,-0.04684588072018114
233.666,0.04709993797173495,-0.04709993797173495
233.667,0.05021887518347867,-0.05021887518347867
233.668,0.05561715646361798,-0.05561715646361798
233.669,0.061993358119929676,-0.061993358119929676
233.67,0.06760088479491577,-0.06760088479491577
233.671,0.0706590161321442,-0.0706590161321442
233.672,0.06980322913709291,-0.06980322913709291
233.673,0.06446104682108988,-0.06446104682108988
233.674,0.05505723761514747,-0.05505723761514747
233.675,0.04299374485136498,-0.04299374485136498
233.676,0.030403301918836223,-0.030403301918836223
233.677,0.019727694054422762,-0.019727694054422762
233.678,0.013210525381031069,-0.013210525381031069
233.679,0.012412928333007445,-0.012412928333007445
233.68,0.017856588501516946,-0.017856588501516946
233.681,0.028873611283314116,-0.028873611283314116
233.682,0.043701999576973516,-0.043701999576973516
233.683,0.059815767214878135,-0.059815767214878135
233.684,0.0744284087912378,-0.0744284087912378
233.685,0.08506706012702181,-0.08506706012702181
233.686,0.09009178623539249,-0.09009178623539249
233.687,0.08903782620425482,-0.08903782620425482
233.688,0.08269172002725966,-0.08269172002725966
233.689,0.07287154051443723,-0.07287154051443723
233.69,0.061955376005087937,-0.061955376005087937
233.691,0.052272438814987,-0.052272438814987
233.692,0.045516868592371695,-0.045516868592371695
233.693,0.042348399779061685,-0.042348399779061685
233.694,0.04229978448050786,-0.04229978448050786
233.695,0.04402592727200605,-0.04402592727200605
233.696,0.04582620253784386,-0.04582620253784386
233.697,0.046280615719677454,-0.046280615719677454
233.698,0.04479332896445065,-0.04479332896445065
233.699,0.041853677338281714,-0.041853677338281714
233.7,0.038906017082027344,-0.038906017082027344
233.701,0.037844622522829385,-0.037844622522829385
233.702,0.040280384998681584,-0.040280384998681584
233.703,0.04681850987425229,-0.04681850987425229
233.704,0.05660575805329893,-0.05660575805329893
233.705,0.06733871558363147,-0.06733871558363147
233.706,0.07578605750972711,-0.07578605750972711
233.707,0.07870841265442896,-0.07870841265442896
233.708,0.07391376650146797,-0.07391376650146797
233.709,0.06111531763656286,-0.06111531763656286
233.71,0.042292100440431635,-0.042292100440431635
233.711,0.021387449806582137,-0.021387449806582137
233.712,0.0033793981439230736,-0.0033793981439230736
233.713,0.00704055792158953,0.00704055792158953
233.714,0.0068039967187734085,0.0068039967187734085
233.715,0.00458730163141885,-0.00458730163141885
233.716,0.02481011603215788,-0.02481011603215788
233.717,0.0492713910691811,-0.0492713910691811
233.718,0.07232813958628936,-0.07232813958628936
233.719,0.0888327013625464,-0.0888327013625464
233.72,0.09555212659314527,-0.09555212659314527
233.721,0.09203910389075687,-0.09203910389075687
233.722,0.08069146560766638,-0.08069146560766638
233.723,0.06598012475069792,-0.06598012475069792
233.724,0.05307650376000783,-0.05307650376000783
233.725,0.04629192036670626,-0.04629192036670626
233.726,0.047796463234703546,-0.047796463234703546
233.727,0.05699684522037285,-0.05699684522037285
233.728,0.0707498146623815,-0.0707498146623815
233.729,0.08433392382338101,-0.08433392382338101
233.73,0.09287680683890909,-0.09287680683890909
233.731,0.09280635208210053,-0.09280635208210053
233.732,0.08289919864353157,-0.08289919864353157
233.733,0.06463309558075203,-0.06463309558075203
233.734,0.04176551123924077,-0.04176551123924077
233.735,0.01929026162445513,-0.01929026162445513
233.736,0.002096540970926819,-0.002096540970926819
233.737,0.006278593744605265,0.006278593744605265
233.738,0.0044661331291318,0.0044661331291318
233.739,0.006540476768030046,-0.006540476768030046
233.74,0.023810754956632985,-0.023810754956632985
233.741,0.04334733725646667,-0.04334733725646667
233.742,0.06112114510392608,-0.06112114510392608
233.743,0.07398059886396169,-0.07398059886396169
233.744,0.0802188431196188,-0.0802188431196188
233.745,0.07971049022436205,-0.07971049022436205
233.746,0.07366307450328391,-0.07366307450328391
233.747,0.06412560637556441,-0.06412560637556441
233.748,0.05343231630983536,-0.05343231630983536
233.749,0.0437329421133843,-0.0437329421133843
233.75,0.036692301619337786,-0.036692301619337786
233.751,0.03336357627929709,-0.03336357627929709
233.752,0.034182418166013084,-0.034182418166013084
233.753,0.03901068696593135,-0.03901068696593135
233.754,0.047179187757151575,-0.047179187757151575
233.755,0.05752188963664795,-0.05752188963664795
233.756,0.068435322387003,-0.068435322387003
233.757,0.07801434264820772,-0.07801434264820772
233.758,0.08429908214702941,-0.08429908214702941
233.759,0.0856231472470298,-0.0856231472470298
233.76,0.08099872823884569,-0.08099872823884569
233.761,0.0704343279632278,-0.0704343279632278
233.762,0.05507500860451586,-0.05507500860451586
233.763,0.03709047128759824,-0.03709047128759824
233.764,0.01930417005425955,-0.01930417005425955
233.765,0.004635253121069827,-0.004635253121069827
233.766,0.004512546938783446,0.004512546938783446
233.767,0.006757224595969724,0.006757224595969724
233.768,0.0020065668993347607,0.0020065668993347607
233.769,0.008579759541301524,-0.008579759541301524
233.77,0.022915626267891676,-0.022915626267891676
233.771,0.0385037306351973,-0.0385037306351973
233.772,0.05299573094596399,-0.05299573094596399
233.773,0.06465018612899742,-0.06465018612899742
233.774,0.07258285216688498,-0.07258285216688498
233.775,0.07677324162181964,-0.07677324162181964
233.776,0.07786454829661382,-0.07786454829661382
233.777,0.07684761529124662,-0.07684761529124662
233.778,0.0747384647141166,-0.0747384647141166
233.779,0.07234076794069444,-0.07234076794069444
233.78,0.07013992160557525,-0.07013992160557525
233.781,0.0683225469653691,-0.0683225469653691
233.782,0.06687362959810716,-0.06687362959810716
233.783,0.06568657851528581,-0.06568657851528581
233.784,0.06463238285555672,-0.06463238285555672
233.785,0.0635654074958395,-0.0635654074958395
233.786,0.062280778366445744,-0.062280778366445744
233.787,0.060466097236299476,-0.060466097236299476
233.788,0.05769733777629271,-0.05769733777629271
233.789,0.05351258800805603,-0.05351258800805603
233.79,0.04756419545370827,-0.04756419545370827
233.791,0.03981253701490817,-0.03981253701490817
233.792,0.030697329829125652,-0.030697329829125652
233.793,0.021215882216642168,-0.021215882216642168
233.794,0.012855628512794981,-0.012855628512794981
233.795,0.007366244942527245,-0.007366244942527245
233.796,0.006403674531447634,-0.006403674531447634
233.797,0.011120658439450759,-0.011120658439450759
233.798,0.02180332952336317,-0.02180332952336317
233.799,0.03765331236942382,-0.03765331236942382
233.8,0.05678851314813971,-0.05678851314813971
233.801,0.0764889582905739,-0.0764889582905739
233.802,0.0936572773477935,-0.0936572773477935
233.803,0.10540978724009453,-0.10540978724009453
233.804,0.10967626097142968,-0.10967626097142968
233.805,0.10567397883967677,-0.10567397883967677
233.806,0.09413919943697191,-0.09413919943697191
233.807,0.07724521532925499,-0.07724521532925499
233.808,0.058202735308165665,-0.058202735308165665
233.809,0.04061202171440814,-0.04061202171440814
233.81,0.0277002512096004,-0.0277002512096004
233.811,0.02161529263163353,-0.02161529263163353
233.812,0.022946092021214115,-0.022946092021214115
233.813,0.030595958530081013,-0.030595958530081013
233.814,0.04205492037690861,-0.04205492037690861
233.815,0.05401842857278916,-0.05401842857278916
233.816,0.06320700265975054,-0.06320700265975054
233.817,0.06718122340288724,-0.06718122340288724
233.818,0.06493869689546272,-0.06493869689546272
233.819,0.057130890180729144,-0.057130890180729144
233.82,0.04583777241062015,-0.04583777241062015
233.821,0.03396101641451499,-0.03396101641451499
233.822,0.02440697999423902,-0.02440697999423902
233.823,0.01929470958988222,-0.01929470958988222
233.824,0.019419727325661884,-0.019419727325661884
233.825,0.02412940781374817,-0.02412940781374817
233.826,0.03164061393176565,-0.03164061393176565
233.827,0.03969245061405957,-0.03969245061405957
233.828,0.04632008155455225,-0.04632008155455225
233.829,0.05049518359896188,-0.05049518359896188
233.83,0.052420262310237664,-0.052420262310237664
233.831,0.0533767986900775,-0.0533767986900775
233.832,0.05517605144892801,-0.05517605144892801
233.833,0.0593978448032455,-0.0593978448032455
233.834,0.06668062096468519,-0.06668062096468519
233.835,0.07631718110516461,-0.07631718110516461
233.836,0.08631489596885,-0.08631489596885
233.837,0.0939261219764741,-0.0939261219764741
233.838,0.09649397149520322,-0.09649397149520322
233.839,0.09234455644662087,-0.09234455644662087
233.84,0.08142941484466926,-0.08142941484466926
233.841,0.06549297731840087,-0.06549297731840087
233.842,0.04768854890525864,-0.04768854890525864
233.843,0.031744533624097904,-0.031744533624097904
233.844,0.020931536798901473,-0.020931536798901473
233.845,0.01715023324940046,-0.01715023324940046
233.846,0.020425128749628207,-0.020425128749628207
233.847,0.02896088648704276,-0.02896088648704276
233.848,0.03973772667978248,-0.03973772667978248
233.849,0.04945027217981357,-0.04945027217981357
233.85,0.055487404545678465,-0.055487404545678465
233.851,0.05664452192749958,-0.05664452192749958
233.852,0.053355232296150024,-0.053355232296150024
233.853,0.047393586390430564,-0.047393586390430564
233.854,0.04117400641993607,-0.04117400641993607
233.855,0.03690410979559422,-0.03690410979559422
233.856,0.03588289341132633,-0.03588289341132633
233.857,0.0381724323224476,-0.0381724323224476
233.858,0.042730066846409676,-0.042730066846409676
233.859,0.04792129428665248,-0.04792129428665248
233.86,0.05220084055226515,-0.05220084055226515
233.861,0.05469739120216821,-0.05469739120216821
233.862,0.055483509890631555,-0.055483509890631555
233.863,0.05543818028765812,-0.05543818028765812
233.864,0.05576814638388883,-0.05576814638388883
233.865,0.057386922932680995,-0.057386922932680995
233.866,0.06040760098983611,-0.06040760098983611
233.867,0.06396545425471956,-0.06396545425471956
233.868,0.0664625998714472,-0.0664625998714472
233.869,0.06616435354526129,-0.06616435354526129
233.87,0.06193532624573894,-0.06193532624573894
233.871,0.05383614422696292,-0.05383614422696292
233.872,0.043336308488941766,-0.043336308488941766
233.873,0.033026019691330566,-0.033026019691330566
233.874,0.025886668574702565,-0.025886668574702565
233.875,0.02434380643887646,-0.02434380643887646
233.876,0.02941816765798333,-0.02941816765798333
233.877,0.04027422839604622,-0.04027422839604622
233.878,0.05434368009107826,-0.05434368009107826
233.879,0.06801242939352348,-0.06801242939352348
233.88,0.07766813965703478,-0.07766813965703478
233.881,0.08077729919919119,-0.08077729919919119
233.882,0.07664211872432825,-0.07664211872432825
233.883,0.06658705555851718,-0.06658705555851718
233.884,0.05351063412536938,-0.05351063412536938
233.885,0.040948445683737456,-0.040948445683737456
233.886,0.03195650954240481,-0.03195650954240481
233.887,0.028184514565206653,-0.028184514565206653
233.888,0.0294444081041072,-0.0294444081041072
233.889,0.033912210212799665,-0.033912210212799665
233.89,0.03888611263206021,-0.03888611263206021
233.891,0.04183462314824982,-0.04183462314824982
233.892,0.04136918957157276,-0.04136918957157276
233.893,0.037800547695060915,-0.037800547695060915
233.894,0.033079133430685026,-0.033079133430685026
233.895,0.030129967722092532,-0.030129967722092532
233.896,0.031800645529085236,-0.031800645529085236
233.897,0.03977703561791357,-0.03977703561791357
233.898,0.05383879674477998,-0.05383879674477998
233.899,0.07171933291000088,-0.07171933291000088
233.9,0.08963770021698436,-0.08963770021698436
233.901,0.1033485306307036,-0.1033485306307036
233.902,0.10938359733188896,-0.10938359733188896
233.903,0.10609218200390236,-0.10609218200390236
233.904,0.09414872493261117,-0.09414872493261117
233.905,0.07636504573651814,-0.07636504573651814
233.906,0.056865367346285445,-0.056865367346285445
233.907,0.03988358797577796,-0.03988358797577796
233.908,0.028559031467718987,-0.028559031467718987
233.909,0.024102720145172785,-0.024102720145172785
233.91,0.025584064542405915,-0.025584064542405915
233.911,0.030388614339278752,-0.030388614339278752
233.912,0.03518593144290716,-0.03518593144290716
233.913,0.03709004392097082,-0.03709004392097082
233.914,0.034641554102937566,-0.034641554102937566
233.915,0.028304578974419736,-0.028304578974419736
233.916,0.02033006365889789,-0.02033006365889789
233.917,0.014037450700110199,-0.014037450700110199
233.918,0.012745563774313573,-0.012745563774313573
233.919,0.018686221814376958,-0.018686221814376958
233.92,0.0322316599937279,-0.0322316599937279
233.921,0.05166411100528767,-0.05166411100528767
233.922,0.07354834776591312,-0.07354834776591312
233.923,0.09358919179993119,-0.09358919179993119
233.924,0.10772014935575602,-0.10772014935575602
233.925,0.11311454935653686,-0.11311454935653686
233.926,0.10884812931533605,-0.10884812931533605
233.927,0.09605477207346325,-0.09605477207346325
233.928,0.07756663456610602,-0.07756663456610602
233.929,0.05716988998918249,-0.05716988998918249
233.93,0.03869816262091952,-0.03869816262091952
233.931,0.025206087352497297,-0.025206087352497297
233.932,0.01841685950550409,-0.01841685950550409
233.933,0.018541941637900128,-0.018541941637900128
233.934,0.02446148302545681,-0.02446148302545681
233.935,0.03416371104066884,-0.03416371104066884
233.936,0.04529361276461086,-0.04529361276461086
233.937,0.05566266969595135,-0.05566266969595135
233.938,0.06361320996928033,-0.06361320996928033
233.939,0.06819312844299452,-0.06819312844299452
233.94,0.06915639676972962,-0.06915639676972962
233.941,0.06684404868477467,-0.06684404868477467
233.942,0.06201147756781167,-0.06201147756781167
233.943,0.055654409142922634,-0.055654409142922634
233.944,0.04885943070855703,-0.04885943070855703
233.945,0.04267965382260552,-0.04267965382260552
233.946,0.03802290329057345,-0.03802290329057345
233.947,0.03554256739336037,-0.03554256739336037
233.948,0.03553586195254821,-0.03553586195254821
233.949,0.037871305763163,-0.037871305763163
233.95,0.04197628720044033,-0.04197628720044033
233.951,0.046909989965450594,-0.046909989965450594
233.952,0.05152650398931147,-0.05152650398931147
233.953,0.0547043142928797,-0.0547043142928797
233.954,0.05559236624605601,-0.05559236624605601
233.955,0.05381027452443654,-0.05381027452443654
233.956,0.04954726675056553,-0.04954726675056553
233.957,0.04353031111760097,-0.04353031111760097
233.958,0.03686865223764024,-0.03686865223764024
233.959,0.03081739116452853,-0.03081739116452853
233.96,0.026524613252966178,-0.026524613252966178
233.961,0.024827340987190416,-0.024827340987190416
233.962,0.026141246237926463,-0.026141246237926463
233.963,0.030455245356465488,-0.030455245356465488
233.964,0.037407405990922515,-0.037407405990922515
233.965,0.046395883518601355,-0.046395883518601355
233.966,0.056676143349043695,-0.056676143349043695
233.967,0.06741389817077537,-0.06741389817077537
233.968,0.07769412276563248,-0.07769412276563248
233.969,0.08651685850772906,-0.08651685850772906
233.97,0.09282651437605827,-0.09282651437605827
233.971,0.09561431811720555,-0.09561431811720555
233.972,0.09410374719615155,-0.09410374719615155
233.973,0.08798611282111712,-0.08798611282111712
233.974,0.0776345736917502,-0.0776345736917502
233.975,0.0642071057964525,-0.0642071057964525
233.976,0.04956379212570183,-0.04956379212570183
233.977,0.035971549354284815,-0.035971549354284815
233.978,0.025637765852872696,-0.025637765852872696
233.979,0.020181364670541213,-0.020181364670541213
233.98,0.02019090552885261,-0.02019090552885261
233.981,0.02501583945379704,-0.02501583945379704
233.982,0.03288367256537139,-0.03288367256537139
233.983,0.04134418194489975,-0.04134418194489975
233.984,0.04793825249384376,-0.04793825249384376
233.985,0.050906817955584494,-0.050906817955584494
233.986,0.04972460475074825,-0.04972460475074825
233.987,0.04527949381338903,-0.04527949381338903
233.988,0.03961602883751636,-0.03961602883751636
233.989,0.03529453370454616,-0.03529453370454616
233.99,0.03454497685545155,-0.03454497685545155
233.991,0.038474866803593466,-0.038474866803593466
233.992,0.04659294698633343,-0.04659294698633343
233.993,0.05682824588545721,-0.05682824588545721
233.994,0.0660773031124543,-0.0660773031124543
233.995,0.07114389948225341,-0.07114389948225341
233.996,0.06979832233510985,-0.06979832233510985
233.997,0.061623638325546626,-0.061623638325546626
233.998,0.04835917649708965,-0.04835917649708965
233.999,0.03358964067558223,-0.03358964067558223
234.0,0.02182409549906217,-0.02182409549906217
234.001,0.017203935861849873,-0.017203935861849873
234.002,0.02221122592184921,-0.02221122592184921
234.003,0.0367733154551908,-0.0367733154551908
234.004,0.05806289401602038,-0.05806289401602038
234.005,0.0810985243648552,-0.0810985243648552
234.006,0.10001460385160321,-0.10001460385160321
234.007,0.1096623969148881,-0.1096623969148881
234.008,0.10708981519194638,-0.10708981519194638
234.009,0.09246501923654926,-0.09246501923654926
234.01,0.06915659580679379,-0.06915659580679379
234.011,0.04292016693744116,-0.04292016693744116
234.012,0.02039888125353373,-0.02039888125353373
234.013,0.007346957206323279,-0.007346957206323279
234.014,0.0070707112524617255,-0.0070707112524617255
234.015,0.019524101522333748,-0.019524101522333748
234.016,0.041312035004244185,-0.041312035004244185
234.017,0.06659841460103766,-0.06659841460103766
234.018,0.08866226143672262,-0.08866226143672262
234.019,0.10166784748450675,-0.10166784748450675
234.02,0.10216368762038452,-0.10216368762038452
234.021,0.08991246453672441,-0.08991246453672441
234.022,0.06785069283491685,-0.06785069283491685
234.023,0.04122324569538094,-0.04122324569538094
234.024,0.016161500281042573,-0.016161500281042573
234.025,0.0018879502675572812,0.0018879502675572812
234.026,0.009459418162736766,0.009459418162736766
234.027,0.0057657559872823505,0.0057657559872823505
234.028,0.007341508450357415,-0.007341508450357415
234.029,0.02607887130166353,-0.02607887130166353
234.03,0.04585972906944136,-0.04585972906944136
234.031,0.06250876926508209,-0.06250876926508209
234.032,0.07323421739217117,-0.07323421739217117
234.033,0.07712865003550251,-0.07712865003550251
234.034,0.07512053992516932,-0.07512053992516932
234.035,0.06945524604926812,-0.06945524604926812
234.036,0.062901311636397,-0.062901311636397
234.037,0.05792739600854535,-0.05792739600854535
234.038,0.05607136251986744,-0.05607136251986744
234.039,0.057642068524583534,-0.057642068524583534
234.04,0.06178658808191351,-0.06178658808191351
234.041,0.06685471264589238,-0.06685471264589238
234.042,0.07092540773106093,-0.07092540773106093
234.043,0.07233942202059385,-0.07233942202059385
234.044,0.07010597709946809,-0.07010597709946809
234.045,0.06410485314070713,-0.06410485314070713
234.046,0.05506809121731249,-0.05506809121731249
234.047,0.04437931152663355,-0.04437931152663355
234.048,0.03376140733213284,-0.03376140733213284
234.049,0.024932038942199752,-0.024932038942199752
234.05,0.01929544082069179,-0.01929544082069179
234.051,0.017717262662682476,-0.017717262662682476
234.052,0.0204053775776718,-0.0204053775776718
234.053,0.026899881516747493,-0.026899881516747493
234.054,0.03616200258295521,-0.03616200258295521
234.055,0.04674324256073237,-0.04674324256073237
234.056,0.05701034038865904,-0.05701034038865904
234.057,0.06539673491403264,-0.06539673491403264
234.058,0.07064701439872334,-0.07064701439872334
234.059,0.0720189664679245,-0.0720189664679245
234.06,0.06941052506351508,-0.06941052506351508
234.061,0.06338763589933616,-0.06338763589933616
234.062,0.05510352037962707,-0.05510352037962707
234.063,0.046117707463211755,-0.046117707463211755
234.064,0.03814090693568395,-0.03814090693568395
234.065,0.03274557786171994,-0.03274557786171994
234.066,0.031089184722875585,-0.031089184722875585
234.067,0.03369654823081425,-0.03369654823081425
234.068,0.040339860332163635,-0.040339860332163635
234.069,0.05004128806572272,-0.05004128806572272
234.07,0.06120539462071717,-0.06120539462071717
234.071,0.07186859702684745,-0.07186859702684745
234.072,0.08003244720234792,-0.08003244720234792
234.073,0.0840291792847665,-0.0840291792847665
234.074,0.08285517449794932,-0.08285517449794932
234.075,0.07640487217390934,-0.07640487217390934
234.076,0.06554784137791914,-0.06554784137791914
234.077,0.052016661459379554,-0.052016661459379554
234.078,0.038110545146273545,-0.038110545146273545
234.079,0.026262355539943383,-0.026262355539943383
234.08,0.01855430469195596,-0.01855430469195596
234.081,0.01628870641592428,-0.01628870641592428
234.082,0.019715976555272796,-0.019715976555272796
234.083,0.027990221705621265,-0.027990221705621265
234.084,0.039369088822208353,-0.039369088822208353
234.085,0.05161251512220233,-0.05161251512220233
234.086,0.06248219361789664,-0.06248219361789664
234.087,0.0702162584759285,-0.0702162584759285
234.088,0.07386136219179096,-0.07386136219179096
234.089,0.0733858589955797,-0.0733858589955797
234.09,0.06956119441097264,-0.06956119441097264
234.091,0.06366431422877306,-0.06366431422877306
234.092,0.057101238356215056,-0.057101238356215056
234.093,0.05106604255372005,-0.05106604255372005
234.094,0.04632664756592475,-0.04632664756592475
234.095,0.043177981258162856,-0.043177981258162856
234.096,0.04154285835558891,-0.04154285835558891
234.097,0.0411529668817896,-0.0411529668817896
234.098,0.041723472311152254,-0.041723472311152254
234.099,0.043050649901945515,-0.043050649901945515
234.1,0.0450049924569248,-0.0450049924569248
234.101,0.04744423868344194,-0.04744423868344194
234.102,0.05010995779056693,-0.05010995779056693
234.103,0.05258090387086345,-0.05258090387086345
234.104,0.05433138008149163,-0.05433138008149163
234.105,0.05489272693833935,-0.05489272693833935
234.106,0.05406136321334443,-0.05406136321334443
234.107,0.05206153362881982,-0.05206153362881982
234.108,0.04957275724601884,-0.04957275724601884
234.109,0.04757458984318019,-0.04757458984318019
234.11,0.047031659322604,-0.047031659322604
234.111,0.048514048777750896,-0.048514048777750896
234.112,0.05189240353328062,-0.05189240353328062
234.113,0.05624191085645891,-0.05624191085645891
234.114,0.06003008362469009,-0.06003008362469009
234.115,0.06156632657224059,-0.06156632657224059
234.116,0.05958927540130943,-0.05958927540130943
234.117,0.053799052631503974,-0.053799052631503974
234.118,0.045135534339658445,-0.045135534339658445
234.119,0.03566964025796082,-0.03566964025796082
234.12,0.028095972669887392,-0.028095972669887392
234.121,0.024953421624933858,-0.024953421624933858
234.122,0.027807643913936864,-0.027807643913936864
234.123,0.03666476447953948,-0.03666476447953948
234.124,0.04983082079476253,-0.04983082079476253
234.125,0.06429858764355256,-0.06429858764355256
234.126,0.07657304097485551,-0.07657304097485551
234.127,0.0836951689212766,-0.0836951689212766
234.128,0.08414428114866668,-0.08414428114866668
234.129,0.07832258301628314,-0.07832258301628314
234.13,0.06844974115298774,-0.06844974115298774
234.131,0.05788201348196387,-0.05788201348196387
234.132,0.050059645700394895,-0.050059645700394895
234.133,0.04741393412759409,-0.04741393412759409
234.134,0.05058665647331395,-0.05058665647331395
234.135,0.058219336974303926,-0.058219336974303926
234.136,0.06738721148246007,-0.06738721148246007
234.137,0.0745422746213259,-0.0745422746213259
234.138,0.07666152849018337,-0.07666152849018337
234.139,0.07222746239928968,-0.07222746239928968
234.14,0.061722008008243456,-0.061722008008243456
234.141,0.04747538462787071,-0.04747538462787071
234.142,0.0329240549413895,-0.0329240549413895
234.143,0.021526103294086107,-0.021526103294086107
234.144,0.01569262323792109,-0.01569262323792109
234.145,0.016083535904329427,-0.016083535904329427
234.146,0.02148999975394905,-0.02148999975394905
234.147,0.029326907807863623,-0.029326907807863623
234.148,0.036555781168001844,-0.036555781168001844
234.149,0.04071930656066036,-0.04071930656066036
234.15,0.040739729005530134,-0.040739729005530134
234.151,0.037221991737398596,-0.037221991737398596
234.152,0.03217631553584066,-0.03217631553584066
234.153,0.02827280734501625,-0.02827280734501625
234.154,0.02789476408469438,-0.02789476408469438
234.155,0.03231631870292673,-0.03231631870292673
234.156,0.04127665289588478,-0.04127665289588478
234.157,0.05307898122330057,-0.05307898122330057
234.158,0.0651602350294539,-0.0651602350294539
234.159,0.07492069782171806,-0.07492069782171806
234.16,0.08052459836223103,-0.08052459836223103
234.161,0.08140661324584253,-0.08140661324584253
234.162,0.07833274420760028,-0.07833274420760028
234.163,0.07302382706650423,-0.07302382706650423
234.164,0.0674983842329393,-0.0674983842329393
234.165,0.06337755507178844,-0.06337755507178844
234.166,0.061391632706495725,-0.061391632706495725
234.167,0.06124127570827964,-0.06124127570827964
234.168,0.061831926598538756,-0.061831926598538756
234.169,0.06176784169400362,-0.06176784169400362
234.17,0.05990936698880245,-0.05990936698880245
234.171,0.05579031151170344,-0.05579031151170344
234.172,0.04975909466870365,-0.04975909466870365
234.173,0.04281867447144472,-0.04281867447144472
234.174,0.03625227769069661,-0.03625227769069661
234.175,0.031193048439304927,-0.031193048439304927
234.176,0.028301929635024647,-0.028301929635024647
234.177,0.027661217676217764,-0.027661217676217764
234.178,0.028897055025127183,-0.028897055025127183
234.179,0.03145150035023925,-0.03145150035023925
234.18,0.03487020800059615,-0.03487020800059615
234.181,0.03897519383626402,-0.03897519383626402
234.182,0.04384997978020666,-0.04384997978020666
234.183,0.04965129519312672,-0.04965129519312672
234.184,0.05634103023298176,-0.05634103023298176
234.185,0.06347134570012058,-0.06347134570012058
234.186,0.07013836113800764,-0.07013836113800764
234.187,0.07515225222652311,-0.07515225222652311
234.188,0.0773807824977023,-0.0773807824977023
234.189,0.07614584030887928,-0.07614584030887928
234.19,0.07152025994911537,-0.07152025994911537
234.191,0.06439952535469962,-0.06439952535469962
234.192,0.05630109944229411,-0.05630109944229411
234.193,0.048944210367973806,-0.048944210367973806
234.194,0.043746949299371396,-0.043746949299371396
234.195,0.04141293770527865,-0.04141293770527865
234.196,0.04175209527511148,-0.04175209527511148
234.197,0.04379846723989056,-0.04379846723989056
234.198,0.04618241205077467,-0.04618241205077467
234.199,0.04762379105862524,-0.04762379105862524
234.2,0.04737080428376628,-0.04737080428376628
234.201,0.04543129854545447,-0.04543129854545447
234.202,0.04252124932584578,-0.04252124932584578
234.203,0.03975942617951311,-0.03975942617951311
234.204,0.038229045261690686,-0.038229045261690686
234.205,0.03857256481360227,-0.03857256481360227
234.206,0.040768522270568264,-0.040768522270568264
234.207,0.044166973168013435,-0.044166973168013435
234.208,0.04776081339905758,-0.04776081339905758
234.209,0.0505819270916702,-0.0505819270916702
234.21,0.05206684821258967,-0.05206684821258967
234.211,0.05225234297822268,-0.05225234297822268
234.212,0.051729833013748894,-0.051729833013748894
234.213,0.05138170918104612,-0.05138170918104612
234.214,0.052005850865194825,-0.052005850865194825
234.215,0.0539754127029598,-0.0539754127029598
234.216,0.0570644474498605,-0.0570644474498605
234.217,0.06050381610926281,-0.06050381610926281
234.218,0.06324273356641608,-0.06324273356641608
234.219,0.06431419723708354,-0.06431419723708354
234.22,0.06316697937523819,-0.06316697937523819
234.221,0.059845406596943596,-0.059845406596943596
234.222,0.054961739168632895,-0.054961739168632895
234.223,0.0494878447385938,-0.0494878447385938
234.224,0.044459579962653706,-0.044459579962653706
234.225,0.04071231154570887,-0.04071231154570887
234.226,0.03874049542827662,-0.03874049542827662
234.227,0.03871064157897697,-0.03871064157897697
234.228,0.040583895644242696,-0.040583895644242696
234.229,0.04425464663313261,-0.04425464663313261
234.23,0.049608095268672825,-0.049608095268672825
234.231,0.05644573463936997,-0.05644573463936997
234.232,0.06430422618744014,-0.06430422618744014
234.233,0.07226615778390644,-0.07226615778390644
234.234,0.07889533733317589,-0.07889533733317589
234.235,0.08240320830840786,-0.08240320830840786
234.236,0.08106957506170898,-0.08106957506170898
234.237,0.07382833585427673,-0.07382833585427673
234.238,0.06083157300822395,-0.06083157300822395
234.239,0.043766703493817505,-0.043766703493817505
234.24,0.02574652266782873,-0.02574652266782873
234.241,0.01071549799237903,-0.01071549799237903
234.242,0.00248078164290344,-0.00248078164290344
234.243,0.0036260790056917847,-0.0036260790056917847
234.244,0.014643393447428932,-0.014643393447428932
234.245,0.0335857322335269,-0.0335857322335269
234.246,0.05640360385656973,-0.05640360385656973
234.247,0.07791929352762617,-0.07791929352762617
234.248,0.09318281516084082,-0.09318281516084082
234.249,0.0988145948248188,-0.0988145948248188
234.25,0.09392432267889483,-0.09392432267889483
234.251,0.08031485553886164,-0.08031485553886164
234.252,0.06190006784878055,-0.06190006784878055
234.253,0.043515403114893214,-0.043515403114893214
234.254,0.029495999412440077,-0.029495999412440077
234.255,0.022472051148903383,-0.022472051148903383
234.256,0.022756997282537106,-0.022756997282537106
234.257,0.028504388455979246,-0.028504388455979246
234.258,0.03655083198940645,-0.03655083198940645
234.259,0.04363340254031589,-0.04363340254031589
234.26,0.04754923480338047,-0.04754923480338047
234.261,0.047854580918188616,-0.047854580918188616
234.262,0.04587019600089692,-0.04587019600089692
234.263,0.04401022231222529,-0.04401022231222529
234.264,0.04469483183694012,-0.04469483183694012
234.265,0.049256903228669935,-0.049256903228669935
234.266,0.05725648412024875,-0.05725648412024875
234.267,0.06647174952737611,-0.06647174952737611
234.268,0.0735921747600693,-0.0735921747600693
234.269,0.07538426786709562,-0.07538426786709562
234.27,0.06992301269288936,-0.06992301269288936
234.271,0.05744676134521298,-0.05744676134521298
234.272,0.04051374937093555,-0.04051374937093555
234.273,0.023374028287668325,-0.023374028287668325
234.274,0.01074011721140733,-0.01074011721140733
234.275,0.006349539315687158,-0.006349539315687158
234.276,0.011789598996642114,-0.011789598996642114
234.277,0.025972241607264857,-0.025972241607264857
234.278,0.045432908552659246,-0.045432908552659246
234.279,0.06535548577842687,-0.06535548577842687
234.28,0.08098868300843443,-0.08098868300843443
234.281,0.08899742490517593,-0.08899742490517593
234.282,0.08832550224209179,-0.08832550224209179
234.283,0.08031863334442879,-0.08031863334442879
234.284,0.0681082312017075,-0.0681082312017075
234.285,0.05549814363160421,-0.05549814363160421
234.286,0.045747439712635396,-0.045747439712635396
234.287,0.04065372217040719,-0.04065372217040719
234.288,0.04021489273640244,-0.04021489273640244
234.289,0.04293203945810009,-0.04293203945810009
234.29,0.046590617945941215,-0.046590617945941215
234.291,0.049200637287489024,-0.049200637287489024
234.292,0.04974127880695922,-0.04974127880695922
234.293,0.048448690319634835,-0.048448690319634835
234.294,0.046569045430144174,-0.046569045430144174
234.295,0.04570290600282512,-0.04570290600282512
234.296,0.04701687771851626,-0.04701687771851626
234.297,0.05064158728398738,-0.05064158728398738
234.298,0.055498287114803646,-0.055498287114803646
234.299,0.0596306936372184,-0.0596306936372184
234.3,0.060926248775632685,-0.060926248775632685
234.301,0.057962465666215324,-0.057962465666215324
234.302,0.050662783092624175,-0.050662783092624175
234.303,0.0405098553503388,-0.0405098553503388
234.304,0.030218503303708677,-0.030218503303708677
234.305,0.022959800711289224,-0.022959800711289224
234.306,0.021384818684918816,-0.021384818684918816
234.307,0.026767009809976927,-0.026767009809976927
234.308,0.038543285065200106,-0.038543285065200106
234.309,0.05440138398154504,-0.05440138398154504
234.31,0.07088285267019223,-0.07088285267019223
234.311,0.08430853086966228,-0.08430853086966228
234.312,0.09174057202061014,-0.09174057202061014
234.313,0.09169901633875088,-0.09169901633875088
234.314,0.08444464862638734,-0.08444464862638734
234.315,0.07178605828542084,-0.07178605828542084
234.316,0.056514964595526296,-0.056514964595526296
234.317,0.04167157242406583,-0.04167157242406583
234.318,0.02986342253131946,-0.02986342253131946
234.319,0.02280834914489216,-0.02280834914489216
234.32,0.02117232838227423,-0.02117232838227423
234.321,0.024667632431860875,-0.024667632431860875
234.322,0.032304565605418056,-0.032304565605418056
234.323,0.04267287529960717,-0.04267287529960717
234.324,0.054164493582188555,-0.054164493582188555
234.325,0.06511426562666256,-0.06511426562666256
234.326,0.07389635190057864,-0.07389635190057864
234.327,0.07904204267716086,-0.07904204267716086
234.328,0.07942731273523751,-0.07942731273523751
234.329,0.07452458370291082,-0.07452458370291082
234.33,0.06464930143564962,-0.06464930143564962
234.331,0.05109059855908493,-0.05109059855908493
234.332,0.036021026761165476,-0.036021026761165476
234.333,0.02213855431531153,-0.02213855431531153
234.334,0.012087513177570064,-0.012087513177570064
234.335,0.007799628366800815,-0.007799628366800815
234.336,0.00995303010114268,-0.00995303010114268
234.337,0.017738487887474674,-0.017738487887474674
234.338,0.029042967381311513,-0.029042967381311513
234.339,0.0410323600112904,-0.0410323600112904
234.34,0.050979515569821165,-0.050979515569821165
234.341,0.05708836352790181,-0.05708836352790181
234.342,0.059046876425235095,-0.059046876425235095
234.343,0.05811296406513611,-0.05811296406513611
234.344,0.056679609589703195,-0.056679609589703195
234.345,0.05743461526401539,-0.05743461526401539
234.346,0.06237073134841775,-0.06237073134841775
234.347,0.07196536453827551,-0.07196536453827551
234.348,0.08481099898871736,-0.08481099898871736
234.349,0.0978462144943909,-0.0978462144943909
234.35,0.10715196338917876,-0.10715196338917876
234.351,0.10909643558938209,-0.10909643558938209
234.352,0.10149234061314549,-0.10149234061314549
234.353,0.08441202867120834,-0.08441202867120834
234.354,0.060396392262153986,-0.060396392262153986
234.355,0.03396671837330312,-0.03396671837330312
234.356,0.010552596112051171,-0.010552596112051171
234.357,0.004877827753006825,0.004877827753006825
234.358,0.009108354790121842,0.009108354790121842
234.359,0.001527627742379245,0.001527627742379245
234.36,0.01569266642367706,-0.01569266642367706
234.361,0.0381437704783143,-0.0381437704783143
234.362,0.06030055188006722,-0.06030055188006722
234.363,0.07691377621731976,-0.07691377621731976
234.364,0.08430413849598983,-0.08430413849598983
234.365,0.08122408848637586,-0.08122408848637586
234.366,0.06907803832570159,-0.06907803832570159
234.367,0.05146705869890933,-0.05146705869890933
234.368,0.03320095197658601,-0.03320095197658601
234.369,0.019051426598787002,-0.019051426598787002
234.37,0.012572988293274467,-0.012572988293274467
234.371,0.015283887882152514,-0.015283887882152514
234.372,0.026392353298570814,-0.026392353298570814
234.373,0.04310567598136972,-0.04310567598136972
234.374,0.06141191950958558,-0.06141191950958558
234.375,0.0771134983760885,-0.0771134983760885
234.376,0.08684378386086777,-0.08684378386086777
234.377,0.08881976597268393,-0.08881976597268393
234.378,0.08316513290624794,-0.08316513290624794
234.379,0.07175447421884884,-0.07175447421884884
234.38,0.057649435673252425,-0.057649435673252425
234.381,0.04429173845071588,-0.04429173845071588
234.382,0.03466483258133202,-0.03466483258133202
234.383,0.03062758040519442,-0.03062758040519442
234.384,0.03256597621405244,-0.03256597621405244
234.385,0.03942041780640626,-0.03942041780640626
234.386,0.04905080484312352,-0.04905080484312352
234.387,0.05882395352218506,-0.05882395352218506
234.388,0.06626536497247415,-0.06626536497247415
234.389,0.06961761321722026,-0.06961761321722026
234.39,0.06818617735073274,-0.06818617735073274
234.391,0.06241647715784382,-0.06241647715784382
234.392,0.053714280059995456,-0.053714280059995456
234.393,0.04407745360239557,-0.04407745360239557
234.394,0.035638092624577955,-0.035638092624577955
234.395,0.030216996243562222,-0.030216996243562222
234.396,0.028972543054046507,-0.028972543054046507
234.397,0.032194007245360146,-0.032194007245360146
234.398,0.03925697387951177,-0.03925697387951177
234.399,0.04873389712264897,-0.04873389712264897
234.4,0.05863806307478692,-0.05863806307478692
234.401,0.06677061017318009,-0.06677061017318009
234.402,0.0711315103005562,-0.0711315103005562
234.403,0.07034195566508239,-0.07034195566508239
234.404,0.06400832033467285,-0.06400832033467285
234.405,0.05294424373469697,-0.05294424373469697
234.406,0.03916909650131928,-0.03916909650131928
234.407,0.02562871442402681,-0.02562871442402681
234.408,0.01564104541905409,-0.01564104541905409
234.409,0.012146662653355622,-0.012146662653355622
234.41,0.0169213450464627,-0.0169213450464627
234.411,0.029957524728996043,-0.029957524728996043
234.412,0.049218058789223806,-0.049218058789223806
234.413,0.07089704667475205,-0.07089704667475205
234.414,0.09019645033269641,-0.09019645033269641
234.415,0.10247428622849897,-0.10247428622849897
234.416,0.10448575630487622,-0.10448575630487622
234.417,0.09537034748655471,-0.09537034748655471
234.418,0.07706852801968578,-0.07706852801968578
234.419,0.05398568910606005,-0.05398568910606005
234.42,0.0319288489125884,-0.0319288489125884
234.421,0.016565288578662574,-0.016565288578662574
234.422,0.011821402532215086,-0.011821402532215086
234.423,0.01869444239311202,-0.01869444239311202
234.424,0.03486087228199508,-0.03486087228199508
234.425,0.05524840536485742,-0.05524840536485742
234.426,0.07345333691924816,-0.07345333691924816
234.427,0.08361673127208957,-0.08361673127208957
234.428,0.08220942325988723,-0.08220942325988723
234.429,0.06917577449343248,-0.06917577449343248
234.43,0.04805935808176487,-0.04805935808176487
234.431,0.025034140767556612,-0.025034140767556612
234.432,0.007102387531123688,-0.007102387531123688
234.433,1.0984887376386254e-05,1.0984887376386254e-05
234.434,0.006372780250933352,-0.006372780250933352
234.435,0.0250065190353701,-0.0250065190353701
234.436,0.051013752570971294,-0.051013752570971294
234.437,0.0772874987370058,-0.0772874987370058
234.438,0.0965727612676891,-0.0965727612676891
234.439,0.10359763141659861,-0.10359763141659861
234.44,0.09660048758027329,-0.09660048758027329
234.441,0.0777899382340963,-0.0777899382340963
234.442,0.05261019926350652,-0.05261019926350652
234.443,0.02805941806135248,-0.02805941806135248
234.444,0.010600858566356175,-0.010600858566356175
234.445,0.004322645529741376,-0.004322645529741376
234.446,0.009905102920424014,-0.009905102920424014
234.447,0.024680093180462825,-0.024680093180462825
234.448,0.04370727107951622,-0.04370727107951622
234.449,0.06146802724382827,-0.06146802724382827
234.45,0.0735958048819737,-0.0735958048819737
234.451,0.07807866928716156,-0.07807866928716156
234.452,0.07557538130602504,-0.07557538130602504
234.453,0.06880490821849183,-0.06880490821849183
234.454,0.061289143422441406,-0.061289143422441406
234.455,0.05593926819663386,-0.05593926819663386
234.456,0.05400732552875909,-0.05400732552875909
234.457,0.054769767279485126,-0.054769767279485126
234.458,0.056027942426157495,-0.056027942426157495
234.459,0.055204615568720805,-0.055204615568720805
234.46,0.050595767791828394,-0.050595767791828394
234.461,0.04228147298775542,-0.04228147298775542
234.462,0.032327534264190216,-0.032327534264190216
234.463,0.024173967881636504,-0.024173967881636504
234.464,0.021411577535532467,-0.021411577535532467
234.465,0.026383291194864822,-0.026383291194864822
234.466,0.03912680985093353,-0.03912680985093353
234.467,0.0570688698528552,-0.0570688698528552
234.468,0.07562474068741687,-0.07562474068741687
234.469,0.08953897052591564,-0.08953897052591564
234.47,0.09453666423373341,-0.09453666423373341
234.471,0.08873344774023784,-0.08873344774023784
234.472,0.07332095095701441,-0.07332095095701441
234.473,0.052281186411226255,-0.052281186411226255
234.474,0.031207082049253487,-0.031207082049253487
234.475,0.015606588000947386,-0.015606588000947386
234.476,0.00924128320821882,-0.00924128320821882
234.477,0.01303810729186683,-0.01303810729186683
234.478,0.0249196140218515,-0.0249196140218515
234.479,0.04059078049288245,-0.04059078049288245
234.48,0.055004087812032476,-0.055004087812032476
234.481,0.06400632040105325,-0.06400632040105325
234.482,0.06562241780253308,-0.06562241780253308
234.483,0.06056679275050514,-0.06056679275050514
234.484,0.051841337150932976,-0.051841337150932976
234.485,0.04358803694459312,-0.04358803694459312
234.486,0.03960751965725595,-0.03960751965725595
234.487,0.04205261922376691,-0.04205261922376691
234.488,0.050729458239619385,-0.050729458239619385
234.489,0.06321894338204304,-0.06321894338204304
234.49,0.07574785819623608,-0.07574785819623608
234.491,0.08448902188515173,-0.08448902188515173
234.492,0.0868374657564851,-0.0868374657564851
234.493,0.08223470701429558,-0.08223470701429558
234.494,0.07228143251231856,-0.07228143251231856
234.495,0.06012777252240509,-0.06012777252240509
234.496,0.04937263932836311,-0.04937263932836311
234.497,0.0428580925630353,-0.0428580925630353
234.498,0.041763450156750204,-0.041763450156750204
234.499,0.04528698867566705,-0.04528698867566705
234.5,0.05099628587651239,-0.05099628587651239
234.501,0.05570503264910476,-0.05570503264910476
234.502,0.05656936118186162,-0.05656936118186162
234.503,0.0520413357702143,-0.0520413357702143
234.504,0.04238256237245153,-0.04238256237245153
234.505,0.02959744673722986,-0.02959744673722986
234.506,0.016836031946431018,-0.016836031946431018
234.507,0.007476527701943958,-0.007476527701943958
234.508,0.004178917997078924,-0.004178917997078924
234.509,0.008184983496055676,-0.008184983496055676
234.51,0.01904180892037033,-0.01904180892037033
234.511,0.03478547904005669,-0.03478547904005669
234.512,0.052488091257613,-0.052488091257613
234.513,0.06898462629479707,-0.06898462629479707
234.514,0.08157574109209631,-0.08157574109209631
234.515,0.08854280197073072,-0.08854280197073072
234.516,0.08938833234683652,-0.08938833234683652
234.517,0.08479730561395527,-0.08479730561395527
234.518,0.07637656293179218,-0.07637656293179218
234.519,0.06625902185787413,-0.06625902185787413
234.52,0.056659444701521844,-0.056659444701521844
234.521,0.04945268329574348,-0.04945268329574348
234.522,0.04582833062016456,-0.04582833062016456
234.523,0.04606594202634584,-0.04606594202634584
234.524,0.04947069638342538,-0.04947069638342538
234.525,0.05450089148543902,-0.05450089148543902
234.526,0.05909515853683889,-0.05909515853683889
234.527,0.06116457149912935,-0.06116457149912935
234.528,0.05916046470846659,-0.05916046470846659
234.529,0.05258138223442066,-0.05258138223442066
234.53,0.04226525272805148,-0.04226525272805148
234.531,0.030342987812092548,-0.030342987812092548
234.532,0.01980943145380376,-0.01980943145380376
234.533,0.01377955592057567,-0.01377955592057567
234.534,0.014608323216351193,-0.014608323216351193
234.535,0.023122285730395764,-0.023122285730395764
234.536,0.038208998362105784,-0.038208998362105784
234.537,0.05692735981504182,-0.05692735981504182
234.538,0.07515641198715228,-0.07515641198715228
234.539,0.08863422428751322,-0.08863422428751322
234.54,0.09410576270152382,-0.09410576270152382
234.541,0.0902457580859477,-0.0902457580859477
234.542,0.07807251543650429,-0.07807251543650429
234.543,0.06071109053909085,-0.06071109053909085
234.544,0.042557488872944305,-0.042557488872944305
234.545,0.02807895645358427,-0.02807895645358427
234.546,0.020599602314297916,-0.020599602314297916
234.547,0.02142736302846382,-0.02142736302846382
234.548,0.029574167418920827,-0.029574167418920827
234.549,0.04213892172346101,-0.04213892172346101
234.55,0.05522112006251534,-0.05522112006251534
234.551,0.06507614349020485,-0.06507614349020485
234.552,0.06916080364512289,-0.06916080364512289
234.553,0.06676683991343013,-0.06676683991343013
234.554,0.05908132656539633,-0.05908132656539633
234.555,0.048697167446249745,-0.048697167446249745
234.556,0.03876273086367221,-0.03876273086367221
234.557,0.032054743672013775,-0.032054743672013775
234.558,0.030256554274503134,-0.030256554274503134
234.559,0.03363239558681641,-0.03363239558681641
234.56,0.04114445006704126,-0.04114445006704126
234.561,0.05091554048227198,-0.05091554048227198
234.562,0.0608444212925392,-0.0608444212925392
234.563,0.0691606637181309,-0.0691606637181309
234.564,0.07476082145583018,-0.07476082145583018
234.565,0.07726930910408636,-0.07726930910408636
234.566,0.07687411739703054,-0.07687411739703054
234.567,0.07405911111240882,-0.07405911111240882
234.568,0.06936809180858727,-0.06936809180858727
234.569,0.0632924407241906,-0.0632924407241906
234.57,0.05629769357270875,-0.05629769357270875
234.571,0.04893016937932726,-0.04893016937932726
234.572,0.04190496875510874,-0.04190496875510874
234.573,0.036087377306042834,-0.036087377306042834
234.574,0.032334887414287916,-0.032334887414287916
234.575,0.03124145232031772,-0.03124145232031772
234.576,0.03288556132855169,-0.03288556132855169
234.577,0.036701312425270194,-0.036701312425270194
234.578,0.041556367550767415,-0.041556367550767415
234.579,0.04604421982365292,-0.04604421982365292
234.58,0.04891024565256952,-0.04891024565256952
234.581,0.049467543977430584,-0.049467543977430584
234.582,0.047847426298730955,-0.047847426298730955
234.583,0.044978740226582214,-0.044978740226582214
234.584,0.04228434478848819,-0.04228434478848819
234.585,0.0411878575001684,-0.0411878575001684
234.586,0.04259931848642651,-0.04259931848642651
234.587,0.046564312771923855,-0.046564312771923855
234.588,0.05220871690222295,-0.05220871690222295
234.589,0.05800773659620684,-0.05800773659620684
234.59,0.06229046496039237,-0.06229046496039237
234.591,0.06380344173307595,-0.06380344173307595
234.592,0.06213226953379403,-0.06213226953379403
234.593,0.05782985187779788,-0.05782985187779788
234.594,0.05220624526238493,-0.05220624526238493
234.595,0.04685961432994812,-0.04685961432994812
234.596,0.043123863663591,-0.043123863663591
234.597,0.0416394947607277,-0.0416394947607277
234.598,0.04220728966178122,-0.04220728966178122
234.599,0.043976006471616036,-0.043976006471616036
234.6,0.04588554200034112,-0.04588554200034112
234.601,0.04718518322240317,-0.04718518322240317
234.602,0.047812482703290304,-0.047812482703290304
234.603,0.04846710806309107,-0.04846710806309107
234.604,0.05032976774866538,-0.05032976774866538
234.605,0.054517034483341664,-0.054517034483341664
234.606,0.06147561120485745,-0.06147561120485745
234.607,0.07055991035084153,-0.07055991035084153
234.608,0.07998582712257729,-0.07998582712257729
234.609,0.08722578390135949,-0.08722578390135949
234.61,0.08974921975975803,-0.08974921975975803
234.611,0.08587650426633431,-0.08587650426633431
234.612,0.07545393629118113,-0.07545393629118113
234.613,0.060098674494594495,-0.060098674494594495
234.614,0.04289509936941027,-0.04289509936941027
234.615,0.02760504881473025,-0.02760504881473025
234.616,0.017621812728379926,-0.017621812728379926
234.617,0.014992860632309757,-0.014992860632309757
234.618,0.01982402543678774,-0.01982402543678774
234.619,0.030259998684662115,-0.030259998684662115
234.62,0.0430509658605277,-0.0430509658605277
234.621,0.05452526153239823,-0.05452526153239823
234.622,0.06165758167357682,-0.06165758167357682
234.623,0.06289588650919253,-0.06289588650919253
234.624,0.058496252500282675,-0.058496252500282675
234.625,0.05028336421172386,-0.05028336421172386
234.626,0.040946577423970454,-0.040946577423970454
234.627,0.0331312297359756,-0.0331312297359756
234.628,0.028641217659607587,-0.028641217659607587
234.629,0.028014050149009817,-0.028014050149009817
234.63,0.030585086285532914,-0.030585086285532914
234.631,0.03497635030812807,-0.03497635030812807
234.632,0.03979262569432662,-0.03979262569432662
234.633,0.04423817087995496,-0.04423817087995496
234.634,0.04840588962911441,-0.04840588962911441
234.635,0.053122686929034546,-0.053122686929034546
234.636,0.05941169474038577,-0.05941169474038577
234.637,0.06778892005584392,-0.06778892005584392
234.638,0.07768991597750197,-0.07768991597750197
234.639,0.08729010036556295,-0.08729010036556295
234.64,0.09384827474168189,-0.09384827474168189
234.641,0.09451172375440087,-0.09451172375440087
234.642,0.08733992516383182,-0.08733992516383182
234.643,0.0721981549581795,-0.0721981549581795
234.644,0.05118370072745282,-0.05118370072745282
234.645,0.028378242441793766,-0.028378242441793766
234.646,0.008931281443429029,-0.008931281443429029
234.647,0.0022966478552930436,0.0022966478552930436
234.648,0.002140555444829495,0.002140555444829495
234.649,0.009846082341115947,-0.009846082341115947
234.65,0.031090761313123716,-0.031090761313123716
234.651,0.056555446281220556,-0.056555446281220556
234.652,0.08001915009153193,-0.08001915009153193
234.653,0.09573830048793941,-0.09573830048793941
234.654,0.10000954413407026,-0.10000954413407026
234.655,0.09217851927006127,-0.09217851927006127
234.656,0.07479618217282202,-0.07479618217282202
234.657,0.052874210735086025,-0.052874210735086025
234.658,0.032456754403216825,-0.032456754403216825
234.659,0.01892628070073521,-0.01892628070073521
234.66,0.01553568455356824,-0.01553568455356824
234.661,0.022585417660262896,-0.022585417660262896
234.662,0.03746687751695654,-0.03746687751695654
234.663,0.055533090989265954,-0.055533090989265954
234.664,0.07151458714808745,-0.07151458714808745
234.665,0.08104556874747748,-0.08104556874747748
234.666,0.08184745827369222,-0.08184745827369222
234.667,0.07423595686680606,-0.07423595686680606
234.668,0.060834234987464986,-0.060834234987464986
234.669,0.04562006548165054,-0.04562006548165054
234.67,0.03263259765928517,-0.03263259765928517
234.671,0.024755329741927734,-0.024755329741927734
234.672,0.02295038818847317,-0.02295038818847317
234.673,0.026161830185251866,-0.026161830185251866
234.674,0.03188453183047202,-0.03188453183047202
234.675,0.037181448710007614,-0.037181448710007614
234.676,0.03979320471930092,-0.03979320471930092
234.677,0.03896293009942864,-0.03896293009942864
234.678,0.03570096893944841,-0.03570096893944841
234.679,0.032404335292168795,-0.032404335292168795
234.68,0.03196242939159344,-0.03196242939159344
234.681,0.036653214734860495,-0.036653214734860495
234.682,0.04720676504672183,-0.04720676504672183
234.683,0.0623619470565816,-0.0623619470565816
234.684,0.0790830234508455,-0.0790830234508455
234.685,0.0933870899361191,-0.0933870899361191
234.686,0.10153026004096821,-0.10153026004096821
234.687,0.10117666817345328,-0.10117666817345328
234.688,0.09217109036949356,-0.09217109036949356
234.689,0.07665615526658975,-0.07665615526658975
234.69,0.05848161258890994,-0.05848161258890994
234.691,0.042080248824010846,-0.042080248824010846
234.692,0.03115936225710303,-0.03115936225710303
234.693,0.02762076766957866,-0.02762076766957866
234.694,0.031053536219430522,-0.031053536219430522
234.695,0.03896238679035857,-0.03896238679035857
234.696,0.04765813712825828,-0.04765813712825828
234.697,0.05352117525191247,-0.05352117525191247
234.698,0.05422518736940829,-0.05422518736940829
234.699,0.049518189128948675,-0.049518189128948675
234.7,0.0412999776203643,-0.0412999776203643
234.701,0.03296473329896954,-0.03296473329896954
234.702,0.028220426052589676,-0.028220426052589676
234.703,0.02977311477809741,-0.02977311477809741
234.704,0.03831502617097049,-0.03831502617097049
234.705,0.05216184687999614,-0.05216184687999614
234.706,0.06767571171655373,-0.06767571171655373
234.707,0.08035325438402607,-0.08035325438402607
234.708,0.08623699912853955,-0.08623699912853955
234.709,0.08319668462344265,-0.08319668462344265
234.71,0.07166288928001308,-0.07166288928001308
234.711,0.05456826216898758,-0.05456826216898758
234.712,0.03650598179088216,-0.03650598179088216
234.713,0.022367646409004016,-0.022367646409004016
234.714,0.01589062420531895,-0.01589062420531895
234.715,0.01857268781076782,-0.01857268781076782
234.716,0.029290552640678813,-0.029290552640678813
234.717,0.044729173164930525,-0.044729173164930525
234.718,0.060466700634690174,-0.060466700634690174
234.719,0.07235256457888084,-0.07235256457888084
234.72,0.07773110467236144,-0.07773110467236144
234.721,0.07612690382336484,-0.07612690382336484
234.722,0.06919665625203664,-0.06919665625203664
234.723,0.060000549573819284,-0.060000549573819284
234.724,0.05186918346108538,-0.05186918346108538
234.725,0.047265361901564384,-0.047265361901564384
234.726,0.04702437290066286,-0.04702437290066286
234.727,0.05021063289813654,-0.05021063289813654
234.728,0.054606376342100416,-0.054606376342100416
234.729,0.05762828488153793,-0.05762828488153793
234.73,0.0573269334940123,-0.0573269334940123
234.731,0.05310886830338413,-0.05310886830338413
234.732,0.04593390647582474,-0.04593390647582474
234.733,0.03793746639597595,-0.03793746639597595
234.734,0.03163679279829834,-0.03163679279829834
234.735,0.029025349136729717,-0.029025349136729717
234.736,0.030890172082578604,-0.030890172082578604
234.737,0.03659386186479474,-0.03659386186479474
234.738,0.044382623989867476,-0.044382623989867476
234.739,0.0520825196675303,-0.0520825196675303
234.74,0.05790246443818636,-0.05790246443818636
234.741,0.06102816563541391,-0.06102816563541391
234.742,0.061778836080399246,-0.061778836080399246
234.743,0.061275035308427706,-0.061275035308427706
234.744,0.060764311145997785,-0.060764311145997785
234.745,0.06089506825834856,-0.06089506825834856
234.746,0.06126102905407116,-0.06126102905407116
234.747,0.06044254744769839,-0.06044254744769839
234.748,0.056578859623901634,-0.056578859623901634
234.749,0.04828681637435639,-0.04828681637435639
234.75,0.03557949974347252,-0.03557949974347252
234.751,0.02039795832950242,-0.02039795832950242
234.752,0.006474564085049206,-0.006474564085049206
234.753,0.0015318740992034119,0.0015318740992034119
234.754,0.0005755422468606275,-0.0005755422468606275
234.755,0.015039327905971955,-0.015039327905971955
234.756,0.0410544169584921,-0.0410544169584921
234.757,0.07449266169151114,-0.07449266169151114
234.758,0.10862802848066766,-0.10862802848066766
234.759,0.1357312488481467,-0.1357312488481467
234.76,0.14911148477336977,-0.14911148477336977
234.761,0.14501269823651297,-0.14501269823651297
234.762,0.12378510245700847,-0.12378510245700847
234.763,0.08994987037983915,-0.08994987037983915
234.764,0.05109988865906667,-0.05109988865906667
234.765,0.015929871422203035,-0.015929871422203035
234.766,0.008045227508121311,0.008045227508121311
234.767,0.0164283475185798,0.0164283475185798
234.768,0.008983600017620441,0.008983600017620441
234.769,0.010496163144384063,-0.010496163144384063
234.77,0.035426807092442614,-0.035426807092442614
234.771,0.05838231306163766,-0.05838231306163766
234.772,0.07316849818198268,-0.07316849818198268
234.773,0.07642270593309197,-0.07642270593309197
234.774,0.06831065813952897,-0.06831065813952897
234.775,0.05218152102541063,-0.05218152102541063
234.776,0.03335732801173863,-0.03335732801173863
234.777,0.017474852641321537,-0.017474852641321537
234.778,0.008896787852248678,-0.008896787852248678
234.779,0.009643869244258307,-0.009643869244258307
234.78,0.019102693308747032,-0.019102693308747032
234.781,0.03450716959460054,-0.03450716959460054
234.782,0.05196020929966261,-0.05196020929966261
234.783,0.06762680608541805,-0.06762680608541805
234.784,0.07872372277600781,-0.07872372277600781
234.785,0.08404326212846291,-0.08404326212846291
234.786,0.08393028434788286,-0.08393028434788286
234.787,0.07981587296980541,-0.07981587296980541
234.788,0.07353687715539958,-0.07353687715539958
234.789,0.06670294170634605,-0.06670294170634605
234.79,0.06031199431711465,-0.06031199431711465
234.791,0.05469385396337023,-0.05469385396337023
234.792,0.04972965213081293,-0.04972965213081293
234.793,0.04520049375236901,-0.04520049375236901
234.794,0.04109194999481269,-0.04109194999481269
234.795,0.03772372760876186,-0.03772372760876186
234.796,0.03566255517982864,-0.03566255517982864
234.797,0.03547250490823883,-0.03547250490823883
234.798,0.03742286630323777,-0.03742286630323777
234.799,0.0412862636762803,-0.0412862636762803
234.8,0.046318117455464436,-0.046318117455464436
234.801,0.05143276195287583,-0.05143276195287583
234.802,0.05551323267905561,-0.05551323267905561
234.803,0.05774142545169758,-0.05774142545169758
234.804,0.05783075292789097,-0.05783075292789097
234.805,0.05608362092484054,-0.05608362092484054
234.806,0.05326293696938744,-0.05326293696938744
234.807,0.05033331180954115,-0.05033331180954115
234.808,0.04816849297172254,-0.04816849297172254
234.809,0.04732337325968061,-0.04732337325968061
234.81,0.04793428096013108,-0.04793428096013108
234.811,0.049756876392868965,-0.049756876392868965
234.812,0.05230007943828585,-0.05230007943828585
234.813,0.05498706385634533,-0.05498706385634533
234.814,0.05727934318324446,-0.05727934318324446
234.815,0.05873197954639098,-0.05873197954639098
234.816,0.05899029054214311,-0.05899029054214311
234.817,0.0577706336643502,-0.0577706336643502
234.818,0.054874594387503195,-0.054874594387503195
234.819,0.05026370516872858,-0.05026370516872858
234.82,0.044180660459992804,-0.044180660459992804
234.821,0.0372622319135294,-0.0372622319135294
234.822,0.030569294078393816,-0.030569294078393816
234.823,0.025473344906823514,-0.025473344906823514
234.824,0.02338560697180725,-0.02338560697180725
234.825,0.025378737254758033,-0.025378737254758033
234.826,0.03180773691400751,-0.03180773691400751
234.827,0.04206142986079353,-0.04206142986079353
234.828,0.05455450426653141,-0.05455450426653141
234.829,0.0670047375845999,-0.0670047375845999
234.83,0.07694978539252895,-0.07694978539252895
234.831,0.08237292003992325,-0.08237292003992325
234.832,0.08225799556663893,-0.08225799556663893
234.833,0.07690068376525439,-0.07690068376525439
234.834,0.06786724024997326,-0.06786724024997326
234.835,0.05759543207897633,-0.05759543207897633
234.836,0.048742267238797043,-0.048742267238797043
234.837,0.043463868854079823,-0.043463868854079823
234.838,0.042837132743684836,-0.042837132743684836
234.839,0.046591832648509524,-0.046591832648509524
234.84,0.05322817468737839,-0.05322817468737839
234.841,0.06047835246333366,-0.06047835246333366
234.842,0.06596861437916401,-0.06596861437916401
234.843,0.06788278963681693,-0.06788278963681693
234.844,0.06543551960502958,-0.06543551960502958
234.845,0.05902925009894022,-0.05902925009894022
234.846,0.05007026840000761,-0.05007026840000761
234.847,0.040522132186669446,-0.040522132186669446
234.848,0.03234712892471403,-0.03234712892471403
234.849,0.027006990737855174,-0.027006990737855174
234.85,0.025160027461245238,-0.025160027461245238
234.851,0.0266181469460266,-0.0266181469460266
234.852,0.030540819024855503,-0.030540819024855503
234.853,0.03577298011770291,-0.03577298011770291
234.854,0.04120152007776512,-0.04120152007776512
234.855,0.046017336112065044,-0.046017336112065044
234.856,0.04981831821245819,-0.04981831821245819
234.857,0.05255288210959319,-0.05255288210959319
234.858,0.05435995041871855,-0.05435995041871855
234.859,0.05539063268256339,-0.05539063268256339
234.86,0.05569141436323943,-0.05569141436323943
234.861,0.05519359864965023,-0.05519359864965023
234.862,0.05380444212963198,-0.05380444212963198
234.863,0.05155129610437481,-0.05155129610437481
234.864,0.04870734702248192,-0.04870734702248192
234.865,0.04583372125594187,-0.04583372125594187
234.866,0.04370438097154272,-0.04370438097154272
234.867,0.04312496167797597,-0.04312496167797597
234.868,0.044697935269017997,-0.044697935269017997
234.869,0.048609572692616676,-0.048609572692616676
234.87,0.054511350617148624,-0.054511350617148624
234.871,0.061541075897844855,-0.061541075897844855
234.872,0.06848663584790726,-0.06848663584790726
234.873,0.07405196931538105,-0.07405196931538105
234.874,0.07715426576360296,-0.07715426576360296
234.875,0.07717247627312374,-0.07717247627312374
234.876,0.07408171578429101,-0.07408171578429101
234.877,0.0684406707412798,-0.0684406707412798
234.878,0.06123944405259851,-0.06123944405259851
234.879,0.05365171484999698,-0.05365171484999698
234.88,0.046758073014432244,-0.046758073014432244
234.881,0.041311786585291,-0.041311786585291
234.882,0.03760423955045933,-0.03760423955045933
234.883,0.035459578711612205,-0.035459578711612205
234.884,0.034354310475240624,-0.034354310475240624
234.885,0.033626024033518,-0.033626024033518
234.886,0.03271331513828546,-0.03271331513828546
234.887,0.031361159488269785,-0.031361159488269785
234.888,0.02973413288430171,-0.02973413288430171
234.889,0.028402385276807718,-0.028402385276807718
234.89,0.0281974674329033,-0.0281974674329033
234.891,0.029969900677812467,-0.029969900677812467
234.892,0.034309450309502054,-0.034309450309502054
234.893,0.0413045161529636,-0.0413045161529636
234.894,0.05041340814357986,-0.05041340814357986
234.895,0.0604963311572978,-0.0604963311572978
234.896,0.07001685778522793,-0.07001685778522793
234.897,0.07737487092529671,-0.07737487092529671
234.898,0.08129202328914997,-0.08129202328914997
234.899,0.08114826365917382,-0.08114826365917382
234.9,0.07717257142446643,-0.07717257142446643
234.901,0.07042419625043772,-0.07042419625043772
234.902,0.06255532104473527,-0.06255532104473527
234.903,0.05540771032629965,-0.05540771032629965
234.904,0.050546578022622746,-0.050546578022622746
234.905,0.048858452527898,-0.048858452527898
234.906,0.050327246874065756,-0.050327246874065756
234.907,0.05405570140021687,-0.05405570140021687
234.908,0.05853037162657826,-0.05853037162657826
234.909,0.06205745963094056,-0.06205745963094056
234.91,0.06324565140869254,-0.06324565140869254
234.911,0.0613970235761363,-0.0613970235761363
234.912,0.056693541845439954,-0.056693541845439954
234.913,0.05012728616366968,-0.05012728616366968
234.914,0.04319898878925488,-0.04319898878925488
234.915,0.03747819404556296,-0.03747819404556296
234.916,0.034158031836575176,-0.034158031836575176
234.917,0.03373608604990963,-0.03373608604990963
234.918,0.03591109969124395,-0.03591109969124395
234.919,0.039717049360258105,-0.039717049360258105
234.92,0.04384344740266355,-0.04384344740266355
234.921,0.0470365912373647,-0.0470365912373647
234.922,0.048457353898644806,-0.048457353898644806
234.923,0.047891696329114275,-0.047891696329114275
234.924,0.04576205157143376,-0.04576205157143376
234.925,0.04295285404069582,-0.04295285404069582
234.926,0.040520000623335606,-0.040520000623335606
234.927,0.03938401989215412,-0.03938401989215412
234.928,0.04010198357021699,-0.04010198357021699
234.929,0.04277759232190026,-0.04277759232190026
234.93,0.04711652626032303,-0.04711652626032303
234.931,0.05258415588751497,-0.05258415588751497
234.932,0.058592310729750574,-0.058592310729750574
234.933,0.06464049286187856,-0.06464049286187856
234.934,0.07036343150096691,-0.07036343150096691
234.935,0.07548003831499117,-0.07548003831499117
234.936,0.07968189334684339,-0.07968189334684339
234.937,0.08252617824115605,-0.08252617824115605
234.938,0.08339860419136957,-0.08339860419136957
234.939,0.08158617308500138,-0.08158617308500138
234.94,0.07645693787824503,-0.07645693787824503
234.941,0.06769974399948953,-0.06769974399948953
234.942,0.05554723603138523,-0.05554723603138523
234.943,0.04090115390864091,-0.04090115390864091
234.944,0.02530230006514722,-0.02530230006514722
234.945,0.010731313409091725,-0.010731313409091725
234.946,0.0007234979187720203,0.0007234979187720203
234.947,0.007254575186163903,0.007254575186163903
234.948,0.007685037396519601,0.007685037396519601
234.949,0.0016950333645404658,0.0016950333645404658
234.95,0.01012674678186365,-0.01012674678186365
234.951,0.026410613059081656,-0.026410613059081656
234.952,0.045270938505777014,-0.045270938505777014
234.953,0.06463616191912047,-0.06463616191912047
234.954,0.0825628989841537,-0.0825628989841537
234.955,0.09746849635597588,-0.09746849635597588
234.956,0.10824836073962352,-0.10824836073962352
234.957,0.11428197235862658,-0.11428197235862658
234.958,0.11536255435393461,-0.11536255435393461
234.959,0.11160080469560973,-0.11160080469560973
234.96,0.10334941730121094,-0.10334941730121094
234.961,0.09117518780315748,-0.09117518780315748
234.962,0.07587725964078873,-0.07587725964078873
234.963,0.05852379081679593,-0.05852379081679593
234.964,0.040464304680117635,-0.040464304680117635
234.965,0.023276682809512672,-0.023276682809512672
234.966,0.008626167007637853,-0.008626167007637853
234.967,0.0019565479211522963,0.0019565479211522963
234.968,0.007339234035733,0.007339234035733
234.969,0.007031555534289913,0.007031555534289913
234.97,0.0013384596010570515,0.0013384596010570515
234.971,0.008632561931918303,-0.008632561931918303
234.972,0.021134455245611306,-0.021134455245611306
234.973,0.03409501102450152,-0.03409501102450152
234.974,0.04552139758841367,-0.04552139758841367
234.975,0.05390375938969039,-0.05390375938969039
234.976,0.05851940023080826,-0.05851940023080826
234.977,0.05955801054253551,-0.05955801054253551
234.978,0.05803045686417241,-0.05803045686417241
234.979,0.05547866189034112,-0.05547866189034112
234.98,0.053557370664951476,-0.053557370664951476
234.981,0.05359487136519858,-0.05359487136519858
234.982,0.056247707998211216,-0.056247707998211216
234.983,0.06134041518988542,-0.06134041518988542
234.984,0.06793094724611237,-0.06793094724611237
234.985,0.07457959011903037,-0.07457959011903037
234.986,0.07974200316208757,-0.07974200316208757
234.987,0.08217290582044645,-0.08217290582044645
234.988,0.08122657854055582,-0.08122657854055582
234.989,0.07697432540646532,-0.07697432540646532
234.99,0.0701170213898985,-0.0701170213898985
234.991,0.0617345646538211,-0.0617345646538211
234.992,0.05296296335795381,-0.05296296335795381
234.993,0.044707903194248,-0.044707903194248
234.994,0.03748499855686238,-0.03748499855686238
234.995,0.031427937859941246,-0.031427937859941246
234.996,0.02644335634187811,-0.02644335634187811
234.997,0.022437453100076943,-0.022437453100076943
234.998,0.01951349088125498,-0.01951349088125498
234.999,0.018051233538162292,-0.018051233538162292
235.0,0.01862556249860081,-0.01862556249860081
235.001,0.021785827348327236,-0.021785827348327236
235.002,0.027776499006780364,-0.027776499006780364
235.003,0.03631089972036361,-0.03631089972036361
235.004,0.04649985245976995,-0.04649985245976995
235.005,0.0569871984000041,-0.0569871984000041
235.006,0.06627028170793725,-0.06627028170793725
235.007,0.0731114954446015,-0.0731114954446015
235.008,0.07690356601102177,-0.07690356601102177
235.009,0.07785446728939382,-0.07785446728939382
235.01,0.07691002231237232,-0.07691002231237232
235.011,0.07541824144360665,-0.07541824144360665
235.012,0.07463109747330898,-0.07463109747330898
235.013,0.07520481812888336,-0.07520481812888336
235.014,0.07687422725379833,-0.07687422725379833
235.015,0.07843178793432981,-0.07843178793432981
235.016,0.07804934456742585,-0.07804934456742585
235.017,0.07386854568955492,-0.07386854568955492
235.018,0.06469084660688396,-0.06469084660688396
235.019,0.05055203582802015,-0.05055203582802015
235.02,0.03298660713555801,-0.03298660713555801
235.021,0.01487014723590041,-0.01487014723590041
235.022,0.00015083435414409152,0.00015083435414409152
235.023,0.008509227645870254,0.008509227645870254
235.024,0.007628257556355322,0.007628257556355322
235.025,0.003351312595747613,-0.003351312595747613
235.026,0.02322733927226517,-0.02322733927226517
235.027,0.048875114807882314,-0.048875114807882314
235.028,0.07584218149642474,-0.07584218149642474
235.029,0.09925709146641948,-0.09925709146641948
235.03,0.11483629124849437,-0.11483629124849437
235.031,0.11975815750235119,-0.11975815750235119
235.032,0.11321580109406248,-0.11321580109406248
235.033,0.09654400823517983,-0.09654400823517983
235.034,0.07291512699851144,-0.07291512699851144
235.035,0.04668815318382025,-0.04668815318382025
235.036,0.022556201427233136,-0.022556201427233136
235.037,0.004662327659313514,-0.004662327659313514
235.038,0.0041550936605214694,0.0041550936605214694
235.039,0.002859615925535186,0.002859615925535186
235.04,0.007623470303387392,-0.007623470303387392
235.041,0.024610546214202333,-0.024610546214202333
235.042,0.04419583334658339,-0.04419583334658339
235.043,0.062034732566582984,-0.062034732566582984
235.044,0.07423937953559379,-0.07423937953559379
235.045,0.07821627492557592,-0.07821627492557592
235.046,0.07326643914789466,-0.07326643914789466
235.047,0.06079591634419923,-0.06079591634419923
235.048,0.044053198249774606,-0.044053198249774606
235.049,0.027413123785788973,-0.027413123785788973
235.05,0.01534325832254646,-0.01534325832254646
235.051,0.01128758673630037,-0.01128758673630037
235.052,0.01675069598767831,-0.01675069598767831
235.053,0.030840144965503247,-0.030840144965503247
235.054,0.05042180166396382,-0.05042180166396382
235.055,0.07088348975450309,-0.07088348975450309
235.056,0.0873285401049323,-0.0873285401049323
235.057,0.09588496214640796,-0.09588496214640796
235.058,0.09476371632018121,-0.09476371632018121
235.059,0.08475429175350158,-0.08475429175350158
235.06,0.06899829661460666,-0.06899829661460666
235.061,0.0520905985854313,-0.0520905985854313
235.062,0.03876025645585546,-0.03876025645585546
235.063,0.032515905409661205,-0.032515905409661205
235.064,0.0346577171384197,-0.0346577171384197
235.065,0.04395117615270461,-0.04395117615270461
235.066,0.057057324564768086,-0.057057324564768086
235.067,0.06958183575953569,-0.06958183575953569
235.068,0.07741508639094419,-0.07741508639094419
235.069,0.0779486829434406,-0.0779486829434406
235.07,0.07079892539202393,-0.07079892539202393
235.071,0.05782967112146642,-0.05782967112146642
235.072,0.04249266754101766,-0.04249266754101766
235.073,0.028718442085534313,-0.028718442085534313
235.074,0.01972511289204748,-0.01972511289204748
235.075,0.017123555395848977,-0.017123555395848977
235.076,0.020584650281908035,-0.020584650281908035
235.077,0.028138879529498895,-0.028138879529498895
235.078,0.03696835527664222,-0.03696835527664222
235.079,0.04439765577466959,-0.04439765577466959
235.08,0.048742350737163265,-0.048742350737163265
235.081,0.04974439216321891,-0.04974439216321891
235.082,0.04848200480556575,-0.04848200480556575
235.083,0.04682913145069045,-0.04682913145069045
235.084,0.04668895373296422,-0.04668895373296422
235.085,0.04928697631873047,-0.04928697631873047
235.086,0.054765033606292146,-0.054765033606292146
235.087,0.06219047579414261,-0.06219047579414261
235.088,0.0699360282888517,-0.0699360282888517
235.089,0.07625585759453746,-0.07625585759453746
235.09,0.07982892659163265,-0.07982892659163265
235.091,0.08007760574448841,-0.08007760574448841
235.092,0.0771776801516213,-0.0771776801516213
235.093,0.07180833122809271,-0.07180833122809271
235.094,0.06479254859139583,-0.06479254859139583
235.095,0.056809061936894834,-0.056809061936894834
235.096,0.048305884778027885,-0.048305884778027885
235.097,0.039636825015058164,-0.039636825015058164
235.098,0.03132421993688694,-0.03132421993688694
235.099,0.0242767337063603,-0.0242767337063603
235.1,0.019795928937820784,-0.019795928937820784
235.101,0.01929216090875374,-0.01929216090875374
235.102,0.023766338154551425,-0.023766338154551425
235.103,0.03324288760242977,-0.03324288760242977
235.104,0.046403085739336825,-0.046403085739336825
235.105,0.060631506496633736,-0.060631506496633736
235.106,0.07255513031911431,-0.07255513031911431
235.107,0.07896839599504135,-0.07896839599504135
235.108,0.07786774668179341,-0.07786774668179341
235.109,0.06923574094745599,-0.06923574094745599
235.11,0.05525984171649767,-0.05525984171649767
235.111,0.039840620177163055,-0.039840620177163055
235.112,0.02748601665694228,-0.02748601665694228
235.113,0.02191815291691246,-0.02191815291691246
235.114,0.024850308991233527,-0.024850308991233527
235.115,0.03536758339930157,-0.03536758339930157
235.116,0.05016244224492783,-0.05016244224492783
235.117,0.06459099425227677,-0.06459099425227677
235.118,0.07422404980655928,-0.07422404980655928
235.119,0.07637391873256638,-0.07637391873256638
235.12,0.0710589849826504,-0.0710589849826504
235.121,0.061040082821329555,-0.061040082821329555
235.122,0.05087426841769471,-0.05087426841769471
235.123,0.04527846336507535,-0.04527846336507535
235.124,0.04735546509675759,-0.04735546509675759
235.125,0.05731103344894428,-0.05731103344894428
235.126,0.07214742349410475,-0.07214742349410475
235.127,0.08649674897104431,-0.08649674897104431
235.128,0.09436307929133692,-0.09436307929133692
235.129,0.09121138565706155,-0.09121138565706155
235.13,0.07569334934378691,-0.07569334934378691
235.131,0.050393638392639106,-0.050393638392639106
235.132,0.021291670342349467,-0.021291670342349467
235.133,0.003937910831794289,0.003937910831794289
235.134,0.018262763108810365,0.018262763108810365
235.135,0.01751245977466942,0.01751245977466942
235.136,0.001743664822631219,0.001743664822631219
235.137,0.024715113873253536,-0.024715113873253536
235.138,0.054571456802651186,-0.054571456802651186
235.139,0.07981106298995833,-0.07981106298995833
235.14,0.094141593193521,-0.094141593193521
235.141,0.09483842820686572,-0.09483842820686572
235.142,0.08339597812244648,-0.08339597812244648
235.143,0.06479436009957551,-0.06479436009957551
235.144,0.04566095299504258,-0.04566095299504258
235.145,0.03197763656208519,-0.03197763656208519
235.146,0.027129059248388376,-0.027129059248388376
235.147,0.030955225999114155,-0.030955225999114155
235.148,0.0401096065874037,-0.0401096065874037
235.149,0.049558927003576114,-0.049558927003576114
235.15,0.054656268103698724,-0.054656268103698724
235.151,0.0530176626394967,-0.0530176626394967
235.152,0.045505629261725966,-0.045505629261725966
235.153,0.035946050905301674,-0.035946050905301674
235.154,0.029664276464234973,-0.029664276464234973
235.155,0.0313601408558819,-0.0313601408558819
235.156,0.04309537404048536,-0.04309537404048536
235.157,0.06314828128499039,-0.06314828128499039
235.158,0.08620219829266895,-0.08620219829266895
235.159,0.10487333110341535,-0.10487333110341535
235.16,0.11210889428496629,-0.11210889428496629
235.161,0.10366328870781516,-0.10366328870781516
235.162,0.07980301566595238,-0.07980301566595238
235.163,0.04562405065537356,-0.04562405065537356
235.164,0.00981308891648125,-0.00981308891648125
235.165,0.017802811149254305,0.017802811149254305
235.166,0.029167333905313342,0.029167333905313342
235.167,0.020452971923986762,0.020452971923986762
235.168,0.006712466359481417,-0.006712466359481417
235.169,0.04564095567176829,-0.04564095567176829
235.17,0.08647823339819272,-0.08647823339819272
235.171,0.11900549372999192,-0.11900549372999192
235.172,0.1354850385704479,-0.1354850385704479
235.173,0.1326936376882114,-0.1326936376882114
235.174,0.11256544078022124,-0.11256544078022124
235.175,0.08131719218027811,-0.08131719218027811
235.176,0.04740115569945791,-0.04740115569945791
235.177,0.018972905447352972,-0.018972905447352972
235.178,0.0016682706812262138,-0.0016682706812262138
235.179,0.0026661896415300923,0.0026661896415300923
235.18,0.004010939880759623,-0.004010939880759623
235.181,0.017058241458999812,-0.017058241458999812
235.182,0.03094892694103335,-0.03094892694103335
235.183,0.04110930766274068,-0.04110930766274068
235.184,0.045212477873756485,-0.045212477873756485
235.185,0.04357636638310969,-0.04357636638310969
235.186,0.038643953124384844,-0.038643953124384844
235.187,0.033828234170590665,-0.033828234170590665
235.188,0.03218493968935876,-0.03218493968935876
235.189,0.03538183181951593,-0.03538183181951593
235.19,0.04327842419784955,-0.04327842419784955
235.191,0.05418257784845448,-0.05418257784845448
235.192,0.06560575486320008,-0.06560575486320008
235.193,0.07518309366608811,-0.07518309366608811
235.194,0.08140542659244032,-0.08140542659244032
235.195,0.08392234987145741,-0.08392234987145741
235.196,0.08336562337524356,-0.08336562337524356
235.197,0.08083287597560218,-0.08083287597560218
235.198,0.07729058265411815,-0.07729058265411815
235.199,0.07316219847756533,-0.07316219847756533
235.2,0.06826694112777731,-0.06826694112777731
235.201,0.062112694751248254,-0.062112694751248254
235.202,0.05439020431464747,-0.05439020431464747
235.203,0.0454275788121804,-0.0454275788121804
235.204,0.03637797583658198,-0.03637797583658198
235.205,0.02902236838802319,-0.02902236838802319
235.206,0.025229586566400286,-0.025229586566400286
235.207,0.026263874292440592,-0.026263874292440592
235.208,0.03220737298475618,-0.03220737298475618
235.209,0.041739680421569836,-0.041739680421569836
235.21,0.05239618755571718,-0.05239618755571718
235.211,0.0612544987958773,-0.0612544987958773
235.212,0.06583699747890592,-0.06583699747890592
235.213,0.06492726905051904,-0.06492726905051904
235.214,0.05901321847739305,-0.05901321847739305
235.215,0.05018723808989489,-0.05018723808989489
235.216,0.04151410845663994,-0.04151410845663994
235.217,0.03605847927407446,-0.03605847927407446
235.218,0.03588328963258547,-0.03588328963258547
235.219,0.04134706286874057,-0.04134706286874057
235.22,0.0509355715611155,-0.0509355715611155
235.221,0.06169264729820656,-0.06169264729820656
235.222,0.07012246231502228,-0.07012246231502228
235.223,0.07328436908214842,-0.07328436908214842
235.224,0.06973966104667917,-0.06973966104667917
235.225,0.06005567883044183,-0.06005567883044183
235.226,0.04670982117343303,-0.04670982117343303
235.227,0.03341924725227208,-0.03341924725227208
235.228,0.024093652339017946,-0.024093652339017946
235.229,0.021716774548270368,-0.021716774548270368
235.23,0.02747734467591645,-0.02747734467591645
235.231,0.04039178196042048,-0.04039178196042048
235.232,0.057516576309273315,-0.057516576309273315
235.233,0.0746829648450883,-0.0746829648450883
235.234,0.08754797377904455,-0.08754797377904455
235.235,0.09268057514533257,-0.09268057514533257
235.236,0.08840535284865725,-0.08840535284865725
235.237,0.07520149470735094,-0.07520149470735094
235.238,0.055576544792796057,-0.055576544792796057
235.239,0.03346726831866198,-0.03346726831866198
235.24,0.013330302972584751,-0.013330302972584751
235.241,0.0008514590781238951,0.0008514590781238951
235.242,0.006414993995852214,0.006414993995852214
235.243,0.002531637096221395,0.002531637096221395
235.244,0.00970846113756052,-0.00970846113756052
235.245,0.027638248854443437,-0.027638248854443437
235.246,0.04768299338584692,-0.04768299338584692
235.247,0.06618883082963034,-0.06618883082963034
235.248,0.08021366691712806,-0.08021366691712806
235.249,0.0880994713697355,-0.0880994713697355
235.25,0.08970205377225826,-0.08970205377225826
235.251,0.08623985045225202,-0.08623985045225202
235.252,0.07981774984377643,-0.07981774984377643
235.253,0.07276303792124728,-0.07276303792124728
235.254,0.06695741399113919,-0.06695741399113919
235.255,0.06334814207868655,-0.06334814207868655
235.256,0.06177083034426556,-0.06177083034426556
235.257,0.061127664069162146,-0.061127664069162146
235.258,0.05986144405079041,-0.05986144405079041
235.259,0.0565768121420368,-0.0565768121420368
235.26,0.05061263508791458,-0.05061263508791458
235.261,0.04237994824153557,-0.04237994824153557
235.262,0.033347684704631786,-0.033347684704631786
235.263,0.02566534783227581,-0.02566534783227581
235.264,0.02152629461383293,-0.02152629461383293
235.265,0.022461859548342233,-0.022461859548342233
235.266,0.02878681572622288,-0.02878681572622288
235.267,0.039378943258849164,-0.039378943258849164
235.268,0.0518792036993273,-0.0518792036993273
235.269,0.06327256476380438,-0.06327256476380438
235.27,0.0706916459435597,-0.0706916459435597
235.271,0.07221304922407501,-0.07221304922407501
235.272,0.06741281099438456,-0.06741281099438456
235.273,0.057514831494768104,-0.057514831494768104
235.274,0.04508420881791919,-0.04508420881791919
235.275,0.03335010480084699,-0.03335010480084699
235.276,0.025349705214600227,-0.025349705214600227
235.277,0.02313401297012585,-0.02313401297012585
235.278,0.02725394844889195,-0.02725394844889195
235.279,0.03666001656445461,-0.03666001656445461
235.28,0.04902800198027568,-0.04902800198027568
235.281,0.06140384282244382,-0.06140384282244382
235.282,0.07097792355469656,-0.07097792355469656
235.283,0.07577466502665231,-0.07577466502665231
235.284,0.07508082905193025,-0.07508082905193025
235.285,0.06952018347112976,-0.06952018347112976
235.286,0.060785288735464515,-0.060785288735464515
235.287,0.051128176553500215,-0.051128176553500215
235.288,0.04276597564574447,-0.04276597564574447
235.289,0.03736354631287897,-0.03736354631287897
235.29,0.03571644574926447,-0.03571644574926447
235.291,0.03768990969112318,-0.03768990969112318
235.292,0.04239506501300605,-0.04239506501300605
235.293,0.04852343413308846,-0.04852343413308846
235.294,0.05472937504708142,-0.05472937504708142
235.295,0.05995212298967578,-0.05995212298967578
235.296,0.06359977688238361,-0.06359977688238361
235.297,0.06556538587572414,-0.06556538587572414
235.298,0.06609594473533209,-0.06609594473533209
235.299,0.06557536807081421,-0.06557536807081421
235.3,0.0643030076827138,-0.0643030076827138
235.301,0.062345947552860714,-0.062345947552860714
235.302,0.059517704593011866,-0.059517704593011866
235.303,0.05549467813823761,-0.05549467813823761
235.304,0.05003519438027948,-0.05003519438027948
235.305,0.04322680839665083,-0.04322680839665083
235.306,0.03566771988932038,-0.03566771988932038
235.307,0.02849623353842312,-0.02849623353842312
235.308,0.02321999146727649,-0.02321999146727649
235.309,0.02135731402534846,-0.02135731402534846
235.31,0.023970846992384387,-0.023970846992384387
235.311,0.031227681417482667,-0.031227681417482667
235.312,0.04213930420519574,-0.04213930420519574
235.313,0.054605800479606836,-0.054605800479606836
235.314,0.06581214925915524,-0.06581214925915524
235.315,0.0729172854427439,-0.0729172854427439
235.316,0.07386975187806533,-0.07386975187806533
235.317,0.06811369777195042,-0.06811369777195042
235.318,0.05694580416903128,-0.05694580416903128
235.319,0.043359433834855965,-0.043359433834855965
235.32,0.03135357258235871,-0.03135357258235871
235.321,0.024852991619856102,-0.024852991619856102
235.322,0.026529587588019266,-0.026529587588019266
235.323,0.036881551006777924,-0.036881551006777924
235.324,0.05388495328467435,-0.05388495328467435
235.325,0.0733827556806137,-0.0733827556806137
235.326,0.09015705717177946,-0.09015705717177946
235.327,0.09940729163030115,-0.09940729163030115
235.328,0.09820382738387667,-0.09820382738387667
235.329,0.08646032626720379,-0.08646032626720379
235.33,0.0670889014604984,-0.0670889014604984
235.331,0.045241378552280165,-0.045241378552280165
235.332,0.02682738357758996,-0.02682738357758996
235.333,0.016743563942773654,-0.016743563942773654
235.334,0.01736419915504417,-0.01736419915504417
235.335,0.027785335121327526,-0.027785335121327526
235.336,0.04409162117218757,-0.04409162117218757
235.337,0.06059255170471978,-0.06059255170471978
235.338,0.07165530302836298,-0.07165530302836298
235.339,0.07355168543051493,-0.07355168543051493
235.34,0.06571201553310457,-0.06571201553310457
235.341,0.05095514731071915,-0.05095514731071915
235.342,0.03459044795380517,-0.03459044795380517
235.343,0.022660271283863498,-0.022660271283863498
235.344,0.019886843255901954,-0.019886843255901954
235.345,0.02800337608721193,-0.02800337608721193
235.346,0.0450407315736181,-0.0450407315736181
235.347,0.06583755510213707,-0.06583755510213707
235.348,0.08363986780883903,-0.08363986780883903
235.349,0.09228817920177512,-0.09228817920177512
235.35,0.08828096484568271,-0.08828096484568271
235.351,0.07202709071474156,-0.07202709071474156
235.352,0.04785375379708279,-0.04785375379708279
235.353,0.022740228515303995,-0.022740228515303995
235.354,0.0041685161401987525,-0.0041685161401987525
235.355,0.0022208658570912476,0.0022208658570912476
235.356,0.005592493741907956,-0.005592493741907956
235.357,0.0253767643472107,-0.0253767643472107
235.358,0.051369482718472304,-0.051369482718472304
235.359,0.07611600291632159,-0.07611600291632159
235.36,0.09282140617051471,-0.09282140617051471
235.361,0.09744649935945215,-0.09744649935945215
235.362,0.08986867421163547,-0.08986867421163547
235.363,0.07374406953221257,-0.07374406953221257
235.364,0.05514203550591579,-0.05514203550591579
235.365,0.040429828293411685,-0.040429828293411685
235.366,0.03412815036672878,-0.03412815036672878
235.367,0.03745623148839583,-0.03745623148839583
235.368,0.04804154649313064,-0.04804154649313064
235.369,0.06086873352384503,-0.06086873352384503
235.37,0.07012197227198558,-0.07012197227198558
235.371,0.07127748837652059,-0.07127748837652059
235.372,0.06272722971389644,-0.06272722971389644
235.373,0.04638382407421526,-0.04638382407421526
235.374,0.027070002894536982,-0.027070002894536982
235.375,0.01091043742739406,-0.01091043742739406
235.376,0.0032789160140364038,-0.0032789160140364038
235.377,0.006996832759877392,-0.006996832759877392
235.378,0.02138489210194816,-0.02138489210194816
235.379,0.042474775434444334,-0.042474775434444334
235.38,0.06429468864762378,-0.06429468864762378
235.381,0.08078654837575228,-0.08078654837575228
235.382,0.08771204739462335,-0.08771204739462335
235.383,0.08392358993085236,-0.08392358993085236
235.384,0.0716021920840233,-0.0716021920840233
235.385,0.05541648968342194,-0.05541648968342194
235.386,0.040913582894318345,-0.040913582894318345
235.387,0.03269441208275026,-0.03269441208275026
235.388,0.032976938904743514,-0.032976938904743514
235.389,0.040999675765193255,-0.040999675765193255
235.39,0.05342390040684475,-0.05342390040684475
235.391,0.0655587307263713,-0.0655587307263713
235.392,0.07297165044734888,-0.07297165044734888
235.393,0.07294141795036846,-0.07294141795036846
235.394,0.06528807522234537,-0.06528807522234537
235.395,0.052341138119917474,-0.052341138119917474
235.396,0.038099580658342735,-0.038099580658342735
235.397,0.02689606696246849,-0.02689606696246849
235.398,0.022020071870164637,-0.022020071870164637
235.399,0.024740670907581586,-0.024740670907581586
235.4,0.03401444165594891,-0.03401444165594891
235.401,0.04692722164277885,-0.04692722164277885
235.402,0.059682944356916234,-0.059682944356916234
235.403,0.06879436645228088,-0.06879436645228088
235.404,0.07209396333715845,-0.07209396333715845
235.405,0.06927000241349912,-0.06927000241349912
235.406,0.06180419673206694,-0.06180419673206694
235.407,0.05238120563281812,-0.05238120563281812
235.408,0.043993506286220785,-0.043993506286220785
235.409,0.03903449900117939,-0.03903449900117939
235.41,0.038646369481663445,-0.038646369481663445
235.411,0.042486897849703165,-0.042486897849703165
235.412,0.04894166784769394,-0.04894166784769394
235.413,0.05568047383538022,-0.05568047383538022
235.414,0.06037432035054524,-0.06037432035054524
235.415,0.06136787884872108,-0.06136787884872108
235.416,0.05813665417784086,-0.05813665417784086
235.417,0.051428968853104884,-0.051428968853104884
235.418,0.043075815351396485,-0.043075815351396485
235.419,0.035526059959644196,-0.035526059959644196
235.42,0.031218267404156896,-0.031218267404156896
235.421,0.031929632310746525,-0.031929632310746525
235.422,0.03824782621807321,-0.03824782621807321
235.423,0.04929418154281673,-0.04929418154281673
235.424,0.06278641846543498,-0.06278641846543498
235.425,0.0754662831291194,-0.0754662831291194
235.426,0.08383659354639772,-0.08383659354639772
235.427,0.085066048759739,-0.085066048759739
235.428,0.07785019449169539,-0.07785019449169539
235.429,0.06298873591300747,-0.06298873591300747
235.43,0.043473695613594376,-0.043473695613594376
235.431,0.023985383436625707,-0.023985383436625707
235.432,0.009847257305747203,-0.009847257305747203
235.433,0.005657978717643175,-0.005657978717643175
235.434,0.013947775317354694,-0.013947775317354694
235.435,0.03424813392550674,-0.03424813392550674
235.436,0.06289141458731373,-0.06289141458731373
235.437,0.09367705547391547,-0.09367705547391547
235.438,0.11929754235016454,-0.11929754235016454
235.439,0.13318096162513382,-0.13318096162513382
235.44,0.1312541482604498,-0.1312541482604498
235.441,0.1131177534715343,-0.1131177534715343
235.442,0.08226756452188044,-0.08226756452188044
235.443,0.04526083855638574,-0.04526083855638574
235.444,0.010035823974109404,-0.010035823974109404
235.445,0.016148817966463724,0.016148817966463724
235.446,0.028564676769935904,0.028564676769935904
235.447,0.026120360227691597,0.026120360227691597
235.448,0.011413044927045535,0.011413044927045535
235.449,0.010264708625716934,-0.010264708625716934
235.45,0.03263301426178633,-0.03263301426178633
235.451,0.050303474232265,-0.050303474232265
235.452,0.06024509264932687,-0.06024509264932687
235.453,0.06240147126194073,-0.06240147126194073
235.454,0.059309464063727946,-0.059309464063727946
235.455,0.05489848841858802,-0.05489848841858802
235.456,0.05291247960049372,-0.05291247960049372
235.457,0.0555064735523122,-0.0555064735523122
235.458,0.06249242617051809,-0.06249242617051809
235.459,0.0714731067878509,-0.0714731067878509
235.46,0.07879111297486185,-0.07879111297486185
235.461,0.08093955373923578,-0.08093955373923578
235.462,0.07592707371803986,-0.07592707371803986
235.463,0.06411341866154963,-0.06411341866154963
235.464,0.04822189767700602,-0.04822189767700602
235.465,0.03252395149397769,-0.03252395149397769
235.466,0.021477613901456194,-0.021477613901456194
235.467,0.01828721591714122,-0.01828721591714122
235.468,0.023873809206565122,-0.023873809206565122
235.469,0.03659942936864413,-0.03659942936864413
235.47,0.052826667309696984,-0.052826667309696984
235.471,0.06811013423755419,-0.06811013423755419
235.472,0.07860670690897953,-0.07860670690897953
235.473,0.08222751353058044,-0.08222751353058044
235.474,0.07915534199541818,-0.07915534199541818
235.475,0.07157820351660127,-0.07157820351660127
235.476,0.06276213270338027,-0.06276213270338027
235.477,0.05580917474857083,-0.05580917474857083
235.478,0.05254445644645134,-0.05254445644645134
235.479,0.052918717907908364,-0.052918717907908364
235.48,0.05512343425787214,-0.05512343425787214
235.481,0.05636305681416365,-0.05636305681416365
235.482,0.05400118151815447,-0.05400118151815447
235.483,0.04667181259154696,-0.04667181259154696
235.484,0.03496341235967004,-0.03496341235967004
235.485,0.021432619276944842,-0.021432619276944842
235.486,0.009932304014521165,-0.009932304014521165
235.487,0.004466424015243109,-0.004466424015243109
235.488,0.007936398544153844,-0.007936398544153844
235.489,0.021173288993395212,-0.021173288993395212
235.49,0.042552559465013684,-0.042552559465013684
235.491,0.06830120504168868,-0.06830120504168868
235.492,0.0933951599824655,-0.0933951599824655
235.493,0.11277656633211741,-0.11277656633211741
235.494,0.12254508052900859,-0.12254508052900859
235.495,0.12081047383710741,-0.12081047383710741
235.496,0.1080148606333331,-0.1080148606333331
235.497,0.08669561310481921,-0.08669561310481921
235.498,0.06081014254866535,-0.06081014254866535
235.499,0.034837950226172754,-0.034837950226172754
235.5,0.012894372602855975,-0.012894372602855975
235.501,0.001957833908677653,0.001957833908677653
235.502,0.008100143714218078,0.008100143714218078
235.503,0.005444716713214337,0.005444716713214337
235.504,0.004727980256242215,-0.004727980256242215
235.505,0.02009771668570215,-0.02009771668570215
235.506,0.03772348267179004,-0.03772348267179004
235.507,0.054499782705053956,-0.054499782705053956
235.508,0.06761545536926394,-0.06761545536926394
235.509,0.07498201850774977,-0.07498201850774977
235.51,0.07558444513009122,-0.07558444513009122
235.511,0.06968990869928338,-0.06968990869928338
235.512,0.05884706860403299,-0.05884706860403299
235.513,0.04563322833607908,-0.04563322833607908
235.514,0.033160468516341246,-0.033160468516341246
235.515,0.024421345531319028,-0.024421345531319028
235.516,0.021616085650042582,-0.021616085650042582
235.517,0.025631005637781312,-0.025631005637781312
235.518,0.035815785081741436,-0.035815785081741436
235.519,0.050135564240845865,-0.050135564240845865
235.52,0.0656713271712801,-0.0656713271712801
235.521,0.07934018862889558,-0.07934018862889558
235.522,0.08863971146916017,-0.08863971146916017
235.523,0.09221100778741609,-0.09221100778741609
235.524,0.09006910007070412,-0.09006910007070412
235.525,0.08344969080280118,-0.08344969080280118
235.526,0.07433701857242347,-0.07433701857242347
235.527,0.06483071358236259,-0.06483071358236259
235.528,0.05655096978534002,-0.05655096978534002
235.529,0.05025893703943174,-0.05025893703943174
235.53,0.04579226639023637,-0.04579226639023637
235.531,0.042311023831849925,-0.042311023831849925
235.532,0.03875148570216602,-0.03875148570216602
235.533,0.03432544121545977,-0.03432544121545977
235.534,0.02889739817213255,-0.02889739817213255
235.535,0.023119707134419687,-0.023119707134419687
235.536,0.018287525254192083,-0.018287525254192083
235.537,0.015963800980627885,-0.015963800980627885
235.538,0.01749165267649022,-0.01749165267649022
235.539,0.023539469534204605,-0.023539469534204605
235.54,0.03380856841783275,-0.03380856841783275
235.541,0.04698352289010499,-0.04698352289010499
235.542,0.06093912618080333,-0.06093912618080333
235.543,0.07315478910929096,-0.07315478910929096
235.544,0.0812419263324976,-0.0812419263324976
235.545,0.08346964993973582,-0.08346964993973582
235.546,0.07917834004083557,-0.07917834004083557
235.547,0.06899404307859125,-0.06899404307859125
235.548,0.05479253859242317,-0.05479253859242317
235.549,0.03940486168207491,-0.03940486168207491
235.55,0.02610208465573205,-0.02610208465573205
235.551,0.017942167798360442,-0.017942167798360442
235.552,0.017099488795052964,-0.017099488795052964
235.553,0.024319197475507037,-0.024319197475507037
235.554,0.03863361738786675,-0.03863361738786675
235.555,0.05743924119622956,-0.05743924119622956
235.556,0.07696094839318313,-0.07696094839318313
235.557,0.093036541115738,-0.093036541115738
235.558,0.10206189854847647,-0.10206189854847647
235.559,0.10187300738516547,-0.10187300738516547
