Czas,AbsSum,Sum
40.299,0.009113087956171887,0.009113087956171887
40.3,0.013306851057685257,0.013306851057685257
40.301,0.015565627397639227,0.015565627397639227
40.302,0.015937502745580086,0.015937502745580086
40.303,0.014922510504854273,0.014922510504854273
40.304,0.013211425373405703,0.013211425373405703
40.305,0.011381958286192246,0.011381958286192246
40.306,0.009666291760629586,0.009666291760629586
40.306999999999995,0.007876269265664721,0.007876269265664721
40.308,0.005514321708397393,0.005514321708397393
40.309,0.002029897538455775,0.002029897538455775
40.309999999999995,0.0028732440900790714,-0.0028732440900790714
40.311,0.008994891821730917,-0.008994891821730917
40.312,0.015558101457213829,-0.015558101457213829
40.312999999999995,0.021333914971802148,-0.021333914971802148
40.314,0.024944572058174526,-0.024944572058174526
40.315,0.02525663656229349,-0.02525663656229349
40.315999999999995,0.021741966872157622,-0.021741966872157622
40.317,0.014690799059683148,-0.014690799059683148
40.318,0.005205225190885426,-0.005205225190885426
40.318999999999996,0.005031592681636899,0.005031592681636899
40.32,0.014146994104676404,0.014146994104676404
40.321,0.020520303523855022,0.020520303523855022
40.321999999999996,0.023151165855101748,0.023151165855101748
40.323,0.02185728911614199,0.02185728911614199
40.324,0.01725789004329474,0.01725789004329474
40.324999999999996,0.010562790483917117,0.010562790483917117
40.326,0.003240314322901281,0.003240314322901281
40.327,0.0033358262369466056,-0.0033358262369466056
40.327999999999996,0.008165790811896795,-0.008165790811896795
40.329,0.010767144045711665,-0.010767144045711665
40.33,0.011168221171977069,-0.011168221171977069
40.330999999999996,0.009782101638615504,-0.009782101638615504
40.332,0.007220769279581991,-0.007220769279581991
40.333,0.004114289269864264,-0.004114289269864264
40.333999999999996,0.0009832403480718583,-0.0009832403480718583
40.335,0.0018167096434458226,0.0018167096434458226
40.336,0.004088818660679506,0.004088818660679506
40.336999999999996,0.005757494073651791,0.005757494073651791
40.338,0.00683091112566065,0.00683091112566065
40.339,0.007383938694365861,0.007383938694365861
40.339999999999996,0.007561533531438311,0.007561533531438311
40.341,0.0075854249201348836,0.0075854249201348836
40.342,0.007740227923960864,0.007740227923960864
40.342999999999996,0.008322348628011378,0.008322348628011378
40.344,0.009553193673779319,0.009553193673779319
40.345,0.011479323398630191,0.011479323398630191
40.346,0.013896651928409479,0.013896651928409479
40.347,0.016336221898259853,0.016336221898259853
40.348,0.018133466866300248,0.018133466866300248
40.349,0.018575655465115828,0.018575655465115828
40.35,0.01709282735358197,0.01709282735358197
40.351,0.013437021314732626,0.013437021314732626
40.352,0.007791470819491937,0.007791470819491937
40.353,0.0007683635057351235,0.0007683635057351235
40.354,0.0067137240056754635,-0.0067137240056754635
40.355,0.013643765895366072,-0.013643765895366072
40.356,0.019164141539836085,-0.019164141539836085
40.357,0.022776419267396396,-0.022776419267396396
40.358,0.02444542562305563,-0.02444542562305563
40.359,0.024570437152379086,-0.024570437152379086
40.36,0.02383338673325746,-0.02383338673325746
40.361,0.022972334028708786,-0.022972334028708786
40.362,0.022551558676309518,-0.022551558676309518
40.363,0.022799875794389555,-0.022799875794389555
40.364,0.023566021049916796,-0.023566021049916796
40.365,0.024401628954160155,-0.024401628954160155
40.366,0.024740940694949497,-0.024740940694949497
40.367,0.024115385046279834,-0.024115385046279834
40.367999999999995,0.022330571248237285,-0.022330571248237285
40.369,0.01954631171713943,-0.01954631171713943
40.37,0.016232648042462394,-0.016232648042462394
40.370999999999995,0.013015891830391226,-0.013015891830391226
40.372,0.010465125247210045,-0.010465125247210045
40.373,0.008889753798461372,-0.008889753798461372
40.373999999999995,0.008216194300550565,-0.008216194300550565
40.375,0.007987487012376091,-0.007987487012376091
40.376,0.007491259793836003,-0.007491259793836003
40.376999999999995,0.005981064053248506,-0.005981064053248506
40.378,0.00292615088159407,-0.00292615088159407
40.379,0.0017856153976472731,0.0017856153976472731
40.379999999999995,0.007754767840884224,0.007754767840884224
40.381,0.014119206472696261,0.014119206472696261
40.382,0.019736701242995106,0.019736701242995106
40.382999999999996,0.02345454046080248,0.02345454046080248
40.384,0.024395381597294836,0.024395381597294836
40.385,0.02218394199235977,0.02218394199235977
40.385999999999996,0.017055632403897358,0.017055632403897358
40.387,0.009820374561872314,0.009820374561872314
40.388,0.0016932219558710802,0.0016932219558710802
40.388999999999996,0.0059627654245871025,-0.0059627654245871025
40.39,0.011915685415367716,-0.011915685415367716
40.391,0.01529842693568053,-0.01529842693568053
40.391999999999996,0.015745205318068854,-0.015745205318068854
40.393,0.013407865144226571,-0.013407865144226571
40.394,0.008861122926431366,-0.008861122926431366
40.394999999999996,0.002933007633990499,-0.002933007633990499
40.396,0.0034884242317391365,0.0034884242317391365
40.397,0.009621589759727368,0.009621589759727368
40.397999999999996,0.014895069299064378,0.014895069299064378
40.399,0.018975471722437413,0.018975471722437413
40.4,0.021730499609278586,0.021730499609278586
40.400999999999996,0.02315598368981851,0.02315598368981851
40.402,0.02330216745146974,0.02330216745146974
40.403,0.02222862885478373,0.02222862885478373
40.403999999999996,0.020001738805821213,0.020001738805821213
40.405,0.016729260102260893,0.016729260102260893
40.406,0.012610424788886911,0.012610424788886911
40.407,0.007972255155251065,0.007972255155251065
40.408,0.003266656149270211,0.003266656149270211
40.409,0.0009833467123212091,-0.0009833467123212091
40.41,0.0042806730515548425,-0.0042806730515548425
40.411,0.006269200653162352,-0.006269200653162352
40.412,0.006831352698011968,-0.006831352698011968
40.413,0.0061345961710953505,-0.0061345961710953505
40.414,0.004606661799146671,-0.004606661799146671
40.415,0.0028405203299688305,-0.0028405203299688305
40.416,0.001452291046295757,-0.001452291046295757
40.417,0.0009308963734504851,-0.0009308963734504851
40.418,0.0015219298151248842,-0.0015219298151248842
40.419,0.003178284382303051,-0.003178284382303051
40.42,0.005589583904468615,-0.005589583904468615
40.421,0.008278058568835006,-0.008278058568835006
40.422,0.010728393796483595,-0.010728393796483595
40.423,0.012510126110703101,-0.012510126110703101
40.424,0.013356453240763741,-0.013356453240763741
40.425,0.013180970360170281,-0.013180970360170281
40.426,0.012037473208550052,-0.012037473208550052
40.427,0.0100488997266671,-0.0100488997266671
40.428,0.007341807391886722,-0.007341807391886722
40.429,0.0040183256263347225,-0.0040183256263347225
40.43,0.00017956770467311562,-0.00017956770467311562
40.431,0.004010403925692797,0.004010403925692797
40.431999999999995,0.008253113771807524,0.008253113771807524
40.433,0.012079840741451178,0.012079840741451178
40.434,0.014887136366971938,0.014887136366971938
40.434999999999995,0.016055407036637295,0.016055407036637295
40.436,0.015129086956521964,0.015129086956521964
40.437,0.012006327374288988,0.012006327374288988
40.437999999999995,0.007070261398005547,0.007070261398005547
40.439,0.0012008531118247443,0.0012008531118247443
40.44,0.004363250581928452,-0.004363250581928452
40.440999999999995,0.008297349420932422,-0.008297349420932422
40.442,0.009534744720191456,-0.009534744720191456
40.443,0.007586490500998048,-0.007586490500998048
40.443999999999996,0.0027361662677547792,-0.0027361662677547792
40.445,0.003963567876741652,0.003963567876741652
40.446,0.010911917648789253,0.010911917648789253
40.446999999999996,0.01635245635186444,0.01635245635186444
40.448,0.018834957682893724,0.018834957682893724
40.449,0.01761582450266709,0.01761582450266709
40.449999999999996,0.01287670486359831,0.01287670486359831
40.451,0.005689237337651879,0.005689237337651879
40.452,0.0022728815547744374,-0.0022728815547744374
40.452999999999996,0.009196985752527963,-0.009196985752527963
40.454,0.013636620063776956,-0.013636620063776956
40.455,0.014909279704103126,-0.014909279704103126
40.455999999999996,0.013266360842053734,-0.013266360842053734
40.457,0.009782138115912642,-0.009782138115912642
40.458,0.005993780555450961,-0.005993780555450961
40.458999999999996,0.00340143541494385,-0.00340143541494385
40.46,0.0029819809219097677,-0.0029819809219097677
40.461,0.004867623937702132,-0.004867623937702132
40.461999999999996,0.008291093272881994,-0.008291093272881994
40.463,0.011817550415457212,-0.011817550415457212
40.464,0.01379462491300965,-0.01379462491300965
40.464999999999996,0.012883786347015884,-0.012883786347015884
40.466,0.00850997034795158,-0.00850997034795158
40.467,0.0010903462094998615,-0.0010903462094998615
40.467999999999996,0.008029994493623335,0.008029994493623335
40.469,0.016918591692482374,0.016918591692482374
40.47,0.023571975931935153,0.023571975931935153
40.471,0.026455032906717888,0.026455032906717888
40.472,0.024905306994626952,0.024905306994626952
40.473,0.019287057058882874,0.019287057058882874
40.474,0.010856981413877,0.010856981413877
40.475,0.001390522436280794,0.001390522436280794
40.476,0.007312423684913283,-0.007312423684913283
40.477,0.01389185321025512,-0.01389185321025512
40.478,0.01772679805515122,-0.01772679805515122
40.479,0.01899026051622349,-0.01899026051622349
40.48,0.01845955796668696,-0.01845955796668696
40.481,0.01715762347416902,-0.01715762347416902
40.482,0.01595050145967326,-0.01595050145967326
40.483,0.01523502575794812,-0.01523502575794812
40.484,0.014816922237859348,-0.014816922237859348
40.485,0.014015055238013264,-0.014015055238013264
40.486,0.011953189181890561,-0.011953189181890561
40.487,0.007939890447903341,-0.007939890447903341
40.488,0.0018086486925064757,-0.0018086486925064757
40.489,0.005897838729143508,0.005897838729143508
40.49,0.013967355824536655,0.013967355824536655
40.491,0.02078117643493918,0.02078117643493918
40.492,0.024731144597287192,0.024731144597287192
40.492999999999995,0.024673626882419593,0.024673626882419593
40.494,0.02028961147688925,0.02028961147688925
40.495,0.01224447754101406,0.01224447754101406
40.495999999999995,0.0020953552407823105,0.0020953552407823105
40.497,0.008037380804549896,-0.008037380804549896
40.498,0.015954410107006208,-0.015954410107006208
40.498999999999995,0.019896183951588445,-0.019896183951588445
40.5,0.018965996611414723,-0.018965996611414723
40.501,0.013352448624171955,-0.013352448624171955
40.501999999999995,0.004297509014224042,-0.004297509014224042
40.503,0.006180418240908689,0.006180418240908689
40.504,0.015740074461390446,0.015740074461390446
40.504999999999995,0.022238799275158996,0.022238799275158996
40.506,0.02420005462499714,0.02420005462499714
40.507,0.021121362098881637,0.021121362098881637
40.507999999999996,0.013557133522091714,0.013557133522091714
40.509,0.0029646208753227165,0.0029646208753227165
40.51,0.008644289236999125,-0.008644289236999125
40.510999999999996,0.019159787163199517,-0.019159787163199517
40.512,0.02683155588094596,-0.02683155588094596
40.513,0.030622023879679924,-0.030622023879679924
40.513999999999996,0.030377377170165424,-0.030377377170165424
40.515,0.02678253841299747,-0.02678253841299747
40.516,0.021118006503539132,-0.021118006503539132
40.516999999999996,0.014883776583159501,-0.014883776583159501
40.518,0.009387552053751034,-0.009387552053751034
40.519,0.0054033121496421515,-0.0054033121496421515
40.519999999999996,0.002989259253771538,-0.002989259253771538
40.521,0.0015144713660938996,-0.0015144713660938996
40.522,0.00010990333781329641,0.00010990333781329641
40.522999999999996,0.003053559725243864,0.003053559725243864
40.524,0.008144334831906271,0.008144334831906271
40.525,0.015517442620458979,0.015517442620458979
40.525999999999996,0.024441137590341968,0.024441137590341968
40.527,0.033381498139715436,0.033381498139715436
40.528,0.04030780327648022,0.04030780327648022
40.528999999999996,0.04317452643855236,0.04317452643855236
40.53,0.040463646344847254,0.040463646344847254
40.531,0.03164672297779313,0.03164672297779313
40.532,0.017438260770455575,0.017438260770455575
40.533,0.00024088094239192736,-0.00024088094239192736
40.534,0.018599712277472875,-0.018599712277472875
40.535,0.03454486112408291,-0.03454486112408291
40.536,0.045348404999259205,-0.045348404999259205
40.537,0.049253174930310485,-0.049253174930310485
40.538,0.045863549619447885,-0.045863549619447885
40.539,0.03622076945723059,-0.03622076945723059
40.54,0.022540695640941168,-0.022540695640941168
40.541,0.007678244126578154,-0.007678244126578154
40.542,0.005546575773836156,0.005546575773836156
40.543,0.014990237915394753,0.014990237915394753
40.544,0.019633185927020184,0.019633185927020184
40.545,0.0197234876145181,0.0197234876145181
40.546,0.016588005508347124,0.016588005508347124
40.547,0.012170839644588134,0.012170839644588134
40.548,0.00843061495195676,0.00843061495195676
40.549,0.00676398522312259,0.00676398522312259
40.55,0.007612930621091829,0.007612930621091829
40.551,0.010360944278189116,0.010360944278189116
40.552,0.013542604270693865,0.013542604270693865
40.553,0.015304485199816779,0.015304485199816779
40.554,0.01398652293917861,0.01398652293917861
40.555,0.008660419344165688,0.008660419344165688
40.556,0.0005260141483828956,-0.0005260141483828956
40.556999999999995,0.012296311877769339,-0.012296311877769339
40.558,0.024502846421602602,-0.024502846421602602
40.559,0.03462877940221448,-0.03462877940221448
40.559999999999995,0.040403433923461705,-0.040403433923461705
40.561,0.04037030684429824,-0.04037030684429824
40.562,0.03426032642314743,-0.03426032642314743
40.562999999999995,0.023075152758070577,-0.023075152758070577
40.564,0.008861661628533597,-0.008861661628533597
40.565,0.005761537360755261,0.005761537360755261
40.565999999999995,0.01820277957101364,0.01820277957101364
40.567,0.026470154226227168,0.026470154226227168
40.568,0.029579088220093495,0.029579088220093495
40.568999999999996,0.027702594883500107,0.027702594883500107
40.57,0.022041075429895324,0.022041075429895324
40.571,0.014460260553027888,0.014460260553027888
40.571999999999996,0.007001295301372747,0.007001295301372747
40.573,0.0013923107336930027,0.0013923107336930027
40.574,0.001318977085501848,-0.001318977085501848
40.574999999999996,0.0009323842536148662,-0.0009323842536148662
40.576,0.0019590827607960885,0.0019590827607960885
40.577,0.006207168770510132,0.006207168770510132
40.577999999999996,0.010448203772968028,0.010448203772968028
40.579,0.013445414925244552,0.013445414925244552
40.58,0.014345674174961392,0.014345674174961392
40.580999999999996,0.012797560288870932,0.012797560288870932
40.582,0.008924091700878,0.008924091700878
40.583,0.0031868656421055203,0.0031868656421055203
40.583999999999996,0.0037942479014761886,-0.0037942479014761886
40.585,0.011397561137119669,-0.011397561137119669
40.586,0.019082716924447594,-0.019082716924447594
40.586999999999996,0.026385381378739258,-0.026385381378739258
40.588,0.03284586706058816,-0.03284586706058816
40.589,0.03792184164292842,-0.03792184164292842
40.589999999999996,0.04094367198470212,-0.04094367198470212
40.591,0.041156840663826036,-0.041156840663826036
40.592,0.03786364119351034,-0.03786364119351034
40.592999999999996,0.030636605392104714,-0.030636605392104714
40.594,0.019542333908116803,-0.019542333908116803
40.595,0.005298675464999253,-0.005298675464999253
40.596,0.010702754098115838,0.010702754098115838
40.597,0.026543944503081465,0.026543944503081465
40.598,0.04008527006872988,0.04008527006872988
40.599,0.049366625083003726,0.049366625083003726
40.6,0.05300962246058438,0.05300962246058438
40.601,0.05051716030364013,0.05051716030364013
40.602,0.04238819506546215,0.04238819506546215
40.603,0.0300121006864243,0.0300121006864243
40.604,0.015365735566606382,0.015365735566606382
40.605,0.0005902510546770567,0.0005902510546770567
40.606,0.01244240604364803,-0.01244240604364803
40.607,0.02246170036641962,-0.02246170036641962
40.608,0.028948504722543594,-0.028948504722543594
40.609,0.03207618323419239,-0.03207618323419239
40.61,0.03247765261737943,-0.03247765261737943
40.611,0.03092357529883643,-0.03092357529883643
40.612,0.02802026787797698,-0.02802026787797698
40.613,0.02402513884528788,-0.02402513884528788
40.614,0.018835757854082348,-0.018835757854082348
40.615,0.012149089593988636,-0.012149089593988636
40.616,0.0037289733842772697,-0.0037289733842772697
40.617,0.00631845730541433,0.00631845730541433
40.617999999999995,0.017367192038619104,0.017367192038619104
40.619,0.028267455153136698,0.028267455153136698
40.62,0.037535027036423044,0.037535027036423044
40.620999999999995,0.04368832800262841,0.04368832800262841
40.622,0.04563534663837052,0.04563534663837052
40.623,0.04299015861366709,0.04299015861366709
40.623999999999995,0.03621491454531972,0.03621491454531972
40.625,0.026533805999902346,0.026533805999902346
40.626,0.015635300587092157,0.015635300587092157
40.626999999999995,0.005245817232282219,0.005245817232282219
40.628,0.003299765050240351,-0.003299765050240351
40.629,0.00936214829718569,-0.00936214829718569
40.629999999999995,0.013085389178027831,-0.013085389178027831
40.631,0.015245106972029882,-0.015245106972029882
40.632,0.016909778945165915,-0.016909778945165915
40.632999999999996,0.019027603013691496,-0.019027603013691496
40.634,0.022075274471902436,-0.022075274471902436
40.635,0.025884469926102334,-0.025884469926102334
40.635999999999996,0.029702855073373922,-0.029702855073373922
40.637,0.03246787317085479,-0.03246787317085479
40.638,0.033199191662978994,-0.033199191662978994
40.638999999999996,0.03137379302929973,-0.03137379302929973
40.64,0.02715101542315334,-0.02715101542315334
40.641,0.02136335348561345,-0.02136335348561345
40.641999999999996,0.015267352823207027,-0.015267352823207027
40.643,0.010131812180201713,-0.010131812180201713
40.644,0.006799874065209425,-0.006799874065209425
40.644999999999996,0.005376615539949075,-0.005376615539949075
40.646,0.005157846436145467,-0.005157846436145467
40.647,0.004839237804229533,-0.004839237804229533
40.647999999999996,0.0029518345512413347,-0.0029518345512413347
40.649,0.0016090558136188594,0.0016090558136188594
40.65,0.009132831385092155,0.009132831385092155
40.650999999999996,0.018874887490942436,0.018874887490942436
40.652,0.02915651128973644,0.02915651128973644
40.653,0.03777065639695827,0.03777065639695827
40.653999999999996,0.04258235222998895,0.04258235222998895
40.655,0.0421464269614381,0.0421464269614381
40.656,0.03615377067061389,0.03615377067061389
40.657,0.02556547214656918,0.02556547214656918
40.658,0.012387595433111801,0.012387595433111801
40.659,0.0008509575926284133,-0.0008509575926284133
40.66,0.01176380240128198,-0.01176380240128198
40.661,0.018718218666058828,-0.018718218666058828
40.662,0.021212481899294883,-0.021212481899294883
40.663,0.019913481479818206,-0.019913481479818206
40.664,0.016354748080105595,-0.016354748080105595
40.665,0.012399478565042529,-0.012399478565042529
40.666,0.009642882992715972,-0.009642882992715972
40.667,0.008941460125970187,-0.008941460125970187
40.668,0.010210328201192219,-0.010210328201192219
40.669,0.012539522634906285,-0.012539522634906285
40.67,0.014576157272779845,-0.014576157272779845
40.671,0.015035439854866287,-0.015035439854866287
40.672,0.013166482279704418,-0.013166482279704418
40.673,0.009019588892999588,-0.009019588892999588
40.674,0.003432044504415618,-0.003432044504415618
40.675,0.002254934733124293,0.002254934733124293
40.676,0.006646559782451649,0.006646559782451649
40.677,0.00875764185789958,0.00875764185789958
40.678,0.008333608566387152,0.008333608566387152
40.679,0.005925240273670399,0.005925240273670399
40.68,0.0026970416921787287,0.0026970416921787287
40.681,3.769923952900063e-05,3.769923952900063e-05
40.681999999999995,0.0008953400357655629,-0.0008953400357655629
40.683,0.0004531223110779142,0.0004531223110779142
40.684,0.003867897451648637,0.003867897451648637
40.684999999999995,0.008446716239973348,0.008446716239973348
40.686,0.012899952066800663,0.012899952066800663
40.687,0.01596253693338188,0.01596253693338188
40.687999999999995,0.01678147070933427,0.01678147070933427
40.689,0.015156113934423862,0.015156113934423862
40.69,0.011562012504801426,0.011562012504801426
40.690999999999995,0.006962876411370844,0.006962876411370844
40.692,0.002484044663045405,0.002484044663045405
40.693,0.0009383674093866117,-0.0009383674093866117
40.693999999999996,0.00281774339496841,-0.00281774339496841
40.695,0.0032094270624363594,-0.0032094270624363594
40.696,0.0026194112737180026,-0.0026194112737180026
40.696999999999996,0.001776105081148456,-0.001776105081148456
40.698,0.001354820691784653,-0.001354820691784653
40.699,0.0017537895277274632,-0.0017537895277274632
40.699999999999996,0.0029947667226262647,-0.0029947667226262647
40.701,0.004771559908633417,-0.004771559908633417
40.702,0.006614962662287318,-0.006614962662287318
40.702999999999996,0.008102378699671512,-0.008102378699671512
40.704,0.00902860131909616,-0.00902860131909616
40.705,0.009473747396509738,-0.009473747396509738
40.705999999999996,0.009746798883635607,-0.009746798883635607
40.707,0.010232109182509089,-0.010232109182509089
40.708,0.011203252598406297,-0.011203252598406297
40.708999999999996,0.012680211920543144,-0.012680211920543144
40.71,0.014388214210789018,-0.014388214210789018
40.711,0.01583652382298682,-0.01583652382298682
40.711999999999996,0.01648837803449505,-0.01648837803449505
40.713,0.015956802446052534,-0.015956802446052534
40.714,0.01414917091077259,-0.01414917091077259
40.714999999999996,0.011301000643490662,-0.011301000643490662
40.716,0.007880679533015916,-0.007880679533015916
40.717,0.004396859731847519,-0.004396859731847519
40.717999999999996,0.001180711372206724,-0.001180711372206724
40.719,0.0017694186024061647,0.0017694186024061647
40.72,0.004810186872411353,0.004810186872411353
40.721,0.008516227691642966,0.008516227691642966
40.722,0.013416130511091149,0.013416130511091149
40.723,0.01968552653443877,0.01968552653443877
40.724,0.026908116746998403,0.026908116746998403
40.725,0.03400577519802169,0.03400577519802169
40.726,0.03939314639641616,0.03939314639641616
40.727,0.04134289528089497,0.04134289528089497
40.728,0.038475961302274195,0.038475961302274195
40.729,0.03023994367245814,0.03023994367245814
40.73,0.017226074978664754,0.017226074978664754
40.731,0.0012080375358725643,0.0012080375358725643
40.732,0.01514266295790693,-0.01514266295790693
40.733,0.028818975403074782,-0.028818975403074782
40.734,0.037187793986572876,-0.037187793986572876
40.735,0.038663524873500055,-0.038663524873500055
40.736,0.033159229428398954,-0.033159229428398954
40.737,0.022178600934226148,-0.022178600934226148
40.738,0.008503423843544461,-0.008503423843544461
40.739,0.004459848019838923,0.004459848019838923
40.74,0.013514342726817575,0.013514342726817575
40.741,0.01647183395465708,0.01647183395465708
40.742,0.012702602715517514,0.012702602715517514
40.742999999999995,0.0032837957854365356,0.0032837957854365356
40.744,0.009299761303071795,-0.009299761303071795
40.745,0.021825963133302966,-0.021825963133302966
40.745999999999995,0.03119632535882458,-0.03119632535882458
40.747,0.03525057228902296,-0.03525057228902296
40.748,0.033307833971369175,-0.033307833971369175
40.748999999999995,0.026282232788390862,-0.026282232788390862
40.75,0.016341022707158592,-0.016341022707158592
40.751,0.0062057846718557245,-0.0062057846718557245
40.751999999999995,0.0016968463733539202,0.0016968463733539202
40.753,0.00598085170764122,0.00598085170764122
40.754,0.006715541087787549,0.006715541087787549
40.754999999999995,0.005377388543948744,0.005377388543948744
40.756,0.0043448445288742435,0.0043448445288742435
40.757,0.006081944884873309,0.006081944884873309
40.757999999999996,0.012256379354955733,0.012256379354955733
40.759,0.023065695415289248,0.023065695415289248
40.76,0.036990566684132746,0.036990566684132746
40.760999999999996,0.051070609743638105,0.051070609743638105
40.762,0.061641792651761756,0.061641792651761756
40.763,0.06533213962923784,0.06533213962923784
40.763999999999996,0.060028427845277746,0.060028427845277746
40.765,0.04552830869212403,0.04552830869212403
40.766,0.023681195254222333,0.023681195254222333
40.766999999999996,0.002028475535314871,-0.002028475535314871
40.768,0.027336034682946743,-0.027336034682946743
40.769,0.04823969638245393,-0.04823969638245393
40.769999999999996,0.06192892512275696,-0.06192892512275696
40.771,0.06733558546871317,-0.06733558546871317
40.772,0.06516719436546586,-0.06516719436546586
40.772999999999996,0.05744555837023964,-0.05744555837023964
40.774,0.046727285452256656,-0.046727285452256656
40.775,0.03527547562380973,-0.03527547562380973
40.775999999999996,0.02445443487380665,-0.02445443487380665
40.777,0.014531574928795353,-0.014531574928795353
40.778,0.004923047436502962,-0.004923047436502962
40.778999999999996,0.0052372706599441805,0.0052372706599441805
40.78,0.01643813468863145,0.01643813468863145
40.781,0.028302188178021527,0.028302188178021527
40.782,0.039464934332108396,0.039464934332108396
40.783,0.04788233729594267,0.04788233729594267
40.784,0.05146858320275317,0.05146858320275317
40.785,0.0488393060347388,0.0488393060347388
40.786,0.03988834364102754,0.03988834364102754
40.787,0.02597643797805089,0.02597643797805089
40.788,0.00964242102398454,0.00964242102398454
40.789,0.00608408454165906,-0.00608408454165906
40.79,0.018544175967324546,-0.018544175967324546
40.791,0.0261920272455699,-0.0261920272455699
40.792,0.028958927402814232,-0.028958927402814232
40.793,0.02810823702172943,-0.02810823702172943
40.794,0.025629927398778,-0.025629927398778
40.795,0.02339092692223438,-0.02339092692223438
40.796,0.022352433561718635,-0.022352433561718635
40.797,0.022150836969202024,-0.022150836969202024
40.798,0.02121602353529147,-0.02121602353529147
40.799,0.01740956782756278,-0.01740956782756278
40.8,0.00897159946034704,-0.00897159946034704
40.801,0.00456161062493442,0.00456161062493442
40.802,0.021818743714338628,0.021818743714338628
40.803,0.03966940188181766,0.03966940188181766
40.804,0.0539476612565138,0.0539476612565138
40.805,0.060629689477077295,0.060629689477077295
40.806,0.057101080728111986,0.057101080728111986
40.806999999999995,0.04309590397464589,0.04309590397464589
40.808,0.02097626851244911,0.02097626851244911
40.809,0.004775972077104288,-0.004775972077104288
40.809999999999995,0.028730055414455034,-0.028730055414455034
40.811,0.045994169239739584,-0.045994169239739584
40.812,0.05356320596699245,-0.05356320596699245
40.812999999999995,0.051106039120381225,-0.051106039120381225
40.814,0.040947271361892995,-0.040947271361892995
40.815,0.02725548305967265,-0.02725548305967265
40.815999999999995,0.014703806265967933,-0.014703806265967933
40.817,0.007034630264700274,-0.007034630264700274
40.818,0.00598322820124972,-0.00598322820124972
40.818999999999996,0.01088820455935229,-0.01088820455935229
40.82,0.019083766639321532,-0.019083766639321532
40.821,0.026909487909897153,-0.026909487909897153
40.821999999999996,0.030975353024501908,-0.030975353024501908
40.823,0.02924943705453702,-0.02924943705453702
40.824,0.02161405125866597,-0.02161405125866597
40.824999999999996,0.009733473431019657,-0.009733473431019657
40.826,0.003678332626959216,0.003678332626959216
40.827,0.015894787825342097,0.015894787825342097
40.827999999999996,0.0251267642431774,0.0251267642431774
40.829,0.03103956127623488,0.03103956127623488
40.83,0.034660083113402546,0.034660083113402546
40.830999999999996,0.03772827620738575,0.03772827620738575
40.832,0.04175545443474593,0.04175545443474593
40.833,0.04716339293516242,0.04716339293516242
40.833999999999996,0.05285199764331238,0.05285199764331238
40.835,0.056389133027239184,0.056389133027239184
40.836,0.05478877209950887,0.05478877209950887
40.836999999999996,0.04562413782010817,0.04562413782010817
40.838,0.02808940303020497,0.02808940303020497
40.839,0.003624875154373192,0.003624875154373192
40.839999999999996,0.0241428029899648,-0.0241428029899648
40.841,0.050168660844737055,-0.050168660844737055
40.842,0.06925237803837886,-0.06925237803837886
40.842999999999996,0.07741627977209675,-0.07741627977209675
40.844,0.07297771861476883,-0.07297771861476883
40.845,0.056992960500070224,-0.056992960500070224
40.846,0.03295079679129723,-0.03295079679129723
40.847,0.005829121448528253,-0.005829121448528253
40.848,0.019182345385036756,0.019182345385036756
40.849,0.03790612359594391,0.03790612359594391
40.85,0.0480054540084889,0.0480054540084889
40.851,0.04922579453624544,0.04922579453624544
40.852,0.04305778970410817,0.04305778970410817
40.853,0.03200811860811207,0.03200811860811207
40.854,0.018762094749107366,0.018762094749107366
40.855,0.005512666153904459,0.005512666153904459
40.856,0.006371777870195672,-0.006371777870195672
40.857,0.016317430313979597,-0.016317430313979597
40.858,0.024265640790133738,-0.024265640790133738
40.859,0.030329742932785182,-0.030329742932785182
40.86,0.03456170261418867,-0.03456170261418867
40.861,0.036918010472892185,-0.036918010472892185
40.862,0.03739946357980908,-0.03739946357980908
40.863,0.03624600443895839,-0.03624600443895839
40.864,0.03403666392755622,-0.03403666392755622
40.865,0.031589348242249446,-0.031589348242249446
40.866,0.029656173181482625,-0.029656173181482625
40.867,0.0285227400755037,-0.0285227400755037
40.867999999999995,0.027692915449388386,-0.027692915449388386
40.869,0.025837719190686184,-0.025837719190686184
40.87,0.021101812806492506,-0.021101812806492506
40.870999999999995,0.0117223346914895,-0.0117223346914895
40.872,0.003224351679586648,0.003224351679586648
40.873,0.02321445238561428,0.02321445238561428
40.873999999999995,0.04605939566572228,0.04605939566572228
40.875,0.06821769107145943,0.06821769107145943
40.876,0.0855958914305823,0.0855958914305823
40.876999999999995,0.09461855060513262,0.09461855060513262
40.878,0.0932333318729498,0.0932333318729498
40.879,0.08151690104459525,0.08151690104459525
40.879999999999995,0.06166700091460635,0.06166700091460635
40.881,0.03736859008154255,0.03736859008154255
40.882,0.012736914870555865,0.012736914870555865
40.882999999999996,0.008810195073691485,-0.008810195073691485
40.884,0.0253717111243674,-0.0253717111243674
40.885,0.03680505074355441,-0.03680505074355441
40.885999999999996,0.044330497223205374,-0.044330497223205374
40.887,0.049674315773322895,-0.049674315773322895
40.888,0.054100420959319065,-0.054100420959319065
40.888999999999996,0.05772574764781163,-0.05772574764781163
40.89,0.05940959582665272,-0.05940959582665272
40.891,0.057286103108354296,-0.057286103108354296
40.891999999999996,0.04975070862859039,-0.04975070862859039
40.893,0.03651264311374067,-0.03651264311374067
40.894,0.019265123527850776,-0.019265123527850776
40.894999999999996,0.0016342716068075862,-0.0016342716068075862
40.896,0.011683582846663269,0.011683582846663269
40.897,0.016382417563154242,0.016382417563154242
40.897999999999996,0.010140523168104388,0.010140523168104388
40.899,0.006217437892672086,-0.006217437892672086
40.9,0.02846030410066205,-0.02846030410066205
40.900999999999996,0.04979110896768942,-0.04979110896768942
40.902,0.06262544187649893,-0.06262544187649893
40.903,0.06081260797750427,-0.06081260797750427
40.903999999999996,0.04161997975584486,-0.04161997975584486
40.905,0.006834099010584609,-0.006834099010584609
40.906,0.03741802239494216,0.03741802239494216
40.907,0.08213267155254973,0.08213267155254973
40.908,0.11777665757872859,0.11777665757872859
40.909,0.13682840211249636,0.13682840211249636
40.91,0.13575183673334912,0.13575183673334912
40.911,0.11581391461025264,0.11581391461025264
40.912,0.08251776630548593,0.08251776630548593
40.913,0.043856689061551914,0.043856689061551914
40.914,0.007957576771963917,0.007957576771963917
40.915,0.01914223397128872,-0.01914223397128872
40.916,0.0349085680512688,-0.0349085680512688
40.917,0.04052312393709053,-0.04052312393709053
40.918,0.039907485134423305,-0.039907485134423305
40.919,0.03795661760767893,-0.03795661760767893
40.92,0.038620663116454255,-0.038620663116454255
40.921,0.04349281429675494,-0.04349281429675494
40.922,0.051358607482532674,-0.051358607482532674
40.923,0.0588132309161929,-0.0588132309161929
40.924,0.061681278646516305,-0.061681278646516305
40.925,0.056705320829293825,-0.056705320829293825
40.926,0.04289414005698413,-0.04289414005698413
40.927,0.022058440628582466,-0.022058440628582466
40.928,0.00164237919531196,0.00164237919531196
40.929,0.02297099084171488,0.02297099084171488
40.93,0.03725079581172793,0.03725079581172793
40.931,0.041808082915297015,0.041808082915297015
40.931999999999995,0.03673644897395579,0.03673644897395579
40.933,0.024748136283226172,0.024748136283226172
40.934,0.010195050613158093,0.010195050613158093
40.934999999999995,0.0023799669726200477,-0.0023799669726200477
40.936,0.009658109051095293,-0.009658109051095293
40.937,0.01045841915912318,-0.01045841915912318
40.937999999999995,0.0058782504944330785,-0.0058782504944330785
40.939,0.0013324074424437861,0.0013324074424437861
40.94,0.007893164762789714,0.007893164762789714
40.940999999999995,0.011188301033458083,0.011188301033458083
40.942,0.01011394803990757,0.01011394803990757
40.943,0.005307937266496966,0.005307937266496966
40.943999999999996,0.001268943875156836,-0.001268943875156836
40.945,0.007196189177319192,-0.007196189177319192
40.946,0.010549459623365056,-0.010549459623365056
40.946999999999996,0.01058647571483751,-0.01058647571483751
40.948,0.0079237720945339,-0.0079237720945339
40.949,0.004171209086008525,-0.004171209086008525
40.949999999999996,0.00119956681929406,-0.00119956681929406
40.951,0.00034929486968214856,-0.00034929486968214856
40.952,0.0018983440471943467,-0.0018983440471943467
40.952999999999996,0.004994228774100807,-0.004994228774100807
40.954,0.008066405636894997,-0.008066405636894997
40.955,0.009543700686586255,-0.009543700686586255
40.955999999999996,0.008581215425974602,-0.008581215425974602
40.957,0.005497086836887343,-0.005497086836887343
40.958,0.0017322174323090283,-0.0017322174323090283
40.958999999999996,0.0006680717783090213,0.0006680717783090213
40.96,0.00013637446524047622,-0.00013637446524047622
40.961,0.004984993787003379,-0.004984993787003379
40.961999999999996,0.013244029596656198,-0.013244029596656198
40.963,0.022853129631132115,-0.022853129631132115
40.964,0.030898642902930096,-0.030898642902930096
40.964999999999996,0.03452707371658927,-0.03452707371658927
40.966,0.03188395081753219,-0.03188395081753219
40.967,0.02274859515318279,-0.02274859515318279
40.967999999999996,0.008639719128588389,-0.008639719128588389
40.969,0.007647346670695711,0.007647346670695711
40.97,0.02291108656947737,0.02291108656947737
40.971,0.03451936031779548,0.03451936031779548
40.972,0.0411544815791763,0.0411544815791763
40.973,0.04307879988878089,0.04307879988878089
40.974,0.041845679461506684,0.041845679461506684
40.975,0.03957853694100206,0.03957853694100206
40.976,0.0380910123319319,0.0380910123319319
40.977,0.03817125207519481,0.03817125207519481
40.978,0.03928651540090397,0.03928651540090397
40.979,0.03980694146958083,0.03980694146958083
40.98,0.03765752343094112,0.03765752343094112
40.981,0.031153892131286557,0.031153892131286557
40.982,0.019714790335422103,0.019714790335422103
40.983,0.004192807113096243,0.004192807113096243
40.984,0.0132946992927495,-0.0132946992927495
40.985,0.02997272281337433,-0.02997272281337433
40.986,0.04323782640904749,-0.04323782640904749
40.987,0.05141936202295369,-0.05141936202295369
40.988,0.05421287581657363,-0.05421287581657363
40.989,0.052647018890143324,-0.052647018890143324
40.99,0.048611732675640645,-0.048611732675640645
40.991,0.04412696616390375,-0.04412696616390375
40.992,0.0406147567949658,-0.0406147567949658
40.992999999999995,0.038426218558779195,-0.038426218558779195
40.994,0.03677655861951268,-0.03677655861951268
40.995,0.034093965854349206,-0.034093965854349206
40.995999999999995,0.028645934034523892,-0.028645934034523892
40.997,0.019218757141472278,-0.019218757141472278
40.998,0.005620129434806205,-0.005620129434806205
40.998999999999995,0.011152077606304567,0.011152077606304567
41.0,0.029110601723827758,0.029110601723827758
41.001,0.04576153700843914,0.04576153700843914
41.001999999999995,0.05869921130559092,0.05869921130559092
41.003,0.06612726043900635,0.06612726043900635
41.004,0.06716882098211968,0.06716882098211968
41.004999999999995,0.06191763113686967,0.06191763113686967
41.006,0.05127325631680879,0.05127325631680879
41.007,0.03666305577374339,0.03666305577374339
41.007999999999996,0.01976247479146996,0.01976247479146996
41.009,0.002287688424963842,0.002287688424963842
41.01,0.014126439556331753,-0.014126439556331753
41.010999999999996,0.028003424456247608,-0.028003424456247608
41.012,0.03811755540723687,-0.03811755540723687
41.013,0.04363974701462905,-0.04363974701462905
41.013999999999996,0.044322477458229974,-0.044322477458229974
41.015,0.040653825527161826,-0.040653825527161826
41.016,0.03388250985470857,-0.03388250985470857
41.016999999999996,0.025835365619001047,-0.025835365619001047
41.018,0.01851552738319347,-0.01851552738319347
41.019,0.01356121389492289,-0.01356121389492289
41.019999999999996,0.011724465076047668,-0.011724465076047668
41.021,0.012559473946715555,-0.012559473946715555
41.022,0.01446991121454802,-0.01446991121454802
41.022999999999996,0.015158647843280111,-0.015158647843280111
41.024,0.01238337837097124,-0.01238337837097124
41.025,0.004796914059612213,-0.004796914059612213
41.025999999999996,0.007409713139529731,0.007409713139529731
41.027,0.02230966882013086,0.02230966882013086
41.028,0.03661077588541099,0.03661077588541099
41.028999999999996,0.046534230641877006,0.046534230641877006
41.03,0.048962298062128054,0.048962298062128054
41.031,0.042502110414069136,0.042502110414069136
41.032,0.028109529797873047,0.028109529797873047
41.033,0.009033371599397289,0.009033371599397289
41.034,0.009955501749071715,-0.009955501749071715
41.035,0.023857054686491106,-0.023857054686491106
41.036,0.028885534281438488,-0.028885534281438488
41.037,0.023625508299161616,-0.023625508299161616
41.038,0.009533731878530835,-0.009533731878530835
41.039,0.009389387240135615,0.009389387240135615
41.04,0.027683458205369695,0.027683458205369695
41.041,0.03995857244781671,0.03995857244781671
41.042,0.04242409356888959,0.04242409356888959
41.043,0.03396517067434456,0.03396517067434456
41.044,0.016453011502681546,0.016453011502681546
41.045,0.005793308301831759,-0.005793308301831759
41.046,0.027222411684585383,-0.027222411684585383
41.047,0.04257674777830959,-0.04257674777830959
41.048,0.048283420119575024,-0.048283420119575024
41.049,0.043321980266940174,-0.043321980266940174
41.05,0.029353240635438753,-0.029353240635438753
41.051,0.010120296517336558,-0.010120296517336558
41.052,0.009657453013058308,0.009657453013058308
41.053,0.025547727505623025,0.025547727505623025
41.054,0.034462580665215736,0.034462580665215736
41.055,0.035241594072204285,0.035241594072204285
41.056,0.028659757347548796,0.028659757347548796
41.056999999999995,0.016937472417634127,0.016937472417634127
41.058,0.0029639467682204632,0.0029639467682204632
41.059,0.010502894705989496,-0.010502894705989496
41.059999999999995,0.021433451341227986,-0.021433451341227986
41.061,0.028795623516833367,-0.028795623516833367
41.062,0.032495757247793466,-0.032495757247793466
41.062999999999995,0.03309329277192018,-0.03309329277192018
41.064,0.03143969957440678,-0.03143969957440678
41.065,0.028378855398447905,-0.028378855398447905
41.065999999999995,0.02458573808487233,-0.02458573808487233
41.067,0.02054381973015538,-0.02054381973015538
41.068,0.016601834762234556,-0.016601834762234556
41.068999999999996,0.013029922489511543,-0.013029922489511543
41.07,0.010017300288077294,-0.010017300288077294
41.071,0.007603820243143619,-0.007603820243143619
41.071999999999996,0.005589953538071017,-0.005589953538071017
41.073,0.0034980890739379463,-0.0034980890739379463
41.074,0.0006478317254800433,-0.0006478317254800433
41.074999999999996,0.0036381791294925864,0.0036381791294925864
41.076,0.009744702923219427,0.009744702923219427
41.077,0.017490334433276425,0.017490334433276425
41.077999999999996,0.025987522747238586,0.025987522747238586
41.079,0.0337245430042152,0.0337245430042152
41.08,0.03888804198660018,0.03888804198660018
41.080999999999996,0.03985771276964395,0.03985771276964395
41.082,0.035732023782026175,0.035732023782026175
41.083,0.026714291289934355,0.026714291289934355
41.083999999999996,0.014216214880124318,0.014216214880124318
41.085,0.0006157019888329318,0.0006157019888329318
41.086,0.011287053362062724,-0.011287053362062724
41.086999999999996,0.01897192993434447,-0.01897192993434447
41.088,0.020858743902049882,-0.020858743902049882
41.089,0.016728547030735473,-0.016728547030735473
41.089999999999996,0.0077778456461136914,-0.0077778456461136914
41.091,0.0037132248984785648,0.0037132248984785648
41.092,0.015001031375227245,0.015001031375227245
41.092999999999996,0.02360264614503398,0.02360264614503398
41.094,0.02791112233986703,0.02791112233986703
41.095,0.027526489454277606,0.027526489454277606
41.096,0.02321842899442959,0.02321842899442959
41.097,0.016551848960672397,0.016551848960672397
41.098,0.00930903724749907,0.00930903724749907
41.099,0.0028999067125922216,0.0028999067125922216
41.1,0.002051861896076663,-0.002051861896076663
41.101,0.005821315016133452,-0.005821315016133452
41.102,0.009367736223137569,-0.009367736223137569
41.103,0.013872783093424422,-0.013872783093424422
41.104,0.02018879567597752,-0.02018879567597752
41.105,0.02838223950371257,-0.02838223950371257
41.106,0.037527091813293355,-0.037527091813293355
41.107,0.04582576841964182,-0.04582576841964182
41.108,0.05103508190742901,-0.05103508190742901
41.109,0.0510817834124365,-0.0510817834124365
41.11,0.04469342750134956,-0.04469342750134956
41.111,0.03186189268474028,-0.03186189268474028
41.112,0.014000407019608021,-0.014000407019608021
41.113,0.00626260671431316,0.00626260671431316
41.114,0.025611407039166475,0.025611407039166475
41.115,0.04076411001547729,0.04076411001547729
41.116,0.04920616907676565,0.04920616907676565
41.117,0.04975059105846498,0.04975059105846498
41.117999999999995,0.042783568282608576,0.042783568282608576
41.119,0.030135376855598136,0.030135376855598136
41.12,0.014613110343198303,0.014613110343198303
41.120999999999995,0.0006812704094799995,-0.0006812704094799995
41.122,0.013069875693084475,-0.013069875693084475
41.123,0.020870127594900836,-0.020870127594900836
41.123999999999995,0.023676085897648604,-0.023676085897648604
41.125,0.022288579501339143,-0.022288579501339143
41.126,0.018330524309883783,-0.018330524309883783
41.126999999999995,0.013671176610999553,-0.013671176610999553
41.128,0.009835135743483579,-0.009835135743483579
41.129,0.007572884710216888,-0.007572884710216888
41.129999999999995,0.00671807627078529,-0.00671807627078529
41.131,0.006366758532556892,-0.006366758532556892
41.132,0.005311681591570985,-0.005311681591570985
41.132999999999996,0.0025820566487532006,-0.0025820566487532006
41.134,0.0020975555562996427,0.0020975555562996427
41.135,0.008092664356146625,0.008092664356146625
41.135999999999996,0.013974501908149783,0.013974501908149783
41.137,0.017942673961372696,0.017942673961372696
41.138,0.018425382904478944,0.018425382904478944
41.138999999999996,0.014660121600424802,0.014660121600424802
41.14,0.007053257348010173,0.007053257348010173
41.141,0.002819504284282653,-0.002819504284282653
41.141999999999996,0.012596011275711057,-0.012596011275711057
41.143,0.0197900498354956,-0.0197900498354956
41.144,0.022529716974012973,-0.022529716974012973
41.144999999999996,0.02013254605070379,-0.02013254605070379
41.146,0.01332186793553779,-0.01332186793553779
41.147,0.004001174575848001,-0.004001174575848001
41.147999999999996,0.005350939014288981,0.005350939014288981
41.149,0.012471781272527504,0.012471781272527504
41.15,0.016027859115914526,0.016027859115914526
41.150999999999996,0.016004465817711127,0.016004465817711127
41.152,0.013629162034615162,0.013629162034615162
41.153,0.010844454413341366,0.010844454413341366
41.153999999999996,0.009504589862478083,0.009504589862478083
41.155,0.01057744726359306,0.01057744726359306
41.156,0.013645409530875511,0.013645409530875511
41.157,0.016909600886410265,0.016909600886410265
41.158,0.01773577986621719,0.01773577986621719
41.159,0.013591047194165042,0.013591047194165042
41.16,0.003072446556107849,0.003072446556107849
41.161,0.013325494183079418,-0.013325494183079418
41.162,0.032993986205034416,-0.032993986205034416
41.163,0.051668867522346194,-0.051668867522346194
41.164,0.06447450762971708,-0.06447450762971708
41.165,0.06726569031192947,-0.06726569031192947
41.166,0.057869141900299084,-0.057869141900299084
41.167,0.036839775598430234,-0.036839775598430234
41.168,0.00748405517290716,-0.00748405517290716
41.169,0.024877667076292954,0.024877667076292954
41.17,0.054206067006617266,0.054206067006617266
41.171,0.07522153842674152,0.07522153842674152
41.172,0.08464052446452158,0.08464052446452158
41.173,0.0818244055395358,0.0818244055395358
41.174,0.06868337223885213,0.06868337223885213
41.175,0.048909718325911934,0.048909718325911934
41.176,0.02681562124912724,0.02681562124912724
41.177,0.006155454346167135,0.006155454346167135
41.178,0.010709282593632654,-0.010709282593632654
41.179,0.02308146500485703,-0.02308146500485703
41.18,0.03161758368317121,-0.03161758368317121
41.181,0.037612790128549144,-0.037612790128549144
41.181999999999995,0.042184461439493254,-0.042184461439493254
41.183,0.045669697722446646,-0.045669697722446646
41.184,0.04745300379074006,-0.04745300379074006
41.184999999999995,0.04626844751691804,-0.04626844751691804
41.186,0.04083932999752906,-0.04083932999752906
41.187,0.03059294500111428,-0.03059294500111428
41.187999999999995,0.016162031374472505,-0.016162031374472505
41.189,0.0005347583024683576,0.0005347583024683576
41.19,0.01668479389745105,0.01668479389745105
41.190999999999995,0.029323183801806145,0.029323183801806145
41.192,0.036173054202421305,0.036173054202421305
41.193,0.036296013167621266,0.036296013167621266
41.193999999999996,0.03033110699610025,0.03033110699610025
41.195,0.02024592320329201,0.02024592320329201
41.196,0.008694239793151672,0.008694239793151672
41.196999999999996,0.0017910275059928142,-0.0017910275059928142
41.198,0.009490750901356584,-0.009490750901356584
41.199,0.013850517623336216,-0.013850517623336216
41.199999999999996,0.015393522254213352,-0.015393522254213352
41.201,0.015262671097031538,-0.015262671097031538
41.202,0.014593422739849643,-0.014593422739849643
41.202999999999996,0.013974868554371465,-0.013974868554371465
41.204,0.013214151918671584,-0.013214151918671584
41.205,0.011494995793117586,-0.011494995793117586
41.205999999999996,0.007861825807900373,-0.007861825807900373
41.207,0.0018269856609767238,-0.0018269856609767238
41.208,0.006158823383641019,0.006158823383641019
41.208999999999996,0.014590137351239749,0.014590137351239749
41.21,0.021232653144829246,0.021232653144829246
41.211,0.02381059514758903,0.02381059514758903
41.211999999999996,0.020827500998526743,0.020827500998526743
41.213,0.012223163173997112,0.012223163173997112
41.214,0.0003929838627352795,-0.0003929838627352795
41.214999999999996,0.014056613541296465,-0.014056613541296465
41.216,0.02524820006446339,-0.02524820006446339
41.217,0.030939380534713377,-0.030939380534713377
41.217999999999996,0.029548209552320466,-0.029548209552320466
41.219,0.021479576822771164,-0.021479576822771164
41.22,0.009053700863050502,-0.009053700863050502
41.221,0.004175566241714352,0.004175566241714352
41.222,0.01450644156686688,0.01450644156686688
41.223,0.019232688619820238,0.019232688619820238
41.224,0.017472255078789592,0.017472255078789592
41.225,0.01040694250753544,0.01040694250753544
41.226,0.0008510634724919922,0.0008510634724919922
41.227,0.007710828703777676,-0.007710828703777676
41.228,0.012299374656675608,-0.012299374656675608
41.229,0.011438230010047123,-0.011438230010047123
41.23,0.005640550552091761,-0.005640550552091761
41.231,0.002780634282358425,0.002780634282358425
41.232,0.010517930973280921,0.010517930973280921
41.233,0.014424515156022688,0.014424515156022688
41.234,0.012633357665786847,0.012633357665786847
41.235,0.005264250621047737,0.005264250621047737
41.236,0.005524417020077312,-0.005524417020077312
41.237,0.016167781255190968,-0.016167781255190968
41.238,0.022814326970555354,-0.022814326970555354
41.239,0.022575736256652268,-0.022575736256652268
41.24,0.014503722618287604,-0.014503722618287604
41.241,2.386544474654236e-05,2.386544474654236e-05
41.242,0.0176374736584344,0.0176374736584344
41.242999999999995,0.033931282593443295,0.033931282593443295
41.244,0.04474345131108136,0.04474345131108136
41.245,0.04736368663244122,0.04736368663244122
41.245999999999995,0.04129622008652199,0.04129622008652199
41.247,0.028349062876067803,0.028349062876067803
41.248,0.012033552102791886,0.012033552102791886
41.248999999999995,0.0035268235226980625,-0.0035268235226980625
41.25,0.01483045819235339,-0.01483045819235339
41.251,0.019989665212691667,-0.019989665212691667
41.251999999999995,0.019180286517769242,-0.019180286517769242
41.253,0.014425391787953531,-0.014425391787953531
41.254,0.008801615257933602,-0.008801615257933602
41.254999999999995,0.005336548287051356,-0.005336548287051356
41.256,0.005957555950546572,-0.005957555950546572
41.257,0.010829329016042458,-0.010829329016042458
41.257999999999996,0.018288801036252238,-0.018288801036252238
41.259,0.025393862422040423,-0.025393862422040423
41.26,0.028907625101169378,-0.028907625101169378
41.260999999999996,0.026403486688665042,-0.026403486688665042
41.262,0.017139460523000992,-0.017139460523000992
41.263,0.002423209342766985,-0.002423209342766985
41.263999999999996,0.014652010662659158,0.014652010662659158
41.265,0.03002569802124712,0.03002569802124712
41.266,0.03979779355589297,0.03979779355589297
41.266999999999996,0.041327006012745186,0.041327006012745186
41.268,0.03397168988446614,0.03397168988446614
41.269,0.019255906288760616,0.019255906288760616
41.269999999999996,0.0004192934039364403,0.0004192934039364403
41.271,0.018503845058028656,-0.018503845058028656
41.272,0.033790673647813914,-0.033790673647813914
41.272999999999996,0.04298491240132479,-0.04298491240132479
41.274,0.04541849683755627,-0.04541849683755627
41.275,0.04215875810798286,-0.04215875810798286
41.275999999999996,0.035424524671736915,-0.035424524671736915
41.277,0.027684132150081156,-0.027684132150081156
41.278,0.020749175809815435,-0.020749175809815435
41.278999999999996,0.015177010095958527,-0.015177010095958527
41.28,0.01019115008619409,-0.01019115008619409
41.281,0.0041532616476703645,-0.0041532616476703645
41.282,0.00457150046325707,0.00457150046325707
41.283,0.01666017475630618,0.01666017475630618
41.284,0.03114348165257294,0.03114348165257294
41.285,0.04527137805131732,0.04527137805131732
41.286,0.05505290013201531,0.05505290013201531
41.287,0.05636988737465937,0.05636988737465937
41.288,0.04635947418557527,0.04635947418557527
41.289,0.024638813860553502,0.024638813860553502
41.29,0.006047866390325758,-0.006047866390325758
41.291,0.040038333415563995,-0.040038333415563995
41.292,0.06985522753500345,-0.06985522753500345
41.293,0.08796924666139237,-0.08796924666139237
41.294,0.08876994684651958,-0.08876994684651958
41.295,0.07019517619971956,-0.07019517619971956
41.296,0.03453330671238942,-0.03453330671238942
41.297,0.011875820788051774,0.011875820788051774
41.298,0.06001202683223439,0.06001202683223439
41.299,0.10028151308452754,0.10028151308452754
41.3,0.12480360455815875,0.12480360455815875
41.301,0.12925947373201838,0.12925947373201838
41.302,0.1138016591536661,0.1138016591536661
41.303,0.08278801769504714,0.08278801769504714
41.304,0.043439417816199366,0.043439417816199366
41.305,0.0038269260948344814,0.0038269260948344814
41.306,0.029220962992903696,-0.029220962992903696
41.306999999999995,0.05169332519675785,-0.05169332519675785
41.308,0.06302839184852257,-0.06302839184852257
41.309,0.06567372194864815,-0.06567372194864815
41.309999999999995,0.0637774866854293,-0.0637774866854293
41.311,0.06147408006717065,-0.06147408006717065
41.312,0.06133764348595219,-0.06133764348595219
41.312999999999995,0.06350435260570415,-0.06350435260570415
41.314,0.06573368702869853,-0.06573368702869853
41.315,0.06436549663943804,-0.06436549663943804
41.315999999999995,0.05583440005356465,-0.05583440005356465
41.317,0.038220284549113547,-0.038220284549113547
41.318,0.012301146090144183,-0.012301146090144183
41.318999999999996,0.018264966367037273,0.018264966367037273
41.32,0.04772112964272483,0.04772112964272483
41.321,0.06973723236542016,0.06973723236542016
41.321999999999996,0.07922019363529852,0.07922019363529852
41.323,0.07385298907431583,0.07385298907431583
41.324,0.05488555168761426,0.05488555168761426
41.324999999999996,0.0269272275673556,0.0269272275673556
41.326,0.0032079431816434507,-0.0032079431816434507
41.327,0.02827012138738171,-0.02827012138738171
41.327999999999996,0.04244812552358345,-0.04244812552358345
41.329,0.042821997352606334,-0.042821997352606334
41.33,0.03000444870612954,-0.03000444870612954
41.330999999999996,0.007828981933571158,-0.007828981933571158
41.332,0.0177812812719565,0.0177812812719565
41.333,0.04040895249541016,0.04040895249541016
41.333999999999996,0.05474335659248493,0.05474335659248493
41.335,0.0577650247948064,0.0577650247948064
41.336,0.049245630246144305,0.049245630246144305
41.336999999999996,0.031510407501924645,0.031510407501924645
41.338,0.008616103981681856,0.008616103981681856
41.339,0.014765919791308323,-0.014765919791308323
41.339999999999996,0.03443682728478681,-0.03443682728478681
41.341,0.04746610780272897,-0.04746610780272897
41.342,0.052561434820020764,-0.052561434820020764
41.342999999999996,0.05001904370572883,-0.05001904370572883
41.344,0.0413694617052829,-0.0413694617052829
41.345,0.02888094969687558,-0.02888094969687558
41.346,0.01506753919320084,-0.01506753919320084
41.347,0.002290974286467896,-0.002290974286467896
41.348,0.0075210014226745414,0.0075210014226745414
41.349,0.01306354518561371,0.01306354518561371
41.35,0.013783824698996906,0.013783824698996906
41.351,0.009960356251795347,0.009960356251795347
41.352,0.0027070572698284614,0.0027070572698284614
41.353,0.006145892387756911,-0.006145892387756911
41.354,0.014332556005495312,-0.014332556005495312
41.355,0.019586440071479996,-0.019586440071479996
41.356,0.020158999401307272,-0.020158999401307272
41.357,0.015293180852613867,-0.015293180852613867
41.358,0.00550330925869166,-0.00550330925869166
41.359,0.007454523943713079,0.007454523943713079
41.36,0.0209547277203344,0.0209547277203344
41.361,0.03214223189993578,0.03214223189993578
41.362,0.03866947735139714,0.03866947735139714
41.363,0.039312829402995006,0.039312829402995006
41.364,0.03427507259829192,0.03427507259829192
41.365,0.02507299510717632,0.02507299510717632
41.366,0.014041373700810331,0.014041373700810331
41.367,0.0036122724763164426,0.0036122724763164426
41.367999999999995,0.004394024670587901,-0.004394024670587901
41.369,0.009232511271125931,-0.009232511271125931
41.37,0.011301680045434786,-0.011301680045434786
41.370999999999995,0.011805394916163097,-0.011805394916163097
41.372,0.012142238080635194,-0.012142238080635194
41.373,0.013255279646441773,-0.013255279646441773
41.373999999999995,0.015191433068587357,-0.015191433068587357
41.375,0.017044691294576,-0.017044691294576
41.376,0.01731630707050267,-0.01731630707050267
41.376999999999995,0.014567084200506134,-0.014567084200506134
41.378,0.008119788623340488,-0.008119788623340488
41.379,0.0014622408130704138,0.0014622408130704138
41.379999999999995,0.01232590300799142,0.01232590300799142
41.381,0.021766559995603646,0.021766559995603646
41.382,0.027035138342958898,0.027035138342958898
41.382999999999996,0.02625287035347491,0.02625287035347491
41.384,0.019116476370152014,0.019116476370152014
41.385,0.00713115122157179,0.00713115122157179
41.385999999999996,0.0067409369467361,-0.0067409369467361
41.387,0.018932024518003406,-0.018932024518003406
41.388,0.02635925261584116,-0.02635925261584116
41.388999999999996,0.027400347590019525,-0.027400347590019525
41.39,0.02242541640016815,-0.02242541640016815
41.391,0.01369380404024286,-0.01369380404024286
41.391999999999996,0.004631933205622458,-0.004631933205622458
41.393,0.0012849468338008531,0.0012849468338008531
41.394,0.0016874641882834922,0.0016874641882834922
41.394999999999996,0.0038752283438163323,-0.0038752283438163323
41.396,0.01373627464894383,-0.01373627464894383
41.397,0.024598259868187686,-0.024598259868187686
41.397999999999996,0.032555254847778534,-0.032555254847778534
41.399,0.034323117938543375,-0.034323117938543375
41.4,0.028283696531688027,-0.028283696531688027
41.400999999999996,0.015010643159255719,-0.015010643159255719
41.402,0.002884927284017543,0.002884927284017543
41.403,0.02152931101088644,0.02152931101088644
41.403999999999996,0.03692372679117157,0.03692372679117157
41.405,0.04607676661623091,0.04607676661623091
41.406,0.04777738416911382,0.04777738416911382
41.407,0.04278312773583905,0.04278312773583905
41.408,0.03339719795857807,0.03339719795857807
41.409,0.02260810413207109,0.02260810413207109
41.41,0.013100072767907742,0.013100072767907742
41.411,0.006467926529513811,0.006467926529513811
41.412,0.002882120270026861,0.002882120270026861
41.413,0.0012821131721653266,0.0012821131721653266
41.414,1.0420264425220635e-05,-1.0420264425220635e-05
41.415,0.0025078286536208143,-0.0025078286536208143
41.416,0.006899147134335823,-0.006899147134335823
41.417,0.012757241099550815,-0.012757241099550815
41.418,0.018706986689303713,-0.018706986689303713
41.419,0.02297922299465356,-0.02297922299465356
41.42,0.02413464197880133,-0.02413464197880133
41.421,0.02168163616344734,-0.02168163616344734
41.422,0.01635224978955182,-0.01635224978955182
41.423,0.00992497862179811,-0.00992497862179811
41.424,0.0046470319450161845,-0.0046470319450161845
41.425,0.0024535526123190795,-0.0024535526123190795
41.426,0.004256442354157248,-0.004256442354157248
41.427,0.009555145591049795,-0.009555145591049795
41.428,0.016513784487346445,-0.016513784487346445
41.429,0.02249136028574267,-0.02249136028574267
41.43,0.024858784735651406,-0.024858784735651406
41.431,0.02184017507578731,-0.02184017507578731
41.431999999999995,0.013107784990399208,-0.013107784990399208
41.433,5.873273275968386e-05,5.873273275968386e-05
41.434,0.015096300002384131,0.015096300002384131
41.434999999999995,0.028859403648640373,0.028859403648640373
41.436,0.03847684838245989,0.03847684838245989
41.437,0.04210282442279716,0.04210282442279716
41.437999999999995,0.03934533882227377,0.03934533882227377
41.439,0.031265722711299904,0.031265722711299904
41.44,0.019980406977502058,0.019980406977502058
41.440999999999995,0.008014514384023544,0.008014514384023544
41.442,0.0023807685723155354,-0.0023807685723155354
41.443,0.009744538075065916,-0.009744538075065916
41.443999999999996,0.013626158772065269,-0.013626158772065269
41.445,0.014485156345035444,-0.014485156345035444
41.446,0.013349668222273596,-0.013349668222273596
41.446999999999996,0.011377309367635433,-0.011377309367635433
41.448,0.009472710369978876,-0.009472710369978876
41.449,0.008074234483524765,-0.008074234483524765
41.449999999999996,0.007148674590024594,-0.007148674590024594
41.451,0.006356143074537576,-0.006356143074537576
41.452,0.005294779582361149,-0.005294779582361149
41.452999999999996,0.003721680413410904,-0.003721680413410904
41.454,0.0016721001689206842,-0.0016721001689206842
41.455,0.0005510535825857201,0.0005510535825857201
41.455999999999996,0.0024928764903506782,0.0024928764903506782
41.457,0.0037076816942896154,0.0037076816942896154
41.458,0.003899547127568896,0.003899547127568896
41.458999999999996,0.0029962089028063134,0.0029962089028063134
41.46,0.001145314579760637,0.001145314579760637
41.461,0.0013449434614401002,-0.0013449434614401002
41.461999999999996,0.004081822826475924,-0.004081822826475924
41.463,0.006646301166373428,-0.006646301166373428
41.464,0.008620769902207682,-0.008620769902207682
41.464999999999996,0.00959924104528844,-0.00959924104528844
41.466,0.00920934732677886,-0.00920934732677886
41.467,0.007172502456027814,-0.007172502456027814
41.467999999999996,0.0034065232615124235,-0.0034065232615124235
41.469,0.0018565416603782542,0.0018565416603782542
41.47,0.00799023843417405,0.00799023843417405
41.471,0.013989180369554814,0.013989180369554814
41.472,0.018615927090055193,0.018615927090055193
41.473,0.020670100127487753,0.020670100127487753
41.474,0.0193183903414363,0.0193183903414363
41.475,0.014385576342921855,0.014385576342921855
41.476,0.006499968055621829,0.006499968055621829
41.477,0.0029804317079081813,-0.0029804317079081813
41.478,0.012269231174236209,-0.012269231174236209
41.479,0.01961087500837847,-0.01961087500837847
41.48,0.02376569924124386,-0.02376569924124386
41.481,0.024365908528605786,-0.024365908528605786
41.482,0.02201673718197578,-0.02201673718197578
41.483,0.01809259219564851,-0.01809259219564851
41.484,0.014277073406688661,-0.014277073406688661
41.485,0.011985465388964701,-0.011985465388964701
41.486,0.011856674978353975,-0.011856674978353975
41.487,0.01348922520662903,-0.01348922520662903
41.488,0.015523492201701464,-0.015523492201701464
41.489,0.016061488530333862,-0.016061488530333862
41.49,0.013302116076296049,-0.013302116076296049
41.491,0.006192349071470035,-0.006192349071470035
41.492,0.005119099023842698,0.005119099023842698
41.492999999999995,0.01918249567867627,0.01918249567867627
41.494,0.033548834314807104,0.033548834314807104
41.495,0.045390815899644235,0.045390815899644235
41.495999999999995,0.052257079623946164,0.052257079623946164
41.497,0.052728763352765384,0.052728763352765384
41.498,0.046777413667822114,0.046777413667822114
41.498999999999995,0.03571868015294459,0.03571868015294459
41.5,0.02178567266630138,0.02178567266630138
41.501,0.007466369024375297,0.007466369024375297
41.501999999999995,0.005178903440081427,-0.005178903440081427
41.503,0.0150044728875364,-0.0150044728875364
41.504,0.02192704047782028,-0.02192704047782028
41.504999999999995,0.02670796418418499,-0.02670796418418499
41.506,0.030467180321879405,-0.030467180321879405
41.507,0.03411293139747401,-0.03411293139747401
41.507999999999996,0.03789367116152058,-0.03789367116152058
41.509,0.04122967581263232,-0.04122967581263232
41.51,0.042880264459721706,-0.042880264459721706
41.510999999999996,0.04138412351190126,-0.04138412351190126
41.512,0.03561606439133481,-0.03561606439133481
41.513,0.02526540456087049,-0.02526540456087049
41.513999999999996,0.011070765758353578,-0.011070765758353578
41.515,0.005268559066831208,0.005268559066831208
41.516,0.021474395601121375,0.021474395601121375
41.516999999999996,0.035238185474783336,0.035238185474783336
41.518,0.044760195927975206,0.044760195927975206
41.519,0.049115841710135354,0.049115841710135354
41.519999999999996,0.048352864646144224,0.048352864646144224
41.521,0.04331923878082537,0.04331923878082537
41.522,0.03531112909047102,0.03531112909047102
41.522999999999996,0.02568136564698004,0.02568136564698004
41.524,0.015545220420265501,0.015545220420265501
41.525,0.005666141459719315,0.005666141459719315
41.525999999999996,0.0034774029200781175,-0.0034774029200781175
41.527,0.011518865242573858,-0.011518865242573858
41.528,0.018039817740495782,-0.018039817740495782
41.528999999999996,0.02252020755323323,-0.02252020755323323
41.53,0.024450062623253697,-0.024450062623253697
41.531,0.023569144020249653,-0.023569144020249653
41.532,0.02012988339469811,-0.02012988339469811
41.533,0.015048086197551573,-0.015048086197551573
41.534,0.009831230845039231,-0.009831230845039231
41.535,0.006250240212015093,-0.006250240212015093
41.536,0.005821503359541515,-0.005821503359541515
41.537,0.009254288145625887,-0.009254288145625887
41.538,0.016059032585226105,-0.016059032585226105
41.539,0.024484147147957974,-0.024484147147957974
41.54,0.031856387325272954,-0.031856387325272954
41.541,0.0352698910863231,-0.0352698910863231
41.542,0.032444364286418816,-0.032444364286418816
41.543,0.022497486922091487,-0.022497486922091487
41.544,0.0063800068903838315,-0.0063800068903838315
41.545,0.01319147181261823,0.01319147181261823
41.546,0.03232291827708828,0.03232291827708828
41.547,0.04691053735017502,0.04691053735017502
41.548,0.053721558413076013,0.053721558413076013
41.549,0.051276133120328145,0.051276133120328145
41.55,0.04026789309193987,0.04026789309193987
41.551,0.023392589821665026,0.023392589821665026
41.552,0.004628532763885737,0.004628532763885737
41.553,0.011824730120247295,-0.011824730120247295
41.554,0.022642631652851363,-0.022642631652851363
41.555,0.026192894392783588,-0.026192894392783588
41.556,0.022848189608724027,-0.022848189608724027
41.556999999999995,0.014723147932884519,-0.014723147932884519
41.558,0.004937232076990857,-0.004937232076990857
41.559,0.003358307749554096,0.003358307749554096
41.559999999999995,0.007891362777660853,0.007891362777660853
41.561,0.007852706212077874,0.007852706212077874
41.562,0.003999528905650149,0.003999528905650149
41.562999999999995,0.0017210201614336002,-0.0017210201614336002
41.564,0.006882935754302675,-0.006882935754302675
41.565,0.009389173420297606,-0.009389173420297606
41.565999999999995,0.008124055262382905,-0.008124055262382905
41.567,0.003262149380969723,-0.003262149380969723
41.568,0.0038369874131186843,0.0038369874131186843
41.568999999999996,0.011087829380248593,0.011087829380248593
41.57,0.01632845561340705,0.01632845561340705
41.571,0.017952641268885208,0.017952641268885208
41.571999999999996,0.015338955108697035,0.015338955108697035
41.573,0.008968573706694974,0.008968573706694974
41.574,0.00022654607965959923,0.00022654607965959923
41.574999999999996,0.009024433841370437,-0.009024433841370437
41.576,0.01695155328584317,-0.01695155328584317
41.577,0.022188362652606212,-0.022188362652606212
41.577999999999996,0.024088756626612494,-0.024088756626612494
41.579,0.022756320404248742,-0.022756320404248742
41.58,0.018879115323888158,-0.018879115323888158
41.580999999999996,0.01345181205961287,-0.01345181205961287
41.582,0.007485057191828375,-0.007485057191828375
41.583,0.0017856910146401123,-0.0017856910146401123
41.583999999999996,0.003147966357357358,0.003147966357357358
41.585,0.0071168825267238665,0.0071168825267238665
41.586,0.010134160071910096,0.010134160071910096
41.586999999999996,0.01231063177095919,0.01231063177095919
41.588,0.013757543205796014,0.013757543205796014
41.589,0.014530582896403601,0.014530582896403601
41.589999999999996,0.014616766006677545,0.014616766006677545
41.591,0.01395012384741565,0.01395012384741565
41.592,0.012438555220587719,0.012438555220587719
41.592999999999996,0.009990902768870692,0.009990902768870692
41.594,0.006543893529653618,0.006543893529653618
41.595,0.002095439126361116,0.002095439126361116
41.596,0.0032509137700297203,-0.0032509137700297203
41.597,0.009235530812518891,-0.009235530812518891
41.598,0.015404178099288852,-0.015404178099288852
41.599,0.021107198311561774,-0.021107198311561774
41.6,0.025558507078958778,-0.025558507078958778
41.601,0.027959937317714643,-0.027959937317714643
41.602,0.027671556990518043,-0.027671556990518043
41.603,0.02438495002882433,-0.02438495002882433
41.604,0.018244771643477684,-0.018244771643477684
41.605,0.009871357524137985,-0.009871357524137985
41.606,0.00026390280093171184,-0.00026390280093171184
41.607,0.00939811249579436,0.00939811249579436
41.608,0.018001430485337408,0.018001430485337408
41.609,0.024719637105190415,0.024719637105190415
41.61,0.02913942050803599,0.02913942050803599
41.611,0.03125479389182559,0.03125479389182559
41.612,0.03133811456216058,0.03133811456216058
41.613,0.029742295753107627,0.029742295753107627
41.614,0.026715687855975036,0.026715687855975036
41.615,0.02230800950062949,0.02230800950062949
41.616,0.016411567099527118,0.016411567099527118
41.617,0.008927891741139175,0.008927891741139175
41.617999999999995,4.538120036159969e-06,-4.538120036159969e-06
41.619,0.009819395958956477,-0.009819395958956477
41.62,0.019464184684374775,-0.019464184684374775
41.620999999999995,0.027530030134813678,-0.027530030134813678
41.622,0.032558791159319755,-0.032558791159319755
41.623,0.033446983894638516,-0.033446983894638516
41.623999999999995,0.02981875340988206,-0.02981875340988206
41.625,0.022234777679278946,-0.022234777679278946
41.626,0.012146096186439916,-0.012146096186439916
41.626999999999995,0.0015800832672309962,-0.0015800832672309962
41.628,0.007365007242238553,0.007365007242238553
41.629,0.013071005207792254,0.013071005207792254
41.629999999999995,0.014826133744284254,0.014826133744284254
41.631,0.01298852874070625,0.01298852874070625
41.632,0.008828984294816478,0.008828984294816478
41.632999999999996,0.004097925884125384,0.004097925884125384
41.634,0.00045314641847187215,0.00045314641847187215
41.635,0.0010667066759125945,-0.0010667066759125945
41.635999999999996,0.0003503759095510883,-0.0003503759095510883
41.637,0.0017977424410263645,0.0017977424410263645
41.638,0.003984602540604717,0.003984602540604717
41.638999999999996,0.004759523084031593,0.004759523084031593
41.64,0.003167593749215687,0.003167593749215687
41.641,0.0008657198568703944,-0.0008657198568703944
41.641999999999996,0.006454571672059632,-0.006454571672059632
41.643,0.012010759676730752,-0.012010759676730752
41.644,0.015758168885573406,-0.015758168885573406
41.644999999999996,0.01633334626641526,-0.01633334626641526
41.646,0.013270024135976093,-0.013270024135976093
41.647,0.007201600608440827,-0.007201600608440827
41.647999999999996,0.0002919184867180716,0.0002919184867180716
41.649,0.007148166273758692,0.007148166273758692
41.65,0.011449917455568821,0.011449917455568821
41.650999999999996,0.012013384936535787,0.012013384936535787
41.652,0.008747533483171232,0.008747533483171232
41.653,0.002669982691967595,0.002669982691967595
41.653999999999996,0.004422475056723888,-0.004422475056723888
41.655,0.010518888349005499,-0.010518888349005499
41.656,0.01401065807922609,-0.01401065807922609
41.657,0.014162830651351965,-0.014162830651351965
41.658,0.011295171753345035,-0.011295171753345035
41.659,0.006625536361642382,-0.006625536361642382
41.66,0.001838040095652976,-0.001838040095652976
41.661,0.0014754949705565936,0.0014754949705565936
41.662,0.002317738543936861,0.002317738543936861
41.663,0.0005747028758155667,0.0005747028758155667
41.664,0.0029900758681725343,-0.0029900758681725343
41.665,0.007019125915036458,-0.007019125915036458
41.666,0.010017918291852508,-0.010017918291852508
41.667,0.010831579145628975,-0.010831579145628975
41.668,0.008991252447079988,-0.008991252447079988
41.669,0.004831018631160973,-0.004831018631160973
41.67,0.0006447491000266967,0.0006447491000266967
41.671,0.006084570756341055,0.006084570756341055
41.672,0.01019091705699935,0.01019091705699935
41.673,0.012073388001223602,0.012073388001223602
41.674,0.011456023516272324,0.011456023516272324
41.675,0.008696011541962282,0.008696011541962282
41.676,0.004632669164556726,0.004632669164556726
41.677,0.0003326666596033071,0.0003326666596033071
41.678,0.003183335510933561,-0.003183335510933561
41.679,0.0051581815997598125,-0.0051581815997598125
41.68,0.005217317724852261,-0.005217317724852261
41.681,0.0033851785941002646,-0.0033851785941002646
41.681999999999995,2.4291156904388975e-05,-2.4291156904388975e-05
41.683,0.0042651978718852394,0.0042651978718852394
41.684,0.008753466234166056,0.008753466234166056
41.684999999999995,0.01268062341181666,0.01268062341181666
41.686,0.01534837921836267,0.01534837921836267
41.687,0.016211140590518237,0.016211140590518237
41.687999999999995,0.014968284286018079,0.014968284286018079
41.689,0.011644965368989475,0.011644965368989475
41.69,0.006634701444171126,0.006634701444171126
41.690999999999995,0.0006729933611875761,0.0006729933611875761
41.692,0.005276777484775602,-0.005276777484775602
41.693,0.010217483618991509,-0.010217483618991509
41.693999999999996,0.01335271182231332,-0.01335271182231332
41.695,0.014297385714263883,-0.014297385714263883
41.696,0.013195472528312411,-0.013195472528312411
41.696999999999996,0.010695853220343022,-0.010695853220343022
41.698,0.007778665061378903,-0.007778665061378903
41.699,0.005473815096280783,-0.005473815096280783
41.699999999999996,0.004553374331018102,-0.004553374331018102
41.701,0.005294519204308996,-0.005294519204308996
41.702,0.007392004715700881,-0.007392004715700881
41.702999999999996,0.010052853110809412,-0.010052853110809412
41.704,0.012245910205397937,-0.012245910205397937
41.705,0.013025974401569475,-0.013025974401569475
41.705999999999996,0.011825628156172056,-0.011825628156172056
41.707,0.008618198867014053,-0.008618198867014053
41.708,0.0038998683389316656,-0.0038998683389316656
41.708999999999996,0.0014973960226129573,0.0014973960226129573
41.71,0.006690418207300897,0.006690418207300897
41.711,0.011020933514622069,0.011020933514622069
41.711999999999996,0.014221859834468735,0.014221859834468735
41.713,0.016414878989275503,0.016414878989275503
41.714,0.01794593876336105,0.01794593876336105
41.714999999999996,0.019129534417004913,0.019129534417004913
41.716,0.02001122182111784,0.02001122182111784
41.717,0.020255065282676787,0.020255065282676787
41.717999999999996,0.01921787934230333,0.01921787934230333
41.719,0.016200225192846286,0.016200225192846286
41.72,0.010791053914098743,0.010791053914098743
41.721,0.0031762585999074726,0.0031762585999074726
41.722,0.0057195554260262215,-0.0057195554260262215
41.723,0.014340593368111446,-0.014340593368111446
41.724,0.020856174706995072,-0.020856174706995072
41.725,0.023675106145915687,-0.023675106145915687
41.726,0.021961763556927454,-0.021961763556927454
41.727,0.015981136713235537,-0.015981136713235537
41.728,0.00714170081957425,-0.00714170081957425
41.729,0.002306291764113799,0.002306291764113799
41.73,0.009851067210283964,0.009851067210283964
41.731,0.013419048486183164,0.013419048486183164
41.732,0.011988419344081392,0.011988419344081392
41.733,0.005927584133161771,0.005927584133161771
41.734,0.003054095300767306,-0.003054095300767306
41.735,0.012342718609166737,-0.012342718609166737
41.736,0.019127589356612504,-0.019127589356612504
41.737,0.021182640803696483,-0.021182640803696483
41.738,0.01750051712981968,-0.01750051712981968
41.739,0.008599960136107554,-0.008599960136107554
41.74,0.0035794691540741875,0.0035794691540741875
41.741,0.016164879503261738,0.016164879503261738
41.742,0.026084400489393922,0.026084400489393922
41.742999999999995,0.030849379188763296,0.030849379188763296
41.744,0.029179074265421264,0.029179074265421264
41.745,0.02131206439603585,0.02131206439603585
41.745999999999995,0.008936768242061523,0.008936768242061523
41.747,0.005226469653821656,-0.005226469653821656
41.748,0.018074892088600452,-0.018074892088600452
41.748999999999995,0.026839311402640297,-0.026839311402640297
41.75,0.029697615721527154,-0.029697615721527154
41.751,0.026153244271718147,-0.026153244271718147
41.751999999999995,0.017108876207270956,-0.017108876207270956
41.753,0.004636822495014296,-0.004636822495014296
41.754,0.008489365795832505,0.008489365795832505
41.754999999999995,0.019394303335281412,0.019394303335281412
41.756,0.02570500848386198,0.02570500848386198
41.757,0.026039702894244864,0.026039702894244864
41.757999999999996,0.020287081418551383,0.020287081418551383
41.759,0.009622799216312108,0.009622799216312108
41.76,0.003740696930477301,-0.003740696930477301
41.760999999999996,0.017023590480763243,-0.017023590480763243
41.762,0.027474452232820433,-0.027474452232820433
41.763,0.032968319670206296,-0.032968319670206296
41.763999999999996,0.032474852999546416,-0.032474852999546416
41.765,0.026284687378939228,-0.026284687378939228
41.766,0.015931117118639142,-0.015931117118639142
41.766999999999996,0.003814184524168287,-0.003814184524168287
41.768,0.007390287897376889,0.007390287897376889
41.769,0.015393201854914409,0.015393201854914409
41.769999999999996,0.018855323551118002,0.018855323551118002
41.771,0.017698172220787727,0.017698172220787727
41.772,0.01307257734499069,0.01307257734499069
41.772999999999996,0.006987842159176108,0.006987842159176108
41.774,0.0017021072086983054,0.0017021072086983054
41.775,0.000952603930399602,-0.000952603930399602
41.775999999999996,0.00011304028916035139,-0.00011304028916035139
41.777,0.0038676843176696507,0.0038676843176696507
41.778,0.009544422599597674,0.009544422599597674
41.778999999999996,0.014840871439483944,0.014840871439483944
41.78,0.01770743348923694,0.01770743348923694
41.781,0.016773612492825444,0.016773612492825444
41.782,0.011792018996553565,0.011792018996553565
41.783,0.0037345697760663345,0.0037345697760663345
41.784,0.0054901964005522295,-0.0054901964005522295
41.785,0.013610705445132272,-0.013610705445132272
41.786,0.018677229764220718,-0.018677229764220718
41.787,0.01964391821643476,-0.01964391821643476
41.788,0.0166676115076555,-0.0166676115076555
41.789,0.011034133517555741,-0.011034133517555741
41.79,0.0047412941871735675,-0.0047412941871735675
41.791,0.0001247425077681878,0.0001247425077681878
41.792,0.0020213781122014295,0.0020213781122014295
41.793,0.0003945697013581354,0.0003945697013581354
41.794,0.0041929420543006584,-0.0041929420543006584
41.795,0.01027539075276606,-0.01027539075276606
41.796,0.015956495175124086,-0.015956495175124086
41.797,0.01948074327072498,-0.01948074327072498
41.798,0.019722201881496634,-0.019722201881496634
41.799,0.01644813697460123,-0.01644813697460123
41.8,0.010297134931711503,-0.010297134931711503
41.801,0.002507713028344167,-0.002507713028344167
41.802,0.00548959661103347,0.00548959661103347
41.803,0.012470829248326595,0.012470829248326595
41.804,0.01768142167887108,0.01768142167887108
41.805,0.020898141217006363,0.020898141217006363
41.806,0.02230339376057265,0.02230339376057265
41.806999999999995,0.022251513477143815,0.022251513477143815
41.808,0.02103758373237762,0.02103758373237762
41.809,0.01876586070406653,0.01876586070406653
41.809999999999995,0.015364781994636307,0.015364781994636307
41.811,0.010729940673228107,0.010729940673228107
41.812,0.00492133332135351,0.00492133332135351
41.812999999999995,0.001682256138225892,-0.001682256138225892
41.814,0.008352305985229538,-0.008352305985229538
41.815,0.014134147556700076,-0.014134147556700076
41.815999999999995,0.0180934370185444,-0.0180934370185444
41.817,0.019602175472509135,-0.019602175472509135
41.818,0.018560304390531728,-0.018560304390531728
41.818999999999996,0.01546732879115368,-0.01546732879115368
41.82,0.011309197111487859,-0.011309197111487859
41.821,0.007290043073474194,-0.007290043073474194
41.821999999999996,0.004492737845769404,-0.004492737845769404
41.823,0.003576841102048007,-0.003576841102048007
41.824,0.004608978653883194,-0.004608978653883194
41.824999999999996,0.007074499449055684,-0.007074499449055684
41.826,0.010057773369121756,-0.010057773369121756
41.827,0.012524024742295723,-0.012524024742295723
41.827999999999996,0.013607168075557475,-0.013607168075557475
41.829,0.012814501069876982,-0.012814501069876982
41.83,0.010095972024783495,-0.010095972024783495
41.830999999999996,0.005777723393251038,-0.005777723393251038
41.832,0.0004065538952862516,-0.0004065538952862516
41.833,0.005423326858846905,0.005423326858846905
41.833999999999996,0.011195093052638959,0.011195093052638959
41.835,0.01651035435949705,0.01651035435949705
41.836,0.0210534797319575,0.0210534797319575
41.836999999999996,0.024521771699830143,0.024521771699830143
41.838,0.026578091752911884,0.026578091752911884
41.839,0.02686950283377813,0.02686950283377813
41.839999999999996,0.02512129259730025,0.02512129259730025
41.841,0.02127520886807778,0.02127520886807778
41.842,0.015611618128211147,0.015611618128211147
41.842999999999996,0.008790991699575871,0.008790991699575871
41.844,0.0017741235861293775,0.0017741235861293775
41.845,0.004375313791931554,-0.004375313791931554
41.846,0.008754640327595875,-0.008754640327595875
41.847,0.010869185835216488,-0.010869185835216488
41.848,0.010776485876980992,-0.010776485876980992
41.849,0.009071266942291507,-0.009071266942291507
41.85,0.006707220541144639,-0.006707220541144639
41.851,0.004708173569977312,-0.004708173569977312
41.852,0.003861219619250549,-0.003861219619250549
41.853,0.004492416635330964,-0.004492416635330964
41.854,0.00639803464436513,-0.00639803464436513
41.855,0.008950482088324488,-0.008950482088324488
41.856,0.011337250027187976,-0.011337250027187976
41.857,0.012845579365739756,-0.012845579365739756
41.858,0.013091734613368166,-0.013091734613368166
41.859,0.012116716536412605,-0.012116716536412605
41.86,0.010321299405455056,-0.010321299405455056
41.861,0.008273328316448775,-0.008273328316448775
41.862,0.006466835312062085,-0.006466835312062085
41.863,0.0051284009751071035,-0.0051284009751071035
41.864,0.00414559051547105,-0.00414559051547105
41.865,0.0031433033583628434,-0.0031433033583628434
41.866,0.0016753149412676172,-0.0016753149412676172
41.867,0.0005473825549990858,0.0005473825549990858
41.867999999999995,0.003485040405509744,0.003485040405509744
41.869,0.006726764511583011,0.006726764511583011
41.87,0.009599856449004664,0.009599856449004664
41.870999999999995,0.01139409509455168,0.01139409509455168
41.872,0.011617984641399045,0.011617984641399045
41.873,0.010188978255711778,0.010188978255711778
41.873999999999995,0.007482128028737212,0.007482128028737212
41.875,0.004213585702644738,0.004213585702644738
41.876,0.0011975935263907448,0.0011975935263907448
41.876999999999995,0.0009354133744975086,-0.0009354133744975086
41.878,0.001955042339052017,-0.001955042339052017
41.879,0.0020990880117135492,-0.0020990880117135492
41.879999999999995,0.0019647319432068502,-0.0019647319432068502
41.881,0.002259452494896791,-0.002259452494896791
41.882,0.003501504351405205,-0.003501504351405205
41.882999999999996,0.005780764933129978,-0.005780764933129978
41.884,0.008671217336539262,-0.008671217336539262
41.885,0.011333037960850589,-0.011333037960850589
41.885999999999996,0.012774367768994063,-0.012774367768994063
41.887,0.012185002761739292,-0.012185002761739292
41.888,0.00922744804255281,-0.00922744804255281
41.888999999999996,0.004184696819098131,-0.004184696819098131
41.89,0.0020864739136689596,0.0020864739136689596
41.891,0.008380992497177293,0.008380992497177293
41.891999999999996,0.013473824486439984,0.013473824486439984
41.893,0.016442938563291834,0.016442938563291834
41.894,0.01688512416449848,0.01688512416449848
41.894999999999996,0.014964388642283792,0.014964388642283792
41.896,0.011292979667293609,0.011292979667293609
41.897,0.006701610983625001,0.006701610983625001
41.897999999999996,0.001987887977224851,0.001987887977224851
41.899,0.0022702905919287342,-0.0022702905919287342
41.9,0.00578350152974308,-0.00578350152974308
41.900999999999996,0.008499670863933453,-0.008499670863933453
41.902,0.010477980839631997,-0.010477980839631997
41.903,0.011757666212535756,-0.011757666212535756
41.903999999999996,0.01228562654201924,-0.01228562654201924
41.905,0.011933939370659119,-0.011933939370659119
41.906,0.010593436883821545,-0.010593436883821545
41.907,0.008292049979682217,-0.008292049979682217
41.908,0.00527284541494064,-0.00527284541494064
41.909,0.0019827805337943845,-0.0019827805337943845
41.91,0.0010372993339533877,0.0010372993339533877
41.911,0.0033246414673599556,0.0033246414673599556
41.912,0.00465885781741915,0.00465885781741915
41.913,0.005144489263179653,0.005144489263179653
41.914,0.0051659714228834835,0.0051659714228834835
41.915,0.005219931370807533,0.005219931370807533
41.916,0.005683370276895505,0.005683370276895505
41.917,0.006610274044178711,0.006610274044178711
41.918,0.007647627999503281,0.007647627999503281
41.919,0.008122212108348504,0.008122212108348504
41.92,0.007284753006083451,0.007284753006083451
41.921,0.004632015527046287,0.004632015527046287
41.922,0.00018658613238127075,0.00018658613238127075
41.923,0.0053831378703789986,-0.0053831378703789986
41.924,0.010871168130770253,-0.010871168130770253
41.925,0.014858502512394104,-0.014858502512394104
41.926,0.01615903381061808,-0.01615903381061808
41.927,0.014237134525178073,-0.014237134525178073
41.928,0.009443998849628947,-0.009443998849628947
41.929,0.0029729288604948205,-0.0029729288604948205
41.93,0.0034725455790155847,0.0034725455790155847
41.931,0.008201379303038442,0.008201379303038442
41.931999999999995,0.01007802189899629,0.01007802189899629
41.933,0.00889793803937265,0.00889793803937265
41.934,0.005456978614441464,0.005456978614441464
41.934999999999995,0.001277211617404048,0.001277211617404048
41.936,0.0019285868558037798,-0.0019285868558037798
41.937,0.0028756409223318563,-0.0028756409223318563
41.937999999999995,0.0011939356574038322,-0.0011939356574038322
41.939,0.002394581182449864,0.002394581182449864
41.94,0.006284292493537594,0.006284292493537594
41.940999999999995,0.00852340782031791,0.00852340782031791
41.942,0.007507119097863161,0.007507119097863161
41.943,0.0025922294111929466,0.0025922294111929466
41.943999999999996,0.005582119643563788,-0.005582119643563788
41.945,0.015189208894583056,-0.015189208894583056
41.946,0.023708652004150593,-0.023708652004150593
41.946999999999996,0.028667902978490374,-0.028667902978490374
41.948,0.028393977604876806,-0.028393977604876806
41.949,0.02253167426566913,-0.02253167426566913
41.949999999999996,0.012160571825223778,-0.012160571825223778
41.951,0.0005242948230071558,0.0005242948230071558
41.952,0.01285932191893578,0.01285932191893578
41.952999999999996,0.022472220043140877,0.022472220043140877
41.954,0.027908516401413046,0.027908516401413046
41.955,0.028930525614677155,0.028930525614677155
41.955999999999996,0.026411616989207624,0.026411616989207624
41.957,0.021888670625080642,0.021888670625080642
41.958,0.016949550198495818,0.016949550198495818
41.958999999999996,0.012680899247212125,0.012680899247212125
41.96,0.00936897326126164,0.00936897326126164
41.961,0.006545942294565028,0.006545942294565028
41.961999999999996,0.0033434538702049816,0.0033434538702049816
41.963,0.0009981173413878568,-0.0009981173413878568
41.964,0.0066715939205988384,-0.0066715939205988384
41.964999999999996,0.01308082587183969,-0.01308082587183969
41.966,0.018948507399139093,-0.018948507399139093
41.967,0.02272258802327491,-0.02272258802327491
41.967999999999996,0.023135744158044067,-0.023135744158044067
41.969,0.019711402966008644,-0.019711402966008644
41.97,0.01302439849035864,-0.01302439849035864
41.971,0.004609417952952289,-0.004609417952952289
41.972,0.003464648017120914,0.003464648017120914
41.973,0.0092165151287908,0.0092165151287908
41.974,0.011360977489589981,0.011360977489589981
41.975,0.009696957853417681,0.009696957853417681
41.976,0.00514356415337149,0.00514356415337149
41.977,0.0005858312231204031,-0.0005858312231204031
41.978,0.005557130106249101,-0.005557130106249101
41.979,0.008239189989901731,-0.008239189989901731
41.98,0.00796716927393293,-0.00796716927393293
41.981,0.005095757010248699,-0.005095757010248699
41.982,0.0008041974051821634,-0.0008041974051821634
41.983,0.0033628632393983434,0.0033628632393983434
41.984,0.006045757684705012,0.006045757684705012
41.985,0.0065136964078115695,0.0065136964078115695
41.986,0.004851210804774223,0.004851210804774223
41.987,0.0018358139418559703,0.0018358139418559703
41.988,0.0014293063955728678,-0.0014293063955728678
41.989,0.0039755005561842,-0.0039755005561842
41.99,0.005340237289145976,-0.005340237289145976
41.991,0.005707665826959475,-0.005707665826959475
41.992,0.005768032109053972,-0.005768032109053972
41.992999999999995,0.006356198503496942,-0.006356198503496942
41.994,0.008016549940466073,-0.008016549940466073
41.995,0.010672590761346405,-0.010672590761346405
41.995999999999995,0.01354265329472561,-0.01354265329472561
41.997,0.015351583847778811,-0.015351583847778811
41.998,0.014775568735196974,-0.014775568735196974
41.998999999999995,0.010965001390670909,-0.010965001390670909
42.0,0.003952965066306237,-0.003952965066306237
42.001,0.005210682410043387,0.005210682410043387
42.001999999999995,0.014667851169793779,0.014667851169793779
42.003,0.022252400604279337,0.022252400604279337
42.004,0.02612646889339112,0.02612646889339112
42.004999999999995,0.025345005271921718,0.025345005271921718
42.006,0.02015935482936881,0.02015935482936881
42.007,0.011955017576413545,0.011955017576413545
42.007999999999996,0.0028397189713331348,0.0028397189713331348
42.009,0.004985888688363144,-0.004985888688363144
42.01,0.009871065854364027,-0.009871065854364027
42.010999999999996,0.011164940156469433,-0.011164940156469433
42.012,0.009333810998506876,-0.009333810998506876
42.013,0.005718553082037743,-0.005718553082037743
42.013999999999996,0.0020244564547491984,-0.0020244564547491984
42.015,0.0002780562363177146,0.0002780562363177146
42.016,0.0004391635589254105,0.0004391635589254105
42.016999999999996,0.0013564655555672433,-0.0013564655555672433
42.018,0.004109661592403447,-0.004109661592403447
42.019,0.006408383202066364,-0.006408383202066364
42.019999999999996,0.006965459461669922,-0.006965459461669922
42.021,0.005105328084799966,-0.005105328084799966
42.022,0.0010350036908227654,-0.0010350036908227654
42.022999999999996,0.0041888999034766315,0.0041888999034766315
42.024,0.008981984362828174,0.008981984362828174
42.025,0.011732979603551645,0.011732979603551645
42.025999999999996,0.011318944253049901,0.011318944253049901
42.027,0.007470708147991856,0.007470708147991856
42.028,0.0008780536870811193,0.0008780536870811193
42.028999999999996,0.006989848285874698,-0.006989848285874698
42.03,0.014284466931770658,-0.014284466931770658
42.031,0.01927124209450961,-0.01927124209450961
42.032,0.020770129291964118,-0.020770129291964118
42.033,0.01842459656847491,-0.01842459656847491
42.034,0.012740944701549767,-0.012740944701549767
42.035,0.0049112617676134165,-0.0049112617676134165
42.036,0.0035080416299925364,0.0035080416299925364
42.037,0.010961002813544419,0.010961002813544419
42.038,0.016204227778563018,0.016204227778563018
42.039,0.018502708579085,0.018502708579085
42.04,0.01768995063754346,0.01768995063754346
42.041,0.014112527236067703,0.014112527236067703
42.042,0.008501888560279397,0.008501888560279397
42.043,0.0018185755530810807,0.0018185755530810807
42.044,0.0048991679909083366,-0.0048991679909083366
42.045,0.01066890015795196,-0.01066890015795196
42.046,0.014679646075781184,-0.014679646075781184
42.047,0.016392357506494776,-0.016392357506494776
42.048,0.015620148138258185,-0.015620148138258185
42.049,0.012571902940322401,-0.012571902940322401
42.05,0.00783663174575115,-0.00783663174575115
42.051,0.0022916366021845276,-0.0022916366021845276
42.052,0.0030636989391611873,0.0030636989391611873
42.053,0.007320518131007032,0.007320518131007032
42.054,0.009868285054458959,0.009868285054458959
42.055,0.010537195208472702,0.010537195208472702
42.056,0.009625869856736621,0.009625869856736621
42.056999999999995,0.007795980401863452,0.007795980401863452
42.058,0.005857272979704568,0.005857272979704568
42.059,0.004504944340412859,0.004504944340412859
42.059999999999995,0.004092047790833908,0.004092047790833908
42.061,0.004513459559924909,0.004513459559924909
42.062,0.005244913665930593,0.005244913665930593
42.062999999999995,0.005530462680934142,0.005530462680934142
42.064,0.004660950719565675,0.004660950719565675
42.065,0.0022523479341016246,0.0022523479341016246
42.065999999999995,0.00157138364466905,-0.00157138364466905
42.067,0.00615811821074507,-0.00615811821074507
42.068,0.010485312022641977,-0.010485312022641977
42.068999999999996,0.013451906068520269,-0.013451906068520269
42.07,0.014214441226564397,-0.014214441226564397
42.071,0.01245994341166986,-0.01245994341166986
42.071999999999996,0.00852578481069476,-0.00852578481069476
42.073,0.0033242315693050636,-0.0033242315693050636
42.074,0.0019086065263928139,0.0019086065263928139
42.074999999999996,0.0059634886715485705,0.0059634886715485705
42.076,0.008000459132768234,0.008000459132768234
42.077,0.0077775784221873435,0.0077775784221873435
42.077999999999996,0.005696731800774054,0.005696731800774054
42.079,0.0026550503429388374,0.0026550503429388374
42.08,0.00024892435462593986,-0.00024892435462593986
42.080999999999996,0.002061136060847184,-0.002061136060847184
42.082,0.002262832917601688,-0.002262832917601688
42.083,0.0009189386126946973,-0.0009189386126946973
42.083999999999996,0.00135717524500698,0.00135717524500698
42.085,0.0036063613299988206,0.0036063613299988206
42.086,0.004827505596750422,0.004827505596750422
42.086999999999996,0.004288335650768557,0.004288335650768557
42.088,0.0017510405490480444,0.0017510405490480444
42.089,0.0024499493743161153,-0.0024499493743161153
42.089999999999996,0.007494130946310191,-0.007494130946310191
42.091,0.012292730393561765,-0.012292730393561765
42.092,0.015770177984368947,-0.015770177984368947
42.092999999999996,0.01712810240793235,-0.01712810240793235
42.094,0.016022066472904578,-0.016022066472904578
42.095,0.012611728821592758,-0.012611728821592758
42.096,0.007483949599897516,-0.007483949599897516
42.097,0.0014833530473735734,-0.0014833530473735734
42.098,0.004493831509326955,0.004493831509326955
42.099,0.009683958223380364,0.009683958223380364
42.1,0.013573820201496325,0.013573820201496325
42.101,0.01593313422715843,0.01593313422715843
42.102,0.01677017307645781,0.01677017307645781
42.103,0.01624041990323648,0.01624041990323648
42.104,0.01454763100408685,0.01454763100408685
42.105,0.011872842567981382,0.011872842567981382
42.106,0.00835223197447599,0.00835223197447599
42.107,0.004104846802229791,0.004104846802229791
42.108,0.0007074113953939301,-0.0007074113953939301
42.109,0.005816877096246644,-0.005816877096246644
42.11,0.010815175098771095,-0.010815175098771095
42.111,0.015168401424666416,-0.015168401424666416
42.112,0.018288391211473767,-0.018288391211473767
42.113,0.019647237148040456,-0.019647237148040456
42.114,0.018906414411397444,-0.018906414411397444
42.115,0.01602384869116182,-0.01602384869116182
42.116,0.011304759924057972,-0.011304759924057972
42.117,0.005374989248382682,-0.005374989248382682
42.117999999999995,0.0009243233262875416,0.0009243233262875416
42.119,0.0066997712886080266,0.0066997712886080266
42.12,0.011187804004081007,0.011187804004081007
42.120999999999995,0.013909524551041825,0.013909524551041825
42.122,0.014756846007945277,0.014756846007945277
42.123,0.013986070494906723,0.013986070494906723
42.123999999999995,0.012120249192644022,0.012120249192644022
42.125,0.00978775885130157,0.00978775885130157
42.126,0.007543490173085429,0.007543490173085429
42.126999999999995,0.0057246558647679755,0.0057246558647679755
42.128,0.004383073844771318,0.004383073844771318
42.129,0.0033123472243997516,0.0033123472243997516
42.129999999999995,0.002158581414282197,0.002158581414282197
42.131,0.0005765470222134782,0.0005765470222134782
42.132,0.0016216116802564278,-0.0016216116802564278
42.132999999999996,0.004375595082649872,-0.004375595082649872
42.134,0.007375171860457288,-0.007375171860457288
42.135,0.010148203301356249,-0.010148203301356249
42.135999999999996,0.012208176357309537,-0.012208176357309537
42.137,0.013209833454102949,-0.013209833454102949
42.138,0.013058031297065797,-0.013058031297065797
42.138999999999996,0.011930912594024066,-0.011930912594024066
42.14,0.010208721558293379,-0.010208721558293379
42.141,0.008333689499871705,-0.008333689499871705
42.141999999999996,0.0066521121051730655,-0.0066521121051730655
42.143,0.00529735460798627,-0.00529735460798627
42.144,0.004158597069033997,-0.004158597069033997
42.144999999999996,0.002948992429423406,-0.002948992429423406
42.146,0.0013494340179638518,-0.0013494340179638518
42.147,0.0008259531845588417,0.0008259531845588417
42.147999999999996,0.0035075394623456553,0.0035075394623456553
42.149,0.006342998667112663,0.006342998667112663
42.15,0.008783498497122406,0.008783498497122406
42.150999999999996,0.010259038963619963,0.010259038963619963
42.152,0.01038270537069018,0.01038270537069018
42.153,0.00910807924200139,0.00910807924200139
42.153999999999996,0.006776105739810112,0.006776105739810112
42.155,0.004024582021679904,0.004024582021679904
42.156,0.0015829366570724397,0.0015829366570724397
42.157,1.950998962985013e-05,1.950998962985013e-05
42.158,0.00046872721761229483,-0.00046872721761229483
42.159,0.00014299773439033716,-0.00014299773439033716
42.16,0.0003555680248806333,0.0003555680248806333
42.161,0.000233585080163722,0.000233585080163722
42.162,0.0011489873403756341,-0.0011489873403756341
42.163,0.004000388025289924,-0.004000388025289924
42.164,0.00794894828186601,-0.00794894828186601
42.165,0.0120896221216838,-0.0120896221216838
42.166,0.015225130025363819,-0.015225130025363819
42.167,0.016233362121534697,-0.016233362121534697
42.168,0.014444217078066462,-0.014444217078066462
42.169,0.00989850912142269,-0.00989850912142269
42.17,0.00339454199686732,-0.00339454199686732
42.171,0.003704973178247459,0.003704973178247459
42.172,0.009853482164106999,0.009853482164106999
42.173,0.013771414371778323,0.013771414371778323
42.174,0.014822323555348613,0.014822323555348613
42.175,0.013189758161806864,0.013189758161806864
42.176,0.009793310365730263,0.009793310365730263
42.177,0.005967776520044173,0.005967776520044173
42.178,0.003008860789887927,0.003008860789887927
42.179,0.0017352946441011653,0.0017352946441011653
42.18,0.0022142298501495817,0.0022142298501495817
42.181,0.003744384647307733,0.003744384647307733
42.181999999999995,0.005106510832668365,0.005106510832668365
42.183,0.005001377724318966,0.005001377724318966
42.184,0.0025315513254036653,0.0025315513254036653
42.184999999999995,0.0024335869389262685,-0.0024335869389262685
42.186,0.009133915697031704,-0.009133915697031704
42.187,0.01608256584021434,-0.01608256584021434
42.187999999999995,0.021471418863874533,-0.021471418863874533
42.189,0.023693502688554677,-0.023693502688554677
42.19,0.0218201219967411,-0.0218201219967411
42.190999999999995,0.015885577032605885,-0.015885577032605885
42.192,0.006894321414384102,-0.006894321414384102
42.193,0.003446610671430405,0.003446610671430405
42.193999999999996,0.013182245314761993,0.013182245314761993
42.195,0.020609418867477726,0.020609418867477726
42.196,0.024672482370538124,0.024672482370538124
42.196999999999996,0.025146233851877267,0.025146233851877267
42.198,0.02257021395305384,0.02257021395305384
42.199,0.017978509570712033,0.017978509570712033
42.199999999999996,0.012529826108419325,0.012529826108419325
42.201,0.00716497283958351,0.00716497283958351
42.202,0.0023979291650450237,0.0023979291650450237
42.202999999999996,0.0017079855694644844,-0.0017079855694644844
42.204,0.005395101226609004,-0.005395101226609004
42.205,0.008970881899977032,-0.008970881899977032
42.205999999999996,0.01257274791803376,-0.01257274791803376
42.207,0.016029357036097036,-0.016029357036097036
42.208,0.018868138055931336,-0.018868138055931336
42.208999999999996,0.020462187698718586,-0.020462187698718586
42.21,0.02025832604963423,-0.02025832604963423
42.211,0.017999919028935277,-0.017999919028935277
42.211999999999996,0.013861799448715623,-0.013861799448715623
42.213,0.008447460695371495,-0.008447460695371495
42.214,0.002647866788643088,-0.002647866788643088
42.214999999999996,0.0025911045230423892,0.0025911045230423892
42.216,0.006515795009488251,0.006515795009488251
42.217,0.0087471869181774,0.0087471869181774
42.217999999999996,0.009343608505375902,0.009343608505375902
42.219,0.00873017405980399,0.00873017405980399
42.22,0.007525147184565556,0.007525147184565556
42.221,0.0063247199164046825,0.0063247199164046825
42.222,0.005517010924963221,0.005517010924963221
42.223,0.005181874773539197,0.005181874773539197
42.224,0.005101775914412027,0.005101775914412027
42.225,0.004872027991947213,0.004872027991947213
42.226,0.0040684554409259775,0.0040684554409259775
42.227,0.0024159612192473034,0.0024159612192473034
42.228,9.44295137018154e-05,-9.44295137018154e-05
42.229,0.003173017182196265,-0.003173017182196265
42.23,0.006289191919182749,-0.006289191919182749
42.231,0.008799526808943543,-0.008799526808943543
42.232,0.010108959822674067,-0.010108959822674067
42.233,0.009822580455576524,-0.009822580455576524
42.234,0.007851618331072879,-0.007851618331072879
42.235,0.00445094351086403,-0.00445094351086403
42.236,0.0001819408954780594,-0.0001819408954780594
42.237,0.004190074532718948,0.004190074532718948
42.238,0.007843072704151865,0.007843072704151865
42.239,0.010062045582702862,0.010062045582702862
42.24,0.010388135138467163,0.010388135138467163
42.241,0.008723175129360867,0.008723175129360867
42.242,0.005365407482511952,0.005365407482511952
42.242999999999995,0.0009630083147098013,0.0009630083147098013
42.244,0.0036121719221253418,-0.0036121719221253418
42.245,0.007449599813753287,-0.007449599813753287
42.245999999999995,0.0098053235167445,-0.0098053235167445
42.247,0.010278380310474905,-0.010278380310474905
42.248,0.00891033274350961,-0.00891033274350961
42.248999999999995,0.006175214085334773,-0.006175214085334773
42.25,0.002854637196661912,-0.002854637196661912
42.251,0.00017424752194666058,0.00017424752194666058
42.251999999999995,0.002181788303079533,0.002181788303079533
42.253,0.0027897243759751034,0.0027897243759751034
42.254,0.002072775941747405,0.002072775941747405
42.254999999999995,0.000522740504169537,0.000522740504169537
42.256,0.0011184149167656977,-0.0011184149167656977
42.257,0.002107401606776389,-0.002107401606776389
42.257999999999996,0.0019522203823755103,-0.0019522203823755103
42.259,0.000585612203914134,-0.000585612203914134
42.26,0.0016007031094528055,0.0016007031094528055
42.260999999999996,0.0038767215721861544,0.0038767215721861544
42.262,0.005413787306229422,0.005413787306229422
42.263,0.0055655523086946155,0.0055655523086946155
42.263999999999996,0.004096034366072984,0.004096034366072984
42.265,0.0012757642108610502,0.0012757642108610502
42.266,0.00218998067063008,-0.00218998067063008
42.266999999999996,0.005380087670623918,-0.005380087670623918
42.268,0.007451784556465143,-0.007451784556465143
42.269,0.007910843392718442,-0.007910843392718442
42.269999999999996,0.006765250143262946,-0.006765250143262946
42.271,0.0045089665851336365,-0.0045089665851336365
42.272,0.0019410003431926729,-0.0019410003431926729
42.272999999999996,0.00011736987492974281,0.00011736987492974281
42.274,0.0011081754897819824,0.0011081754897819824
42.275,0.000924597955778459,0.000924597955778459
42.275999999999996,6.524572237825453e-05,-6.524572237825453e-05
42.277,0.0011666714412080885,-0.0011666714412080885
42.278,0.0016254572932389117,-0.0016254572932389117
42.278999999999996,0.0009172101692674137,-0.0009172101692674137
42.28,0.0010456459845253501,0.0010456459845253501
42.281,0.0038645307801845217,0.0038645307801845217
42.282,0.006781325161731485,0.006781325161731485
42.283,0.008935267860224378,0.008935267860224378
42.284,0.009656770195987737,0.009656770195987737
42.285,0.008691071661533961,0.008691071661533961
42.286,0.006270321185693508,0.006270321185693508
42.287,0.003008692899396867,0.003008692899396867
42.288,0.00033883541949551325,-0.00033883541949551325
42.289,0.0031617899231741542,-0.0031617899231741542
42.29,0.005213593783938545,-0.005213593783938545
42.291,0.006678441714193862,-0.006678441714193862
42.292,0.008055734813535985,-0.008055734813535985
42.293,0.00990173679995797,-0.00990173679995797
42.294,0.012524952514306362,-0.012524952514306362
42.295,0.01575428448713907,-0.01575428448713907
42.296,0.01887787650763641,-0.01887787650763641
42.297,0.020792137551025065,-0.020792137551025065
42.298,0.02032501446629659,-0.02032501446629659
42.299,0.01663210647608617,-0.01663210647608617
42.3,0.009532646604770587,-0.009532646604770587
42.301,0.0003330911829673451,0.0003330911829673451
42.302,0.01158694030002235,0.01158694030002235
42.303,0.022419396415374625,0.022419396415374625
42.304,0.031028186328936128,0.031028186328936128
42.305,0.03605410155054524,0.03605410155054524
42.306,0.03688196063193812,0.03688196063193812
42.306999999999995,0.033721866357808813,0.033721866357808813
42.308,0.027460748246292452,0.027460748246292452
42.309,0.019349732624005477,0.019349732624005477
42.309999999999995,0.010642499444253672,0.010642499444253672
42.311,0.0023066269781347793,0.0023066269781347793
42.312,0.005106972081947918,-0.005106972081947918
42.312999999999995,0.011416967229639256,-0.011416967229639256
42.314,0.016636144215789763,-0.016636144215789763
42.315,0.020762824232400275,-0.020762824232400275
42.315999999999995,0.023640631798242884,-0.023640631798242884
42.317,0.02495295561608851,-0.02495295561608851
42.318,0.024356514736436352,-0.024356514736436352
42.318999999999996,0.02169465685865704,-0.02169465685865704
42.32,0.01719120736567026,-0.01719120736567026
42.321,0.011526543315295491,-0.011526543315295491
42.321999999999996,0.005739989139789505,-0.005739989139789505
42.323,0.0009710623090581506,-0.0009710623090581506
42.324,0.0018798295672187177,0.0018798295672187177
42.324999999999996,0.002450148023399596,0.002450148023399596
42.326,0.0010569702815740412,0.0010569702815740412
42.327,0.001384305444184003,-0.001384305444184003
42.327999999999996,0.003651094231682196,-0.003651094231682196
42.329,0.0046222863154603425,-0.0046222863154603425
42.33,0.003663336837255734,-0.003663336837255734
42.330999999999996,0.0008482561719498073,-0.0008482561719498073
42.332,0.0030672446269223307,0.0030672446269223307
42.333,0.006918988944282698,0.006918988944282698
42.333999999999996,0.00956035751569646,0.00956035751569646
42.335,0.010287411913107716,0.010287411913107716
42.336,0.00910414353740208,0.00910414353740208
42.336999999999996,0.006722693144073641,0.006722693144073641
42.338,0.004288765221287915,0.004288765221287915
42.339,0.002925660469352853,0.002925660469352853
42.339999999999996,0.0032633149497936576,0.0032633149497936576
42.341,0.00513301380696959,0.00513301380696959
42.342,0.00755607398984752,0.00755607398984752
42.342999999999996,0.0090520248778059,0.0090520248778059
42.344,0.00817412856082825,0.00817412856082825
42.345,0.004089919539389902,0.004089919539389902
42.346,0.0030039864796608346,-0.0030039864796608346
42.347,0.011797046611355834,-0.011797046611355834
42.348,0.02016601605110383,-0.02016601605110383
42.349,0.025784674476793817,-0.025784674476793817
42.35,0.026851838913769643,-0.026851838913769643
42.351,0.0226966273827438,-0.0226966273827438
42.352,0.014051182082088122,-0.014051182082088122
42.353,0.0028862398920156745,-0.0028862398920156745
42.354,0.008150373776211998,0.008150373776211998
42.355,0.016517293654760713,0.016517293654760713
42.356,0.02053198843279774,0.02053198843279774
42.357,0.01984557768154314,0.01984557768154314
42.358,0.015484706597796345,0.015484706597796345
42.359,0.00945006884992746,0.00945006884992746
42.36,0.00401071919179042,0.00401071919179042
42.361,0.0009358456343889659,0.0009358456343889659
42.362,0.0009254107471356083,0.0009254107471356083
42.363,0.003430776062815047,0.003430776062815047
42.364,0.006920163307340513,0.006920163307340513
42.365,0.009488792136106936,0.009488792136106936
42.366,0.009593740179947168,0.009593740179947168
42.367,0.006650860651566659,0.006650860651566659
42.368,0.0012804805312951872,0.0012804805312951872
42.369,0.0048871238722950645,-0.0048871238722950645
42.37,0.009779827264648624,-0.009779827264648624
42.370999999999995,0.011626260503996394,-0.011626260503996394
42.372,0.009611182882937087,-0.009611182882937087
42.373,0.004211063296108004,-0.004211063296108004
42.373999999999995,0.002911823167765623,0.002911823167765623
42.375,0.009424794755428505,0.009424794755428505
42.376,0.013075086921966041,0.013075086921966041
42.376999999999995,0.012419032162104944,0.012419032162104944
42.378,0.00728207971859384,0.00728207971859384
42.379,0.0012038314100359174,-0.0012038314100359174
42.379999999999995,0.010991512830231837,-0.010991512830231837
42.381,0.019795888175585908,-0.019795888175585908
42.382,0.025817808066242797,-0.025817808066242797
42.382999999999996,0.02826272024214754,-0.02826272024214754
42.384,0.027479647968025638,-0.027479647968025638
42.385,0.024684212611999937,-0.024684212611999937
42.385999999999996,0.021379575576336053,-0.021379575576336053
42.387,0.01869766973807663,-0.01869766973807663
42.388,0.016911254584265716,-0.016911254584265716
42.388999999999996,0.015304980422511926,-0.015304980422511926
42.39,0.012462723030812223,-0.012462723030812223
42.391,0.0068752851101001,-0.0068752851101001
42.391999999999996,0.0023484356847588163,0.0023484356847588163
42.393,0.014929214555564336,0.014929214555564336
42.394,0.029239623950579087,0.029239623950579087
42.394999999999996,0.04259181859954375,0.04259181859954375
42.396,0.05192339677238542,0.05192339677238542
42.397,0.054674727931044116,0.054674727931044116
42.397999999999996,0.04957991536824162,0.04957991536824162
42.399,0.037114839256642176,0.037114839256642176
42.4,0.019452552461466724,0.019452552461466724
42.400999999999996,6.731001013618557e-05,-6.731001013618557e-05
42.402,0.01779494205374466,-0.01779494205374466
42.403,0.03069262809002087,-0.03069262809002087
42.403999999999996,0.03704871928412544,-0.03704871928412544
42.405,0.03678324256943392,-0.03678324256943392
42.406,0.031280357561598776,-0.031280357561598776
42.407,0.022832801077231717,-0.022832801077231717
42.408,0.013898150915576061,-0.013898150915576061
42.409,0.006410128707877472,-0.006410128707877472
42.41,0.001349730290247773,-0.001349730290247773
42.411,0.0013216671932140519,0.0013216671932140519
42.412,0.002393413271669825,0.002393413271669825
42.413,0.0029359416708392137,0.0029359416708392137
42.414,0.0038188325812826703,0.0038188325812826703
42.415,0.005388464201703092,0.005388464201703092
42.416,0.007401429196559821,0.007401429196559821
42.417,0.009206228547823261,0.009206228547823261
42.418,0.010073537919328183,0.010073537919328183
42.419,0.009527623753621196,0.009527623753621196
42.42,0.007543274331685913,0.007543274331685913
42.421,0.00453614692890923,0.00453614692890923
42.422,0.0011629445446388828,0.0011629445446388828
42.423,0.0019738603473386683,-0.0019738603473386683
42.424,0.004584152123432199,-0.004584152123432199
42.425,0.006795112748911623,-0.006795112748911623
42.426,0.009050868264140206,-0.009050868264140206
42.427,0.011840792962263822,-0.011840792962263822
42.428,0.015364954411222022,-0.015364954411222022
42.429,0.019278809400725027,-0.019278809400725027
42.43,0.022637925820261105,-0.022637925820261105
42.431,0.024093762448361648,-0.024093762448361648
42.431999999999995,0.022298220950122283,-0.022298220950122283
42.433,0.01639185541876382,-0.01639185541876382
42.434,0.006409157060660258,-0.006409157060660258
42.434999999999995,0.006549351930503889,0.006549351930503889
42.436,0.020458436677073637,0.020458436677073637
42.437,0.03280252671853658,0.03280252671853658
42.437999999999995,0.041185865902136354,0.041185865902136354
42.439,0.04394098472935381,0.04394098472935381
42.44,0.040555169876900006,0.040555169876900006
42.440999999999995,0.03178992264957876,0.03178992264957876
42.442,0.01946312380015254,0.01946312380015254
42.443,0.005966059524663673,0.005966059524663673
42.443999999999996,0.0063359060939655425,-0.0063359060939655425
42.445,0.01564331413652826,-0.01564331413652826
42.446,0.021056884998512302,-0.021056884998512302
42.446999999999996,0.022632914903292268,-0.022632914903292268
42.448,0.0211774058755743,-0.0211774058755743
42.449,0.01787429898529204,-0.01787429898529204
42.449999999999996,0.013883572612920468,-0.013883572612920468
42.451,0.010037780370517979,-0.010037780370517979
42.452,0.006717310400172264,-0.006717310400172264
42.452999999999996,0.0039150376560312125,-0.0039150376560312125
42.454,0.0014354535156028661,-0.0014354535156028661
42.455,0.0008664662808265854,0.0008664662808265854
42.455999999999996,0.002904521116684728,0.002904521116684728
42.457,0.004305684560464281,0.004305684560464281
42.458,0.00449596315443593,0.00449596315443593
42.458999999999996,0.002892978171710082,0.002892978171710082
42.46,0.0008635198417481527,-0.0008635198417481527
42.461,0.006719716082183782,-0.006719716082183782
42.461999999999996,0.014113355293505372,-0.014113355293505372
42.463,0.022002824443141007,-0.022002824443141007
42.464,0.029010478289053673,-0.029010478289053673
42.464999999999996,0.03364543921436032,-0.03364543921436032
42.466,0.034560595161637224,-0.034560595161637224
42.467,0.03080130661315092,-0.03080130661315092
42.467999999999996,0.022012620570802794,-0.022012620570802794
42.469,0.008580009296110025,-0.008580009296110025
42.47,0.008318261185705458,0.008318261185705458
42.471,0.026769398071138154,0.026769398071138154
42.472,0.044314563726421834,0.044314563726421834
42.473,0.05827377521267445,0.05827377521267445
42.474,0.06618547704639116,0.06618547704639116
42.475,0.06630013081244063,0.06630013081244063
42.476,0.058028972057191805,0.058028972057191805
42.477,0.04222807279226705,0.04222807279226705
42.478,0.021208953579832792,0.021208953579832792
42.479,0.0015833672082290107,-0.0015833672082290107
42.48,0.02220268954690031,-0.02220268954690031
42.481,0.037029520662418866,-0.037029520662418866
42.482,0.0436046370618571,-0.0436046370618571
42.483,0.04124878069973813,-0.04124878069973813
42.484,0.03128170367811388,-0.03128170367811388
42.485,0.0167472000135199,-0.0167472000135199
42.486,0.0016826803774967738,-0.0016826803774967738
42.487,0.00989513073648471,0.00989513073648471
42.488,0.01502416368143163,0.01502416368143163
42.489,0.012566259917239503,0.012566259917239503
42.49,0.0034908727411304134,0.0034908727411304134
42.491,0.009415175572369101,-0.009415175572369101
42.492,0.022336444881879837,-0.022336444881879837
42.493,0.03149478070406308,-0.03149478070406308
42.494,0.03418849479533594,-0.03418849479533594
42.495,0.029508663860029687,-0.029508663860029687
42.495999999999995,0.01853326742358661,-0.01853326742358661
42.497,0.003956642446145421,-0.003956642446145421
42.498,0.010720158984459074,0.010720158984459074
42.498999999999995,0.022185359507066953,0.022185359507066953
42.5,0.028199004288975277,0.028199004288975277
42.501,0.028108715365997503,0.028108715365997503
42.501999999999995,0.022868522057531464,0.022868522057531464
42.503,0.0145895844531365,0.0145895844531365
42.504,0.005794596917413327,0.005794596917413327
42.504999999999995,0.0013705830561998307,-0.0013705830561998307
42.506,0.005717995112392251,-0.005717995112392251
42.507,0.007225241187628177,-0.007225241187628177
42.507999999999996,0.006837127538862063,-0.006837127538862063
42.509,0.005965167027179181,-0.005965167027179181
42.51,0.005882693074510419,-0.005882693074510419
42.510999999999996,0.007234960645668181,-0.007234960645668181
42.512,0.00982902329660294,-0.00982902329660294
42.513,0.012759581447450465,-0.012759581447450465
42.513999999999996,0.014804312469806066,-0.014804312469806066
42.515,0.014928724196149963,-0.014928724196149963
42.516,0.012707911534471034,-0.012707911534471034
42.516999999999996,0.008509992437889724,-0.008509992437889724
42.518,0.003377809168238957,-0.003377809168238957
42.519,0.0013426294899274032,0.0013426294899274032
42.519999999999996,0.004486949228747658,0.004486949228747658
42.521,0.005491368897336963,0.005491368897336963
42.522,0.004592829529609447,0.004592829529609447
42.522999999999996,0.002737853943471971,0.002737853943471971
42.524,0.001232925793548579,0.001232925793548579
42.525,0.0012612523183471729,0.0012612523183471729
42.525999999999996,0.003437358667982075,0.003437358667982075
42.527,0.0075564958795424075,0.0075564958795424075
42.528,0.012626625554787822,0.012626625554787822
42.528999999999996,0.017172147296304636,0.017172147296304636
42.53,0.019705577675396525,0.019705577675396525
42.531,0.01920815527697208,0.01920815527697208
42.532,0.015460810150825764,0.015460810150825764
42.533,0.009121112956467527,0.009121112956467527
42.534,0.0015291490524155656,0.0015291490524155656
42.535,0.005685492447928664,-0.005685492447928664
42.536,0.011062798121659551,-0.011062798121659551
42.537,0.013691790855255131,-0.013691790855255131
42.538,0.01340110647582872,-0.01340110647582872
42.539,0.010721406298725564,-0.010721406298725564
42.54,0.006657387934244571,-0.006657387934244571
42.541,0.002364030803889381,-0.002364030803889381
42.542,0.0011597062234199216,0.0011597062234199216
42.543,0.0032692405693699254,0.0032692405693699254
42.544,0.0037260435523913614,0.0037260435523913614
42.545,0.0026226754583066154,0.0026226754583066154
42.546,0.00024405467248419382,0.00024405467248419382
42.547,0.0030602889183765094,-0.0030602889183765094
42.548,0.006939106427529491,-0.006939106427529491
42.549,0.011025744875547918,-0.011025744875547918
42.55,0.014879975165022591,-0.014879975165022591
42.551,0.0179434016208193,-0.0179434016208193
42.552,0.01956322303337977,-0.01956322303337977
42.553,0.019107770330160673,-0.019107770330160673
42.554,0.01615121324275219,-0.01615121324275219
42.555,0.010664142626794595,-0.010664142626794595
42.556,0.0031299074461707513,-0.0031299074461707513
42.556999999999995,0.005477103950880555,0.005477103950880555
42.558,0.013869692380251658,0.013869692380251658
42.559,0.020742974412585092,0.020742974412585092
42.559999999999995,0.025098530918502424,0.025098530918502424
42.561,0.026491187497677874,0.026491187497677874
42.562,0.025112609663634943,0.025112609663634943
42.562999999999995,0.021680088519821426,0.021680088519821426
42.564,0.017167859395818618,0.017167859395818618
42.565,0.012476491711829853,0.012476491711829853
42.565999999999995,0.008160614774183204,0.008160614774183204
42.567,0.004315498882151914,0.004315498882151914
42.568,0.0006642351724612158,0.0006642351724612158
42.568999999999996,0.00318997741840603,-0.00318997741840603
42.57,0.007449026159894955,-0.007449026159894955
42.571,0.01187591809408131,-0.01187591809408131
42.571999999999996,0.01573565745044057,-0.01573565745044057
42.573,0.01796985588268818,-0.01796985588268818
42.574,0.01756487652171512,-0.01756487652171512
42.574999999999996,0.013992239751670242,-0.013992239751670242
42.576,0.007557850142907604,-0.007557850142907604
42.577,0.0004882504697286026,0.0004882504697286026
42.577999999999996,0.008158834179738462,0.008158834179738462
42.579,0.013225056170800966,0.013225056170800966
42.58,0.01386813141720561,0.01386813141720561
42.580999999999996,0.00928783590969793,0.00928783590969793
42.582,6.493112660147012e-05,6.493112660147012e-05
42.583,0.011860962400420762,-0.011860962400420762
42.583999999999996,0.023622222985399576,-0.023622222985399576
42.585,0.03215862239420701,-0.03215862239420701
42.586,0.035052338618983374,-0.035052338618983374
42.586999999999996,0.03121834121276629,-0.03121834121276629
42.588,0.021242267757582166,-0.021242267757582166
42.589,0.007259765576757583,-0.007259765576757583
42.589999999999996,0.007592936756825609,0.007592936756825609
42.591,0.020000365819374488,0.020000365819374488
42.592,0.0273255196967219,0.0273255196967219
42.592999999999996,0.02826213115449136,0.02826213115449136
42.594,0.023106253937838994,0.023106253937838994
42.595,0.013588909374310685,0.013588909374310685
42.596,0.0023410171836121606,0.0023410171836121606
42.597,0.007836570147955824,-0.007836570147955824
42.598,0.01468127676362878,-0.01468127676362878
42.599,0.01696264674005312,-0.01696264674005312
42.6,0.014649145206850412,-0.014649145206850412
42.601,0.008742032213902693,-0.008742032213902693
42.602,0.0008684361431631429,-0.0008684361431631429
42.603,0.007215162942665848,0.007215162942665848
42.604,0.014052757843234976,0.014052757843234976
42.605,0.018740672592327933,0.018740672592327933
42.606,0.02096504454032321,0.02096504454032321
42.607,0.020864819256591616,0.020864819256591616
42.608,0.018811639305891293,0.018811639305891293
42.609,0.015209553202587787,0.015209553202587787
42.61,0.010389478394197906,0.010389478394197906
42.611,0.004620443240312731,0.004620443240312731
42.612,0.001795670696121696,-0.001795670696121696
42.613,0.008415199403603493,-0.008415199403603493
42.614,0.014602783845201889,-0.014602783845201889
42.615,0.019585620913607896,-0.019585620913607896
42.616,0.02260955611420503,-0.02260955611420503
42.617,0.023147433312790826,-0.023147433312790826
42.618,0.0210820980156903,-0.0210820980156903
42.619,0.01678896319863926,-0.01678896319863926
42.62,0.011075553000233431,-0.011075553000233431
42.620999999999995,0.00498598471504278,-0.00498598471504278
42.622,0.000471836964306043,0.000471836964306043
