Czas,AbsSum,Sum
55.141999999999996,0.0037413303316208174,-0.0037413303316208174
55.143,0.0002911362547290493,-0.0002911362547290493
55.144,0.003223651826074848,0.003223651826074848
55.144999999999996,0.00610826177065706,0.00610826177065706
55.146,0.007837575964544034,0.007837575964544034
55.147,0.008237928305167199,0.008237928305167199
55.147999999999996,0.007545658571716858,0.007545658571716858
55.149,0.006313114842874097,0.006313114842874097
55.15,0.005190790143663969,0.005190790143663969
55.150999999999996,0.0046643655728983635,0.0046643655728983635
55.152,0.004847725024294396,0.004847725024294396
55.153,0.005417353207584481,0.005417353207584481
55.153999999999996,0.00572385082286443,0.00572385082286443
55.155,0.005049749491147795,0.005049749491147795
55.156,0.0029238517117020097,0.0029238517117020097
55.157,0.0006261930705632254,-0.0006261930705632254
55.158,0.004986903023210798,-0.004986903023210798
55.159,0.009086920542413921,-0.009086920542413921
55.16,0.011712824105126817,-0.011712824105126817
55.161,0.011914394205476879,-0.011914394205476879
55.162,0.009361225603720356,-0.009361225603720356
55.163,0.004520581147862066,-0.004520581147862066
55.164,0.0014184942332105721,0.0014184942332105721
55.165,0.006865224496965769,0.006865224496965769
55.166,0.010296715798104799,0.010296715798104799
55.167,0.010727163069256402,0.010727163069256402
55.168,0.00802146746133382,0.00802146746133382
55.169,0.002946265273002233,0.002946265273002233
55.17,0.0030626267309320485,-0.0030626267309320485
55.171,0.008342749940968158,-0.008342749940968158
55.172,0.011513469736053189,-0.011513469736053189
55.173,0.011884643843316252,-0.011884643843316252
55.174,0.009634621829294778,-0.009634621829294778
55.175,0.005705999188670432,-0.005705999188670432
55.176,0.0014635584619010643,-0.0014635584619010643
55.177,0.0017620330952501403,0.0017620330952501403
55.178,0.003086442250796206,0.003086442250796206
55.179,0.002302727778639071,0.002302727778639071
55.18,0.0001369591714103044,-0.0001369591714103044
55.181,0.0033660379787268627,-0.0033660379787268627
55.182,0.006471123935423196,-0.006471123935423196
55.183,0.008838493028117726,-0.008838493028117726
55.184,0.010348479660532607,-0.010348479660532607
55.185,0.011348534245390061,-0.011348534245390061
55.186,0.012422478048596447,-0.012422478048596447
55.187,0.014053040849614092,-0.014053040849614092
55.187999999999995,0.016317304800913555,-0.016317304800913555
55.189,0.018744087049512026,-0.018744087049512026
55.19,0.02040207621643144,-0.02040207621643144
55.190999999999995,0.020199648574061323,-0.020199648574061323
55.192,0.017294200124568657,-0.017294200124568657
55.193,0.011461681574882887,-0.011461681574882887
55.193999999999996,0.0032841653820771077,-0.0032841653820771077
55.195,0.005926620199936621,0.005926620199936621
55.196,0.0144595660182988,0.0144595660182988
55.196999999999996,0.020686485746643054,0.020686485746643054
55.198,0.023537091470219842,0.023537091470219842
55.199,0.02280520967632449,0.02280520967632449
55.199999999999996,0.01918009518854286,0.01918009518854286
55.201,0.013990626801719586,0.013990626801719586
55.202,0.008749893578207883,0.008749893578207883
55.202999999999996,0.004657855689393719,0.004657855689393719
55.204,0.0022351269983724134,0.0022351269983724134
55.205,0.0012153991935525913,0.0012153991935525913
55.205999999999996,0.0007330377377894597,0.0007330377377894597
55.207,0.0002624354784322205,-0.0002624354784322205
55.208,0.002515121530256911,-0.002515121530256911
55.208999999999996,0.006074851679723655,-0.006074851679723655
55.21,0.010159661675110543,-0.010159661675110543
55.211,0.013330609876580534,-0.013330609876580534
55.211999999999996,0.013932865815868873,-0.013932865815868873
55.213,0.010663058760340217,-0.010663058760340217
55.214,0.003075352550366255,-0.003075352550366255
55.214999999999996,0.008146010725349812,0.008146010725349812
55.216,0.02124693436769894,0.02124693436769894
55.217,0.03378950409401579,0.03378950409401579
55.217999999999996,0.04325302366192739,0.04325302366192739
55.219,0.04767191754693038,0.04767191754693038
55.22,0.046122991445288544,0.046122991445288544
55.221,0.03892476451590324,0.03892476451590324
55.222,0.02750331530575265,0.02750331530575265
55.223,0.013981151237112686,0.013981151237112686
55.224,0.0006246941260042951,0.0006246941260042951
55.225,0.010682163482764743,-0.010682163482764743
55.226,0.018793758279644045,-0.018793758279644045
55.227,0.02340930389877955,-0.02340930389877955
55.228,0.024937276974620608,-0.024937276974620608
55.229,0.02419871178325276,-0.02419871178325276
55.23,0.02209045674406836,-0.02209045674406836
55.231,0.019324507714696834,-0.019324507714696834
55.232,0.016315589718752688,-0.016315589718752688
55.233,0.013225092805227084,-0.013225092805227084
55.234,0.010109764845951233,-0.010109764845951233
55.235,0.007089319088653852,-0.007089319088653852
55.236,0.004448761842160026,-0.004448761842160026
55.237,0.0026255002108389962,-0.0026255002108389962
55.238,0.002083159954120418,-0.002083159954120418
55.239,0.0031229342639709254,-0.0031229342639709254
55.24,0.005710787859058205,-0.005710787859058205
55.241,0.009395331853213182,-0.009395331853213182
55.242,0.013358904849214247,-0.013358904849214247
55.243,0.01659608913415129,-0.01659608913415129
55.244,0.018167702108852827,-0.018167702108852827
55.245,0.017450957400737176,-0.017450957400737176
55.246,0.014307303406688683,-0.014307303406688683
55.247,0.009117287735742035,-0.009117287735742035
55.248,0.0026759536109244274,-0.0026759536109244274
55.249,0.004013267979369573,0.004013267979369573
55.25,0.009978801065852175,0.009978801065852175
55.251,0.014482834255502557,0.014482834255502557
55.251999999999995,0.017131825227554014,0.017131825227554014
55.253,0.017877979743636117,0.017877979743636117
55.254,0.016932027683890197,0.016932027683890197
55.254999999999995,0.014634512263624007,0.014634512263624007
55.256,0.011339979993503826,0.011339979993503826
55.257,0.007354919958642268,0.007354919958642268
55.257999999999996,0.002942637370059849,0.002942637370059849
55.259,0.001622213716954018,-0.001622213716954018
55.26,0.005988275895069263,-0.005988275895069263
55.260999999999996,0.009695011893042896,-0.009695011893042896
55.262,0.012203677069784208,-0.012203677069784208
55.263,0.012996550540232231,-0.012996550540232231
55.263999999999996,0.011720609291525203,-0.011720609291525203
55.265,0.008330844070277958,-0.008330844070277958
55.266,0.0031825879049486904,-0.0031825879049486904
55.266999999999996,0.0029663669444352945,0.0029663669444352945
55.268,0.009058245745185095,0.009058245745185095
55.269,0.013926536564458502,0.013926536564458502
55.269999999999996,0.016534048115996902,0.016534048115996902
55.271,0.016201465494890266,0.016201465494890266
55.272,0.01277118976450849,0.01277118976450849
55.272999999999996,0.006666737063078485,0.006666737063078485
55.274,0.0011671509115231437,-0.0011671509115231437
55.275,0.009431284744881802,-0.009431284744881802
55.275999999999996,0.01671046502609642,-0.01671046502609642
55.277,0.021734730984194036,-0.021734730984194036
55.278,0.023612080640710697,-0.023612080640710697
55.278999999999996,0.021989147122426885,-0.021989147122426885
55.28,0.017111721685964122,-0.017111721685964122
55.281,0.009776403860103242,-0.009776403860103242
55.282,0.0011844401951211644,-0.0011844401951211644
55.283,0.007274113571260598,0.007274113571260598
55.284,0.014265857870945985,0.014265857870945985
55.285,0.018744113784906157,0.018744113784906157
55.286,0.02012149918990889,0.02012149918990889
55.287,0.01835370635543488,0.01835370635543488
55.288,0.013920304203512701,0.013920304203512701
55.289,0.007708878991391108,0.007708878991391108
55.29,0.0008284833691331759,0.0008284833691331759
55.291,0.005607338620701143,-0.005607338620701143
55.292,0.010682376525203574,-0.010682376525203574
55.293,0.01382408315354406,-0.01382408315354406
55.294,0.014868588104570311,-0.014868588104570311
55.295,0.01403852813870868,-0.01403852813870868
55.296,0.01184778318164786,-0.01184778318164786
55.297,0.00896184801889554,-0.00896184801889554
55.298,0.006048396173308173,-0.006048396173308173
55.299,0.003649025690729396,-0.003649025690729396
55.3,0.002092628045279115,-0.002092628045279115
55.301,0.0014576703466957755,-0.0014576703466957755
55.302,0.0015795408161582375,-0.0015795408161582375
55.303,0.0020930566765498797,-0.0020930566765498797
55.304,0.0024997234883056426,-0.0024997234883056426
55.305,0.002252228042600242,-0.002252228042600242
55.306,0.0008513840051925903,-0.0008513840051925903
55.307,0.0020498336434741403,0.0020498336434741403
55.308,0.006545513516713301,0.006545513516713301
55.309,0.012397225816367926,0.012397225816367926
55.31,0.01899959247324576,0.01899959247324576
55.311,0.02541462675814182,0.02541462675814182
55.312,0.03048856858709577,0.03048856858709577
55.312999999999995,0.03304582469597068,0.03304582469597068
55.314,0.03213073809837296,0.03213073809837296
55.315,0.027246808193501778,0.027246808193501778
55.315999999999995,0.018532818300045845,0.018532818300045845
55.317,0.006821784661372961,0.006821784661372961
55.318,0.006447585038571144,-0.006447585038571144
55.318999999999996,0.019461347334869775,-0.019461347334869775
55.32,0.030359016969169945,-0.030359016969169945
55.321,0.03758808947772194,-0.03758808947772194
55.321999999999996,0.04020200143681073,-0.04020200143681073
55.323,0.03803177518802443,-0.03803177518802443
55.324,0.031693643452254894,-0.031693643452254894
55.324999999999996,0.022436988959198382,-0.022436988959198382
55.326,0.011876382691920437,-0.011876382691920437
55.327,0.0016768065922197423,-0.0016768065922197423
55.327999999999996,0.006734382955013793,0.006734382955013793
55.329,0.012371262719810322,0.012371262719810322
55.33,0.01478114942449345,0.01478114942449345
55.330999999999996,0.014029218407036996,0.014029218407036996
55.332,0.010605534785969038,0.010605534785969038
55.333,0.005294327193243318,0.005294327193243318
55.333999999999996,0.000959698187501891,-0.000959698187501891
55.335,0.007168395376626908,-0.007168395376626908
55.336,0.012397887292095122,-0.012397887292095122
55.336999999999996,0.015854880921921475,-0.015854880921921475
55.338,0.016969532615357667,-0.016969532615357667
55.339,0.015473353875644788,-0.015473353875644788
55.339999999999996,0.011457651232124,-0.011457651232124
55.341,0.005389387294144189,-0.005389387294144189
55.342,0.001936597531873825,0.001936597531873825
55.342999999999996,0.00951579420893367,0.00951579420893367
55.344,0.016307199811725116,0.016307199811725116
55.345,0.021424324799622314,0.021424324799622314
55.346,0.024295293910029013,0.024295293910029013
55.347,0.024748034738292145,0.024748034738292145
55.348,0.022997685647745774,0.022997685647745774
55.349,0.019544166846463026,0.019544166846463026
55.35,0.015017076238920015,0.015017076238920015
55.351,0.01002122749959265,0.01002122749959265
55.352,0.005032322221806426,0.005032322221806426
55.353,0.0003692638081548559,0.0003692638081548559
55.354,0.0037637594371605155,-0.0037637594371605155
55.355,0.007202468799343006,-0.007202468799343006
55.356,0.009765894675958835,-0.009765894675958835
55.357,0.01125947665084031,-0.01125947665084031
55.358,0.011549128781355576,-0.011549128781355576
55.359,0.010678317490426593,-0.010678317490426593
55.36,0.008968958669529152,-0.008968958669529152
55.361,0.007039096121533321,-0.007039096121533321
55.362,0.005693038556825455,-0.005693038556825455
55.363,0.0056878322283970975,-0.0056878322283970975
55.364,0.007436957920192733,-0.007436957920192733
55.365,0.010755151254836406,-0.010755151254836406
55.366,0.01475686177925499,-0.01475686177925499
55.367,0.01798567155404939,-0.01798567155404939
55.368,0.018779698825288616,-0.018779698825288616
55.369,0.015790837244439804,-0.015790837244439804
55.37,0.008504628383894802,-0.008504628383894802
55.371,0.002418419708647823,0.002418419708647823
55.372,0.015124478260614194,0.015124478260614194
55.373,0.02692476612564344,0.02692476612564344
55.374,0.034963691048281606,0.034963691048281606
55.375,0.0370184290852377,0.0370184290852377
55.376,0.03218946862228696,0.03218946862228696
55.376999999999995,0.02125490128144936,0.02125490128144936
55.378,0.0065517829807854085,0.0065517829807854085
55.379,0.008609203031043967,-0.008609203031043967
55.379999999999995,0.020839140199727893,-0.020839140199727893
55.381,0.027612179029074795,-0.027612179029074795
55.382,0.02796264130927104,-0.02796264130927104
55.382999999999996,0.022716220447137052,-0.022716220447137052
55.384,0.014177447666512357,-0.014177447666512357
55.385,0.005369481710211556,-0.005369481710211556
55.385999999999996,0.0009313056251863452,0.0009313056251863452
55.387,0.003054612620843618,0.003054612620843618
55.388,0.0009118050542150076,0.0009118050542150076
55.388999999999996,0.004062670889789995,-0.004062670889789995
55.39,0.00947580925845547,-0.00947580925845547
55.391,0.012848020882274864,-0.012848020882274864
55.391999999999996,0.012490777651720457,-0.012490777651720457
55.393,0.008087971436122405,-0.008087971436122405
55.394,0.000783029462362848,-0.000783029462362848
55.394999999999996,0.007253207093299246,0.007253207093299246
55.396,0.013616596438292253,0.013616596438292253
55.397,0.01654072356468907,0.01654072356468907
55.397999999999996,0.015531709332582931,0.015531709332582931
55.399,0.011536250295093111,0.011536250295093111
55.4,0.006577594682774601,0.006577594682774601
55.400999999999996,0.0029846333837211586,0.0029846333837211586
55.402,0.0024878822396449487,0.0024878822396449487
55.403,0.005509657808455752,0.005509657808455752
55.403999999999996,0.010913837542700188,0.010913837542700188
55.405,0.016323294748832737,0.016323294748832737
55.406,0.018914289598163575,0.018914289598163575
55.407,0.016425925306430184,0.016425925306430184
55.408,0.008039536933741764,0.008039536933741764
55.409,0.005182192312985088,-0.005182192312985088
55.41,0.020464108453532373,-0.020464108453532373
55.411,0.034061133643361656,-0.034061133643361656
55.412,0.042347362938531995,-0.042347362938531995
55.413,0.04290680715406156,-0.04290680715406156
55.414,0.03527803801991187,-0.03527803801991187
55.415,0.021117503329324543,-0.021117503329324543
55.416,0.0037351837322154675,-0.0037351837322154675
55.417,0.01284289681314807,0.01284289681314807
55.418,0.024985380443603454,0.024985380443603454
55.419,0.030396581599138828,0.030396581599138828
55.42,0.028615147082036153,0.028615147082036153
55.421,0.020953197200797826,0.020953197200797826
55.422,0.009943302746823222,0.009943302746823222
55.423,0.0014894682740550372,-0.0014894682740550372
55.424,0.010846689581250298,-0.010846689581250298
55.425,0.016617206804596055,-0.016617206804596055
55.426,0.018445093515108407,-0.018445093515108407
55.427,0.016920869911735786,-0.016920869911735786
55.428,0.013140093650981646,-0.013140093650981646
55.429,0.008234661030775003,-0.008234661030775003
55.43,0.003059033810172901,-0.003059033810172901
55.431,0.0018783560586450527,0.0018783560586450527
55.432,0.006267858632539363,0.006267858632539363
55.433,0.009761901788744155,0.009761901788744155
55.434,0.011810419766578038,0.011810419766578038
55.435,0.011690125271283366,0.011690125271283366
55.436,0.008752131527413078,0.008752131527413078
55.437,0.0027993946154928804,0.0027993946154928804
55.437999999999995,0.005574754333053048,-0.005574754333053048
55.439,0.01486673744553894,-0.01486673744553894
55.44,0.02287396287167594,-0.02287396287167594
55.440999999999995,0.027226467264989146,-0.027226467264989146
55.442,0.026095558801878613,-0.026095558801878613
55.443,0.018846406507933518,-0.018846406507933518
55.443999999999996,0.006393608948213713,-0.006393608948213713
55.445,0.008898333433072367,0.008898333433072367
55.446,0.023779296515410123,0.023779296515410123
55.446999999999996,0.03498968701729115,0.03498968701729115
55.448,0.0401781568309125,0.0401781568309125
55.449,0.038563271065951886,0.038563271065951886
55.449999999999996,0.031118050461487294,0.031118050461487294
55.451,0.0202128369634431,0.0202128369634431
55.452,0.00883482567770851,0.00883482567770851
55.452999999999996,0.0003527240738132384,-0.0003527240738132384
55.454,0.005794359813042964,-0.005794359813042964
55.455,0.0074089403471552726,-0.0074089403471552726
55.455999999999996,0.00642701049272606,-0.00642701049272606
55.457,0.004775377356142734,-0.004775377356142734
55.458,0.00424547351174986,-0.00424547351174986
55.458999999999996,0.0057567353865809,-0.0057567353865809
55.46,0.00898804215167593,-0.00898804215167593
55.461,0.01251276081474321,-0.01251276081474321
55.461999999999996,0.014385784560109192,-0.014385784560109192
55.463,0.012962145347746984,-0.012962145347746984
55.464,0.007638063007454323,-0.007638063007454323
55.464999999999996,0.0007704091847348011,0.0007704091847348011
55.466,0.010166726627306867,0.010166726627306867
55.467,0.017798915403282756,0.017798915403282756
55.467999999999996,0.021159638024403824,0.021159638024403824
55.469,0.018846495401927663,0.018846495401927663
55.47,0.011076460566506411,0.011076460566506411
55.471,0.000332693570880358,-0.000332693570880358
55.472,0.012514246311425503,-0.012514246311425503
55.473,0.022450277200290237,-0.022450277200290237
55.474,0.02790694774284623,-0.02790694774284623
55.475,0.028088004066843576,-0.028088004066843576
55.476,0.023789762823823984,-0.023789762823823984
55.477,0.017019383081457982,-0.017019383081457982
55.478,0.010227872263376698,-0.010227872263376698
55.479,0.005441554508946924,-0.005441554508946924
55.48,0.0036035210367282773,-0.0036035210367282773
55.481,0.004351189818758303,-0.004351189818758303
55.482,0.006290226726304794,-0.006290226726304794
55.483,0.007640599510528716,-0.007640599510528716
55.484,0.006995613459155166,-0.006995613459155166
55.485,0.003898735829419611,-0.003898735829419611
55.486,0.0009817763345928727,0.0009817763345928727
55.487,0.006142988550630767,0.006142988550630767
55.488,0.009884529689106828,0.009884529689106828
55.489,0.011040347281379268,0.011040347281379268
55.49,0.009513475816706595,0.009513475816706595
55.491,0.006394602637447633,0.006394602637447633
55.492,0.003602133929928378,0.003602133929928378
55.493,0.003164609677983658,0.003164609677983658
55.494,0.006407037629792185,0.006407037629792185
55.495,0.013347618803835542,0.013347618803835542
55.496,0.02254225693053481,0.02254225693053481
55.497,0.03145525164255592,0.03145525164255592
55.498,0.03724335882447713,0.03724335882447713
55.499,0.037687146754032966,0.037687146754032966
55.5,0.031945092369023355,0.031945092369023355
55.501,0.020864502932271115,0.020864502932271115
55.501999999999995,0.006738552782876565,0.006738552782876565
55.503,0.0074056400279228106,-0.0074056400279228106
55.504,0.018738092403466806,-0.018738092403466806
55.504999999999995,0.025452326545514416,-0.025452326545514416
55.506,0.027206696280854613,-0.027206696280854613
55.507,0.025044945353954923,-0.025044945353954923
55.507999999999996,0.0208521919596287,-0.0208521919596287
55.509,0.01657053056859231,-0.01657053056859231
55.51,0.013480226542036159,-0.013480226542036159
55.510999999999996,0.0118179098398168,-0.0118179098398168
55.512,0.01086566140551874,-0.01086566140551874
55.513,0.009456655975617428,-0.009456655975617428
55.513999999999996,0.006675863977419318,-0.006675863977419318
55.515,0.0024528009357867014,-0.0024528009357867014
55.516,0.0022195950603701264,0.0022195950603701264
55.516999999999996,0.005561785685860492,0.005561785685860492
55.518,0.0057035734484811775,0.0057035734484811775
55.519,0.0015447178751058213,0.0015447178751058213
55.519999999999996,0.006562043532295042,-0.006562043532295042
55.521,0.016607694985474264,-0.016607694985474264
55.522,0.025346100465350845,-0.025346100465350845
55.522999999999996,0.029253373834257957,-0.029253373834257957
55.524,0.025734878632427585,-0.025734878632427585
55.525,0.014169879773461229,-0.014169879773461229
55.525999999999996,0.003592847072064764,0.003592847072064764
55.527,0.023512281446250182,0.023512281446250182
55.528,0.04037778880712474,0.04037778880712474
55.528999999999996,0.04929413762327726,0.04929413762327726
55.53,0.04717499275547383,0.04717499275547383
55.531,0.03376645198503786,0.03376645198503786
55.532,0.011856936543103911,0.011856936543103911
55.533,0.013417799407854793,-0.013417799407854793
55.534,0.0359780699235494,-0.0359780699235494
55.535,0.050488139035991704,-0.050488139035991704
55.536,0.05381339399163077,-0.05381339399163077
55.537,0.045806992770113804,-0.045806992770113804
55.538,0.029202719045086516,-0.029202719045086516
55.539,0.008675997840441162,-0.008675997840441162
55.54,0.010605764793155071,0.010605764793155071
55.541,0.024473754746644538,0.024473754746644538
55.542,0.030827566963217597,0.030827566963217597
55.543,0.029980081721361025,0.029980081721361025
55.544,0.024222999107259488,0.024222999107259488
55.545,0.016814385872835878,0.016814385872835878
55.546,0.010765822858757256,0.010765822858757256
55.547,0.007847845646341556,0.007847845646341556
55.548,0.008130639310495324,0.008130639310495324
55.549,0.010173608955657632,0.010173608955657632
55.55,0.011746803822719986,0.011746803822719986
55.551,0.010789808944607595,0.010789808944607595
55.552,0.0062484033383393344,0.0062484033383393344
55.553,0.00150661055200857,-0.00150661055200857
55.554,0.010808987944457124,-0.010808987944457124
55.555,0.019302384146640015,-0.019302384146640015
55.556,0.024780938524995702,-0.024780938524995702
55.557,0.025950214321247562,-0.025950214321247562
55.558,0.022835473065202734,-0.022835473065202734
55.559,0.016702869204717915,-0.016702869204717915
55.56,0.009541183610638736,-0.009541183610638736
55.561,0.0033101524997364226,-0.0033101524997364226
55.562,0.0007600746273553628,0.0007600746273553628
55.562999999999995,0.0025611947529103033,0.0025611947529103033
55.564,0.003053888251919133,0.003053888251919133
55.565,0.0038002397413816817,0.0038002397413816817
55.565999999999995,0.00626435866171986,0.00626435866171986
55.567,0.011147054664538551,0.011147054664538551
55.568,0.018005269170969434,0.018005269170969434
55.568999999999996,0.025301061328359235,0.025301061328359235
55.57,0.030868014658939,0.030868014658939
55.571,0.032632119197495285,0.032632119197495285
55.571999999999996,0.02933328728061245,0.02933328728061245
55.573,0.020994046274479917,0.020994046274479917
55.574,0.00897192798931174,0.00897192798931174
55.574999999999996,0.004421741710574704,-0.004421741710574704
55.576,0.01660408011025459,-0.01660408011025459
55.577,0.025470438503929677,-0.025470438503929677
55.577999999999996,0.02996057187443415,-0.02996057187443415
55.579,0.030259737004968326,-0.030259737004968326
55.58,0.02758393735879633,-0.02758393735879633
55.580999999999996,0.02364305280684231,-0.02364305280684231
55.582,0.019983298914668667,-0.019983298914668667
55.583,0.017444917004138295,-0.017444917004138295
55.583999999999996,0.015922292003913298,-0.015922292003913298
55.585,0.014501118804115174,-0.014501118804115174
55.586,0.011911699338222233,-0.011911699338222233
55.586999999999996,0.007126631396659691,-0.007126631396659691
55.588,0.00011722135799314136,0.00011722135799314136
55.589,0.009063441965528963,0.009063441965528963
55.589999999999996,0.018043805749383142,0.018043805749383142
55.591,0.02491946022252801,0.02491946022252801
55.592,0.02771242302963911,0.02771242302963911
55.592999999999996,0.025221319396133486,0.025221319396133486
55.594,0.017422591047362553,0.017422591047362553
55.595,0.005531316858799921,0.005531316858799921
55.596,0.00829223204151354,-0.00829223204151354
55.597,0.021491664213745217,-0.021491664213745217
55.598,0.031744584199344006,-0.031744584199344006
55.599,0.037483111703545624,-0.037483111703545624
55.6,0.038160366779661774,-0.038160366779661774
55.601,0.03420860167761328,-0.03420860167761328
55.602,0.02673672625944219,-0.02673672625944219
55.603,0.017094694488882435,-0.017094694488882435
55.604,0.006464446288277421,-0.006464446288277421
55.605,0.004386314836671137,0.004386314836671137
55.606,0.015119584892865303,0.015119584892865303
55.607,0.02563203398861961,0.02563203398861961
55.608,0.03574719393749892,0.03574719393749892
55.609,0.044933374106148324,0.044933374106148324
55.61,0.052177110600226076,0.052177110600226076
55.611,0.056087415731955206,0.056087415731955206
55.612,0.05522424466281619,0.05522424466281619
55.613,0.04856241897016467,0.04856241897016467
55.614,0.03594649792329605,0.03594649792329605
55.615,0.01838103190904938,0.01838103190904938
55.616,0.001961325999611791,-0.001961325999611791
55.617,0.02205473638384246,-0.02205473638384246
55.618,0.03860583019065058,-0.03860583019065058
55.619,0.04877516527292108,-0.04877516527292108
55.62,0.0508516730988621,-0.0508516730988621
55.621,0.04469885183038964,-0.04469885183038964
55.622,0.03184345323383517,-0.03184345323383517
55.623,0.01516686306387316,-0.01516686306387316
55.624,0.0017371892130230472,0.0017371892130230472
55.625,0.01538529571381828,0.01538529571381828
55.626,0.023202876858391397,0.023202876858391397
55.626999999999995,0.02409603045602603,0.02409603045602603
55.628,0.01865035279808328,0.01865035279808328
55.629,0.008906748635686542,0.008906748635686542
55.629999999999995,0.002224323474983071,-0.002224323474983071
55.631,0.011752354447786266,-0.011752354447786266
55.632,0.01738776556485596,-0.01738776556485596
55.632999999999996,0.01810552468455484,-0.01810552468455484
55.634,0.01434398344045568,-0.01434398344045568
55.635,0.007794512974122598,-0.007794512974122598
55.635999999999996,0.000853160990055204,-0.000853160990055204
55.637,0.004099550975265355,0.004099550975265355
55.638,0.005378551857812819,0.005378551857812819
55.638999999999996,0.002438743224708547,0.002438743224708547
55.64,0.0040356316129889986,-0.0040356316129889986
55.641,0.012405549987133838,-0.012405549987133838
55.641999999999996,0.02061226834152807,-0.02061226834152807
55.643,0.02679144709511914,-0.02679144709511914
55.644,0.02976634910839264,-0.02976634910839264
55.644999999999996,0.0292674024395866,-0.0292674024395866
55.646,0.025823404213839232,-0.025823404213839232
55.647,0.020385887793749516,-0.020385887793749516
55.647999999999996,0.013843176016607157,-0.013843176016607157
55.649,0.006620923305764623,-0.006620923305764623
55.65,0.0014642825301648804,0.0014642825301648804
55.650999999999996,0.011024357601632943,0.011024357601632943
55.652,0.022643152575364003,0.022643152575364003
55.653,0.036308830033885846,0.036308830033885846
55.653999999999996,0.05096171151844175,0.05096171151844175
55.655,0.06436763335132219,0.06436763335132219
55.656,0.0734323759793679,0.0734323759793679
55.657,0.07492743019417146,0.07492743019417146
55.658,0.06644769714063291,0.06644769714063291
55.659,0.04731865995773029,0.04731865995773029
55.66,0.01915254491232345,0.01915254491232345
55.661,0.014167716155323423,-0.014167716155323423
55.662,0.04714060804013459,-0.04714060804013459
55.663,0.07380877906198481,-0.07380877906198481
55.664,0.08914419607588978,-0.08914419607588978
55.665,0.09028394657898124,-0.09028394657898124
55.666,0.077269923614202,-0.077269923614202
55.667,0.05307508371424705,-0.05307508371424705
55.668,0.022895928159999936,-0.022895928159999936
55.669,0.007103287960091631,0.007103287960091631
55.67,0.03125630177915147,0.03125630177915147
55.671,0.04567819522393513,0.04567819522393513
55.672,0.04903395384078052,0.04903395384078052
55.673,0.042613905448805174,0.042613905448805174
55.674,0.029737724947406202,0.029737724947406202
55.675,0.01469376202882739,0.01469376202882739
55.676,0.00153633716743642,0.00153633716743642
55.677,0.006920552707744271,-0.006920552707744271
55.678,0.009657855345352162,-0.009657855345352162
55.679,0.007450001362403968,-0.007450001362403968
55.68,0.002371406593772131,-0.002371406593772131
55.681,0.0029909624563158508,0.0029909624563158508
55.682,0.006358640757225718,0.006358640757225718
55.683,0.00637767273495535,0.00637767273495535
55.684,0.0028812625071585884,0.0028812625071585884
55.685,0.0032254798915462156,-0.0032254798915462156
55.686,0.010368237094795134,-0.010368237094795134
55.687,0.016831655854776608,-0.016831655854776608
55.687999999999995,0.02123966873257696,-0.02123966873257696
55.689,0.022858511066424815,-0.022858511066424815
55.69,0.021669645016144396,-0.021669645016144396
55.690999999999995,0.018239092398670536,-0.018239092398670536
55.692,0.013465037136686519,-0.013465037136686519
55.693,0.008302883189909703,-0.008302883189909703
55.693999999999996,0.003547918387287434,-0.003547918387287434
55.695,0.0002850835045237478,0.0002850835045237478
55.696,0.002988508491612617,0.002988508491612617
55.696999999999996,0.004625281943367974,0.004625281943367974
55.698,0.005464224961548962,0.005464224961548962
55.699,0.005908916892410144,0.005908916892410144
55.699999999999996,0.006421669321654995,0.006421669321654995
55.701,0.007431970710850258,0.007431970710850258
55.702,0.009222780583623085,0.009222780583623085
55.702999999999996,0.011807363604655589,0.011807363604655589
55.704,0.01483367596511778,0.01483367596511778
55.705,0.01756774814376011,0.01756774814376011
55.705999999999996,0.01899965989217788,0.01899965989217788
55.707,0.01808219517992227,0.01808219517992227
55.708,0.014061678446338297,0.014061678446338297
55.708999999999996,0.006811244043984438,0.006811244043984438
55.71,0.0029495585166924064,-0.0029495585166924064
55.711,0.01365245212730777,-0.01365245212730777
55.711999999999996,0.023144913437937616,-0.023144913437937616
55.713,0.02918832390761903,-0.02918832390761903
55.714,0.030071572591630083,-0.030071572591630083
55.714999999999996,0.02516476358898639,-0.02516476358898639
55.716,0.015232414044599095,-0.015232414044599095
55.717,0.0023800423112200473,-0.0023800423112200473
55.717999999999996,0.010390020474720362,0.010390020474720362
55.719,0.019918287383164826,0.019918287383164826
55.72,0.023729085851279825,0.023729085851279825
55.721,0.020734220376645,0.020734220376645
55.722,0.011588163939873527,0.011588163939873527
55.723,0.001422366475964323,-0.001422366475964323
55.724,0.014938321020117377,-0.014938321020117377
55.725,0.025389843949687258,-0.025389843949687258
55.726,0.02992238832943567,-0.02992238832943567
55.727,0.027131650496179948,-0.027131650496179948
55.728,0.017408711500996422,-0.017408711500996422
55.729,0.0028112811101424964,-0.0028112811101424964
55.73,0.013487416928984067,0.013487416928984067
55.731,0.028005587749590295,0.028005587749590295
55.732,0.037788450608616214,0.037788450608616214
55.733,0.04105399565318723,0.04105399565318723
55.734,0.03750096489985877,0.03750096489985877
55.735,0.02823705950442251,0.02823705950442251
55.736,0.015391420581196006,0.015391420581196006
55.737,0.0015495806864572264,0.0015495806864572264
55.738,0.010827004682151318,-0.010827004682151318
55.739,0.019860915814023262,-0.019860915814023262
55.74,0.024521930944576033,-0.024521930944576033
55.741,0.024684784117772224,-0.024684784117772224
55.742,0.021024579891190824,-0.021024579891190824
55.743,0.014814648857749736,-0.014814648857749736
55.744,0.007683651722064905,-0.007683651722064905
55.745,0.001363626293623584,-0.001363626293623584
55.746,0.0025634392258843267,0.0025634392258843267
55.747,0.00292097438642557,0.00292097438642557
55.748,0.0008174333786826522,-0.0008174333786826522
55.749,0.008333268355453423,-0.008333268355453423
55.75,0.01838163416567191,-0.01838163416567191
55.751,0.028889584026249776,-0.028889584026249776
55.751999999999995,0.03727190353301564,-0.03727190353301564
55.753,0.04094365098471699,-0.04094365098471699
55.754,0.03793751485482483,-0.03793751485482483
55.754999999999995,0.02747588829735291,-0.02747588829735291
55.756,0.010328215916613856,-0.010328215916613856
55.757,0.011181337336754778,0.011181337336754778
55.757999999999996,0.03356553515151748,0.03356553515151748
55.759,0.052900717760858675,0.052900717760858675
55.76,0.06571675876917547,0.06571675876917547
55.760999999999996,0.06981466768521523,0.06981466768521523
55.762,0.06478094465127406,0.06478094465127406
55.763,0.05204528958028535,0.05204528958028535
55.763999999999996,0.034458143889007746,0.034458143889007746
55.765,0.015507559697313517,0.015507559697313517
55.766,0.0015947273909069713,-0.0015947273909069713
55.766999999999996,0.014687450746348505,-0.014687450746348505
55.768,0.02306798336555102,-0.02306798336555102
55.769,0.027425397291233295,-0.027425397291233295
55.769999999999996,0.029342224279451223,-0.029342224279451223
55.771,0.03054785302665814,-0.03054785302665814
55.772,0.03218565418507065,-0.03218565418507065
55.772999999999996,0.0343480974041397,-0.0343480974041397
55.774,0.03604091680332307,-0.03604091680332307
55.775,0.0355890303989489,-0.0355890303989489
55.775999999999996,0.03134265622209082,-0.03134265622209082
55.777,0.02243390585279055,-0.02243390585279055
55.778,0.009309452733604113,-0.009309452733604113
55.778999999999996,0.006166365039535921,0.006166365039535921
55.78,0.021102667348821047,0.021102667348821047
55.781,0.03236467708905177,0.03236467708905177
55.782,0.03750700489039819,0.03750700489039819
55.783,0.035554683221120396,0.035554683221120396
55.784,0.027365934594672587,0.027365934594672587
55.785,0.015436960069851909,0.015436960069851909
55.786,0.0031857207390672947,0.0031857207390672947
55.787,0.006077588288329657,-0.006077588288329657
55.788,0.010176510865737788,-0.010176510865737788
55.789,0.008763177255252027,-0.008763177255252027
55.79,0.0034482255398055267,-0.0034482255398055267
55.791,0.0026969179294168122,0.0026969179294168122
55.792,0.006131901846294823,0.006131901846294823
55.793,0.00403967118044306,0.00403967118044306
55.794,0.004648222832113465,-0.004648222832113465
55.795,0.018722404591509593,-0.018722404591509593
55.796,0.03485132363103972,-0.03485132363103972
55.797,0.048408548965251146,-0.048408548965251146
55.798,0.05475489633063165,-0.05475489633063165
55.799,0.05061462516752201,-0.05061462516752201
55.8,0.035144670565722735,-0.035144670565722735
55.801,0.010372907743301468,-0.010372907743301468
55.802,0.019145145396046444,0.019145145396046444
55.803,0.04738137665970027,0.04738137665970027
55.804,0.06832805316170198,0.06832805316170198
55.805,0.07752621012813728,0.07752621012813728
55.806,0.07321102517556043,0.07321102517556043
55.807,0.05675778323111948,0.05675778323111948
55.808,0.03230357073279681,0.03230357073279681
55.809,0.005646991956236364,0.005646991956236364
55.81,0.017272925993709366,-0.017272925993709366
55.811,0.03190267748566824,-0.03190267748566824
55.812,0.03619037763699897,-0.03619037763699897
55.812999999999995,0.03099393012930849,-0.03099393012930849
55.814,0.019682046176571738,-0.019682046176571738
55.815,0.007054019448851689,-0.007054019448851689
55.815999999999995,0.0021075954706698745,0.0021075954706698745
55.817,0.004438415474547849,0.004438415474547849
55.818,0.0010474272005844092,-0.0010474272005844092
55.818999999999996,0.012704470741318936,-0.012704470741318936
55.82,0.026774201259266318,-0.026774201259266318
55.821,0.038518592458984376,-0.038518592458984376
55.821999999999996,0.04363925110322232,-0.04363925110322232
55.823,0.03957323948034491,-0.03957323948034491
55.824,0.026293960459494177,-0.026293960459494177
55.824999999999996,0.0063882352153356295,-0.0063882352153356295
55.826,0.015612253057452789,0.015612253057452789
55.827,0.03445495165870511,0.03445495165870511
55.827999999999996,0.045599145889672774,0.045599145889672774
55.829,0.046453912548884764,0.046453912548884764
55.83,0.03707625131610356,0.03707625131610356
55.830999999999996,0.020140040199336323,0.020140040199336323
55.832,0.0001938078506706934,0.0001938078506706934
55.833,0.01757575818002409,-0.01757575818002409
55.833999999999996,0.028723949885422477,-0.028723949885422477
55.835,0.030689758189738403,-0.030689758189738403
55.836,0.023394592719802286,-0.023394592719802286
55.836999999999996,0.009154736600068944,-0.009154736600068944
55.838,0.008039456721330282,0.008039456721330282
55.839,0.02365105683521258,0.02365105683521258
55.839999999999996,0.03380247514893386,0.03380247514893386
55.841,0.03622798917944654,0.03622798917944654
55.842,0.03073196547639229,0.03073196547639229
55.842999999999996,0.01906584429160351,0.01906584429160351
55.844,0.004305422818851253,0.004305422818851253
55.845,0.010057281829964078,-0.010057281829964078
55.846,0.02103284298163486,-0.02103284298163486
55.847,0.02681338452809945,-0.02681338452809945
55.848,0.027055920648057962,-0.027055920648057962
55.849,0.02274490370053976,-0.02274490370053976
55.85,0.01573226655998105,-0.01573226655998105
55.851,0.00813245648977586,-0.00813245648977586
55.852,0.0017651326344788319,-0.0017651326344788319
55.853,0.00220805951285117,0.00220805951285117
55.854,0.003391564142553376,0.003391564142553376
55.855,0.0020391580288773945,0.0020391580288773945
55.856,0.0011915218799018678,-0.0011915218799018678
55.857,0.005496273551626998,-0.005496273551626998
55.858,0.010102209609901774,-0.010102209609901774
55.859,0.014331348323538103,-0.014331348323538103
55.86,0.0175762938862982,-0.0175762938862982
55.861,0.01925492260305982,-0.01925492260305982
55.862,0.018815191232848864,-0.018815191232848864
55.863,0.01582900505122035,-0.01582900505122035
55.864,0.010160591071105226,-0.010160591071105226
55.865,0.0021439274082392674,-0.0021439274082392674
55.866,0.007321349148937632,0.007321349148937632
55.867,0.016832347432216607,0.016832347432216607
55.868,0.02473004333229175,0.02473004333229175
55.869,0.029487896178461648,0.029487896178461648
55.87,0.030136042379144495,0.030136042379144495
55.871,0.026584648545969054,0.026584648545969054
55.872,0.019726382938902647,0.019726382938902647
55.873,0.011259301254634427,0.011259301254634427
55.874,0.003259162496969534,0.003259162496969534
55.875,0.00238490846079495,-0.00238490846079495
55.876,0.0045051600501368975,-0.0045051600501368975
55.876999999999995,0.002994061951676752,-0.002994061951676752
55.878,0.0011643505207842512,0.0011643505207842512
55.879,0.006189066998407218,0.006189066998407218
55.879999999999995,0.010039107843080904,0.010039107843080904
55.881,0.011032032984079952,0.011032032984079952
55.882,0.008355870188481445,0.008355870188481445
55.882999999999996,0.002318698704527637,0.002318698704527637
55.884,0.005738358635594053,-0.005738358635594053
55.885,0.013834662227891783,-0.013834662227891783
55.885999999999996,0.01992652870490864,-0.01992652870490864
55.887,0.022490030876426002,-0.022490030876426002
55.888,0.020936845688066134,-0.020936845688066134
55.888999999999996,0.015746885730667817,-0.015746885730667817
55.89,0.008292174648198782,-0.008292174648198782
55.891,0.0004207540917111105,-0.0004207540917111105
55.891999999999996,0.006062657103032146,0.006062657103032146
55.893,0.009861037183982204,0.009861037183982204
55.894,0.010465174827151858,0.010465174827151858
55.894999999999996,0.008186984466284167,0.008186984466284167
55.896,0.003964030756945395,0.003964030756945395
55.897,0.0009792728085026845,-0.0009792728085026845
55.897999999999996,0.005494543649523651,-0.005494543649523651
55.899,0.008784901793750055,-0.008784901793750055
55.9,0.010524282678872027,-0.010524282678872027
55.900999999999996,0.010811858054529444,-0.010811858054529444
55.902,0.010008208904441184,-0.010008208904441184
55.903,0.008532331622289693,-0.008532331622289693
55.903999999999996,0.006699402730596346,-0.006699402730596346
55.905,0.004651671256216363,-0.004651671256216363
55.906,0.002391800285545099,-0.002391800285545099
55.907,0.00011334302732099134,0.00011334302732099134
55.908,0.0028150503210735527,0.0028150503210735527
55.909,0.00550822195426836,0.00550822195426836
55.91,0.007834944166625113,0.007834944166625113
55.911,0.009367225821940054,0.009367225821940054
55.912,0.009737632303662582,0.009737632303662582
55.913,0.008768105768736484,0.008768105768736484
55.914,0.006548708587829628,0.006548708587829628
55.915,0.0034375205928835416,0.0034375205928835416
55.916,1.802600141417208e-05,-1.802600141417208e-05
55.917,0.0032109368297390255,-0.0032109368297390255
55.918,0.005612781044533236,-0.005612781044533236
55.919,0.00687852247206222,-0.00687852247206222
55.92,0.0068922111335882165,-0.0068922111335882165
55.921,0.005750823483857788,-0.005750823483857788
55.922,0.0037045590606757163,-0.0037045590606757163
55.923,0.0010829964415836962,-0.0010829964415836962
55.924,0.001765528140922952,0.001765528140922952
55.925,0.004506790122572657,0.004506790122572657
55.926,0.006828313946464636,0.006828313946464636
55.927,0.008437690368496455,0.008437690368496455
55.928,0.009071380456678274,0.009071380456678274
55.929,0.008526766025928419,0.008526766025928419
55.93,0.0067156445186929235,0.0067156445186929235
55.931,0.0037220441485749677,0.0037220441485749677
55.932,0.00016165728819941084,-0.00016165728819941084
55.933,0.004444203985825113,-0.004444203985825113
55.934,0.008501257875029783,-0.008501257875029783
55.935,0.01168868718116513,-0.01168868718116513
55.936,0.013476036962037039,-0.013476036962037039
55.937,0.013562861691868152,-0.013562861691868152
55.937999999999995,0.011943391852605255,-0.011943391852605255
55.939,0.008900109939732618,-0.008900109939732618
55.94,0.004929027927598368,-0.004929027927598368
55.940999999999995,0.0006208254995272652,-0.0006208254995272652
55.942,0.003465180117507247,0.003465180117507247
55.943,0.006897530611037284,0.006897530611037284
55.943999999999996,0.009415874229454516,0.009415874229454516
55.945,0.010917869613643267,0.010917869613643267
55.946,0.011407052326149927,0.011407052326149927
55.946999999999996,0.010931525248317264,0.010931525248317264
55.948,0.009543514860606407,0.009543514860606407
55.949,0.007297893712044119,0.007297893712044119
55.949999999999996,0.0042885910049689545,0.0042885910049689545
55.951,0.0007030314578147524,0.0007030314578147524
55.952,0.003136161099501476,-0.003136161099501476
55.952999999999996,0.006771468298494007,-0.006771468298494007
55.954,0.009668309480821794,-0.009668309480821794
55.955,0.01132463455389488,-0.01132463455389488
55.955999999999996,0.011405287976738229,-0.011405287976738229
55.957,0.00986071890461053,-0.00986071890461053
55.958,0.006989073872350611,-0.006989073872350611
55.958999999999996,0.0034138079901549277,-0.0034138079901549277
55.96,2.812779579890192e-05,2.812779579890192e-05
55.961,0.0024667221608049078,0.0024667221608049078
55.961999999999996,0.0032063984476729023,0.0032063984476729023
55.963,0.0019093237519013854,0.0019093237519013854
55.964,0.0012927097884464903,-0.0012927097884464903
55.964999999999996,0.005788798520320694,-0.005788798520320694
55.966,0.010588926836823062,-0.010588926836823062
55.967,0.014515337462980149,-0.014515337462980149
55.967999999999996,0.01644660680070354,-0.01644660680070354
55.969,0.015564092603412258,-0.015564092603412258
55.97,0.011549414834021192,-0.011549414834021192
55.971,0.0046907294606843165,-0.0046907294606843165
55.972,0.004127484451071042,0.004127484451071042
55.973,0.013554744988765736,0.013554744988765736
55.974,0.022005767690892422,0.022005767690892422
55.975,0.027952853823340795,0.027952853823340795
55.976,0.030225192797682158,0.030225192797682158
55.977,0.028255286462389298,0.028255286462389298
55.978,0.02221855216841076,0.02221855216841076
55.979,0.013029965215237848,0.013029965215237848
55.98,0.0021893953914483505,0.0021893953914483505
55.981,0.008499803840003364,-0.008499803840003364
55.982,0.017283658287702824,-0.017283658287702824
55.983,0.022806149438291033,-0.022806149438291033
55.984,0.024374298040555315,-0.024374298040555315
55.985,0.022076936536502032,-0.022076936536502032
55.986,0.016728114369494878,-0.016728114369494878
55.987,0.009649349309720508,-0.009649349309720508
55.988,0.002346239634397449,-0.002346239634397449
55.989,0.003837572438729069,0.003837572438729069
55.99,0.00800097326648188,0.00800097326648188
55.991,0.009831831283449362,0.009831831283449362
55.992,0.009589523787807848,0.009589523787807848
55.993,0.007940628681005249,0.007940628681005249
55.994,0.005705730530114094,0.005705730530114094
55.995,0.0035977222658882175,0.0035977222658882175
55.996,0.0020293732527135325,0.0020293732527135325
55.997,0.0010416665849201034,0.0010416665849201034
55.998,0.0003634536849580814,0.0003634536849580814
55.999,0.0004290991624328429,-0.0004290991624328429
56.0,0.0017143884475769628,-0.0017143884475769628
56.001,0.0036577333879467904,-0.0036577333879467904
56.001999999999995,0.006128312590729403,-0.006128312590729403
56.003,0.008722887671991504,-0.008722887671991504
56.004,0.010881536814472691,-0.010881536814472691
56.004999999999995,0.012051410088328196,-0.012051410088328196
56.006,0.01184255145578586,-0.01184255145578586
56.007,0.010127949407641596,-0.010127949407641596
56.007999999999996,0.007063676840897981,-0.007063676840897981
56.009,0.00303441884000179,-0.00303441884000179
56.01,0.0014464026223554088,0.0014464026223554088
56.010999999999996,0.0058426914025554045,0.0058426914025554045
56.012,0.009675024680440006,0.009675024680440006
56.013,0.012558804482449913,0.012558804482449913
56.013999999999996,0.014208381453778991,0.014208381453778991
56.015,0.014429420110908255,0.014429420110908255
56.016,0.01312374614594897,0.01312374614594897
56.016999999999996,0.010319126074172942,0.010319126074172942
56.018,0.006216499542362438,0.006216499542362438
56.019,0.0012286860755587406,0.0012286860755587406
56.019999999999996,0.004022985013947762,-0.004022985013947762
56.021,0.008779050926401034,-0.008779050926401034
56.022,0.012280938699378047,-0.012280938699378047
56.022999999999996,0.013950526082986334,-0.013950526082986334
56.024,0.01355790239648594,-0.01355790239648594
56.025,0.011317399515474991,-0.011317399515474991
56.025999999999996,0.007866617322527155,-0.007866617322527155
56.027,0.004117406847072082,-0.004117406847072082
56.028,0.0010109628984612102,-0.0010109628984612102
56.028999999999996,0.0007538559638489579,0.0007538559638489579
56.03,0.0009333982922249594,0.0009333982922249594
56.031,0.00018033370944396432,-0.00018033370944396432
56.032,0.001846718185386687,-0.001846718185386687
56.033,0.0031125198871604903,-0.0031125198871604903
56.034,0.003127508534471592,-0.003127508534471592
56.035,0.001439996437990345,-0.001439996437990345
56.036,0.0018256705950852007,0.0018256705950852007
56.037,0.005972938639874794,0.005972938639874794
56.038,0.009924239775253833,0.009924239775253833
56.039,0.01254440267923604,0.01254440267923604
56.04,0.012996346150696683,0.012996346150696683
56.041,0.0110160618572091,0.0110160618572091
56.042,0.007017419920925541,0.007017419920925541
56.043,0.0019901223056642482,0.0019901223056642482
56.044,0.002780896241464833,-0.002780896241464833
56.045,0.0060902277452554825,-0.0060902277452554825
56.046,0.007167276321497797,-0.007167276321497797
56.047,0.0059049793736499915,-0.0059049793736499915
56.048,0.002894367151600849,-0.002894367151600849
56.049,0.0007435188177677794,0.0007435188177677794
56.05,0.003677119354043475,0.003677119354043475
56.051,0.0047420142969041386,0.0047420142969041386
56.052,0.0032708122334688173,0.0032708122334688173
56.053,0.0007122732101892098,-0.0007122732101892098
56.054,0.00647820943535436,-0.00647820943535436
56.055,0.012756908127540356,-0.012756908127540356
56.056,0.018029424438799912,-0.018029424438799912
56.057,0.020873464724421458,-0.020873464724421458
56.058,0.020282422129993222,-0.020282422129993222
56.059,0.015892664246231404,-0.015892664246231404
56.06,0.008079853380681694,-0.008079853380681694
56.061,0.0020861507838657615,0.0020861507838657615
56.062,0.01301354112722162,0.01301354112722162
56.063,0.02285602141386817,0.02285602141386817
56.064,0.0298324365325874,0.0298324365325874
56.065,0.032549083792562106,0.032549083792562106
56.065999999999995,0.03027227375195763,0.03027227375195763
56.067,0.02310039086054574,0.02310039086054574
56.068,0.011994021570489097,0.011994021570489097
56.068999999999996,0.0013574066415197718,-0.0013574066415197718
56.07,0.014823466153268003,-0.014823466153268003
56.071,0.026229414107203978,-0.026229414107203978
56.071999999999996,0.033782763663592175,-0.033782763663592175
56.073,0.03643239107464901,-0.03643239107464901
56.074,0.034068962885452844,-0.034068962885452844
56.074999999999996,0.02750921583853392,-0.02750921583853392
56.076,0.018261821942882384,-0.018261821942882384
56.077,0.008134327622271337,-0.008134327622271337
56.077999999999996,0.0012105628553254202,0.0012105628553254202
56.079,0.008622888248772068,0.008622888248772068
56.08,0.013652343103121118,0.013652343103121118
56.080999999999996,0.016505744994663576,0.016505744994663576
56.082,0.01780172947067723,0.01780172947067723
56.083,0.01821792372045842,0.01821792372045842
56.083999999999996,0.01816335391182276,0.01816335391182276
56.085,0.017600213946491496,0.017600213946491496
56.086,0.016085034511078015,0.016085034511078015
56.086999999999996,0.013017052828866492,0.013017052828866492
56.088,0.00799994855464828,0.00799994855464828
56.089,0.0011724388707950871,0.0011724388707950871
56.089999999999996,0.006635644311368033,-0.006635644311368033
56.091,0.014009269404055204,-0.014009269404055204
56.092,0.01931008087251934,-0.01931008087251934
56.092999999999996,0.021189353922038558,-0.021189353922038558
56.094,0.019079339133711598,-0.019079339133711598
56.095,0.013480889853715853,-0.013480889853715853
56.096,0.00592190963495771,-0.00592190963495771
56.097,0.0014321526904997478,0.0014321526904997478
56.098,0.006413052644984057,0.006413052644984057
56.099,0.007533516321906608,0.007533516321906608
56.1,0.004493364123277138,0.004493364123277138
56.101,0.0016716140543287892,-0.0016716140543287892
56.102,0.008865670293974713,-0.008865670293974713
56.103,0.014561031026835158,-0.014561031026835158
56.104,0.016583561749069227,-0.016583561749069227
56.105,0.01380318018265882,-0.01380318018265882
56.106,0.006502171667333914,-0.006502171667333914
56.107,0.0037011454944988384,0.0037011454944988384
56.108,0.014348065977203468,0.014348065977203468
56.109,0.022888422740639222,0.022888422740639222
56.11,0.027432563048093127,0.027432563048093127
56.111,0.02725856849406725,0.02725856849406725
56.112,0.022915685285137478,0.022915685285137478
56.113,0.015908898252026706,0.015908898252026706
56.114,0.008097378303690839,0.008097378303690839
56.115,0.0010378416828245199,0.0010378416828245199
56.116,0.004483221701145755,-0.004483221701145755
56.117,0.008562025450196796,-0.008562025450196796
56.118,0.011908019366464394,-0.011908019366464394
56.119,0.015316106687163546,-0.015316106687163546
56.12,0.019108315764355524,-0.019108315764355524
56.121,0.022790060231163322,-0.022790060231163322
56.122,0.025087617336434564,-0.025087617336434564
56.123,0.02438584259130688,-0.02438584259130688
56.124,0.01942219442175061,-0.01942219442175061
56.125,0.009976534052561353,-0.009976534052561353
56.126,0.0027272118489284603,0.0027272118489284603
56.126999999999995,0.016107454237309502,0.016107454237309502
56.128,0.02683317803292127,0.02683317803292127
56.129,0.03179628241104377,0.03179628241104377
56.129999999999995,0.029142426279949934,0.029142426279949934
56.131,0.01900695654202017,0.01900695654202017
56.132,0.003677598006296014,0.003677598006296014
56.132999999999996,0.012916639588903513,-0.012916639588903513
56.134,0.02626817549275711,-0.02626817549275711
56.135,0.032591358690609716,-0.032591358690609716
56.135999999999996,0.029954085413701304,-0.029954085413701304
56.137,0.01887527816315053,-0.01887527816315053
56.138,0.0021883034482088103,-0.0021883034482088103
56.138999999999996,0.0157939091142755,0.0157939091142755
56.14,0.03054920670216715,0.03054920670216715
56.141,0.0386479452896464,0.0386479452896464
56.141999999999996,0.03867524087671488,0.03867524087671488
56.143,0.031493142722710664,0.031493142722710664
56.144,0.01978492763911685,0.01978492763911685
56.144999999999996,0.007062509903310475,0.007062509903310475
56.146,0.0035091352099103535,-0.0035091352099103535
56.147,0.010068282357719822,-0.010068282357719822
56.147999999999996,0.012482359245826706,-0.012482359245826706
56.149,0.012128927357796426,-0.012128927357796426
56.15,0.011148708375966591,-0.011148708375966591
56.150999999999996,0.011471711265474771,-0.011471711265474771
56.152,0.01398957150415483,-0.01398957150415483
56.153,0.018183104883846956,-0.018183104883846956
56.153999999999996,0.022338568650538418,-0.022338568650538418
56.155,0.02426379483725119,-0.02426379483725119
56.156,0.02222729886092425,-0.02222729886092425
56.157,0.01575806272214692,-0.01575806272214692
56.158,0.0059920426293550225,-0.0059920426293550225
56.159,0.004583823386729124,0.004583823386729124
56.16,0.01291782129075838,0.01291782129075838
56.161,0.01643963622867349,0.01643963622867349
56.162,0.01399398694630816,0.01399398694630816
56.163,0.006320543087600453,0.006320543087600453
56.164,0.004106181500948697,-0.004106181500948697
56.165,0.013839405969374913,-0.013839405969374913
56.166,0.019574271658432833,-0.019574271658432833
56.167,0.019236113098891987,-0.019236113098891987
56.168,0.012670618743081154,-0.012670618743081154
56.169,0.0016994898727250992,-0.0016994898727250992
56.17,0.01047640801544125,0.01047640801544125
56.171,0.020320478616268962,0.020320478616268962
56.172,0.02509369282247062,0.02509369282247062
56.173,0.023695668775228714,0.023695668775228714
56.174,0.016939030426673524,0.016939030426673524
56.175,0.007183468087371184,0.007183468087371184
56.176,0.0025219423055692814,-0.0025219423055692814
56.177,0.009474887567582357,-0.009474887567582357
56.178,0.012170826559228362,-0.012170826559228362
56.179,0.010684540743147198,-0.010684540743147198
56.18,0.0064754551862160475,-0.0064754551862160475
56.181,0.0017197752784860077,-0.0017197752784860077
56.182,0.0015617586536733684,0.0015617586536733684
56.183,0.0022489133534271243,0.0022489133534271243
56.184,0.00046880385392135236,0.00046880385392135236
56.185,0.0025674958459315856,-0.0025674958459315856
56.186,0.005153911108793472,-0.005153911108793472
56.187,0.0058584973268559415,-0.0058584973268559415
56.188,0.004162074291998958,-0.004162074291998958
56.189,0.0007094308887031016,-0.0007094308887031016
56.19,0.0029319603701653462,0.0029319603701653462
56.190999999999995,0.0049181418310904335,0.0049181418310904335
56.192,0.003931374224613715,0.003931374224613715
56.193,0.00017716792643564965,-0.00017716792643564965
56.193999999999996,0.006169883709566377,-0.006169883709566377
56.195,0.011742285740423932,-0.011742285740423932
56.196,0.0142916513978528,-0.0142916513978528
56.196999999999996,0.011873821823519058,-0.011873821823519058
56.198,0.00400533744598817,-0.00400533744598817
56.199,0.007990691861131003,0.007990691861131003
56.199999999999996,0.021244800715318063,0.021244800715318063
56.201,0.0321475864559411,0.0321475864559411
56.202,0.03744893432266667,0.03744893432266667
56.202999999999996,0.03528833300667478,0.03528833300667478
56.204,0.025810648628765035,0.025810648628765035
56.205,0.011157552227542913,0.011157552227542913
56.205999999999996,0.005166524012455479,-0.005166524012455479
56.207,0.019345924645892958,-0.019345924645892958
56.208,0.028377587382087673,-0.028377587382087673
56.208999999999996,0.030903224548714844,-0.030903224548714844
56.21,0.02749070252895604,-0.02749070252895604
56.211,0.020295563507684668,-0.020295563507684668
56.211999999999996,0.012242044511167843,-0.012242044511167843
56.213,0.006017625986473717,-0.006017625986473717
56.214,0.003224439269375387,-0.003224439269375387
56.214999999999996,0.003961172422377986,-0.003961172422377986
56.216,0.006948695970163023,-0.006948695970163023
56.217,0.010120529556075305,-0.010120529556075305
56.217999999999996,0.011443610960768858,-0.011443610960768858
56.219,0.009668464990629148,-0.009668464990629148
56.22,0.0047501649225902285,-0.0047501649225902285
56.221,0.0021874305485667473,0.0021874305485667473
56.222,0.00930241865795672,0.00930241865795672
56.223,0.014713536993972274,0.014713536993972274
56.224,0.017149359001731323,0.017149359001731323
56.225,0.01633680603406136,0.01633680603406136
56.226,0.01300644559227555,0.01300644559227555
56.227,0.00853951063339323,0.00853951063339323
56.228,0.004411854615995629,0.004411854615995629
56.229,0.0016558305280673401,0.0016558305280673401
56.23,0.0005408489011650671,0.0005408489011650671
56.231,0.0005785171525022064,0.0005785171525022064
56.232,0.0008277110547664888,0.0008277110547664888
56.233,0.0003596738446245568,0.0003596738446245568
56.234,0.001313198715895504,-0.001313198715895504
56.235,0.004019035167154298,-0.004019035167154298
56.236,0.007002760489867836,-0.007002760489867836
56.237,0.009259886208070518,-0.009259886208070518
56.238,0.00998627417646201,-0.00998627417646201
56.239,0.008955316903750924,-0.008955316903750924
56.24,0.006662380869072944,-0.006662380869072944
56.241,0.004168741016184278,-0.004168741016184278
56.242,0.0026973882597484808,-0.0026973882597484808
56.243,0.00313409525307077,-0.00313409525307077
56.244,0.005629402589521285,-0.005629402589521285
56.245,0.009463696031386899,-0.009463696031386899
56.246,0.013240338417536442,-0.013240338417536442
56.247,0.015347515568551491,-0.015347515568551491
56.248,0.014525352610134554,-0.014525352610134554
56.249,0.010330964599946944,-0.010330964599946944
56.25,0.003327886468030627,-0.003327886468030627
56.251,0.005074067910192565,0.005074067910192565
56.251999999999995,0.01307390784363166,0.01307390784363166
56.253,0.01906552521596994,0.01906552521596994
56.254,0.022141769170345667,0.022141769170345667
56.254999999999995,0.022333966128594257,0.022333966128594257
56.256,0.020503160467098717,0.020503160467098717
56.257,0.017930004845820444,0.017930004845820444
56.257999999999996,0.01576378294321061,0.01576378294321061
56.259,0.014544617275708664,0.014544617275708664
56.26,0.01398578024420184,0.01398578024420184
56.260999999999996,0.013104592114988106,0.013104592114988106
56.262,0.010656943702218364,0.010656943702218364
56.263,0.005711885346080075,0.005711885346080075
56.263999999999996,0.001856080600275457,-0.001856080600275457
56.265,0.011155187317111374,-0.011155187317111374
56.266,0.02044355408703071,-0.02044355408703071
56.266999999999996,0.02763428961712761,-0.02763428961712761
56.268,0.030969361005403144,-0.030969361005403144
56.269,0.029623964481338704,-0.029623964481338704
56.269999999999996,0.024019941889385346,-0.024019941889385346
56.271,0.01572513600762721,-0.01572513600762721
56.272,0.006961190161117444,-0.006961190161117444
56.272999999999996,0.00011687984951833246,0.00011687984951833246
56.274,0.004121052962035561,0.004121052962035561
56.275,0.004864760086501303,0.004864760086501303
56.275999999999996,0.0033758236691553314,0.0033758236691553314
56.277,0.0014791732389605571,0.0014791732389605571
56.278,0.0010924779901340883,0.0010924779901340883
56.278999999999996,0.0034807642826111948,0.0034807642826111948
56.28,0.008733311875970328,0.008733311875970328
56.281,0.01565109717586362,0.01565109717586362
56.282,0.022091796191962665,0.022091796191962665
56.283,0.025661202213769437,0.025661202213769437
56.284,0.02451997753083764,0.02451997753083764
56.285,0.018034406039180106,0.018034406039180106
56.286,0.007052578702260986,0.007052578702260986
56.287,0.006285940575597456,-0.006285940575597456
56.288,0.01914297404708039,-0.01914297404708039
56.289,0.028781731937477673,-0.028781731937477673
56.29,0.03331600373423473,-0.03331600373423473
56.291,0.032176214599092944,-0.032176214599092944
56.292,0.026162214895133408,-0.026162214895133408
56.293,0.01709370377071014,-0.01709370377071014
56.294,0.007199254462919458,-0.007199254462919458
56.295,0.0015400137611274321,0.0015400137611274321
56.296,0.007878954741945372,0.007878954741945372
56.297,0.011491405593584088,0.011491405593584088
56.298,0.012827346287864182,0.012827346287864182
56.299,0.012739119719211175,0.012739119719211175
56.3,0.012043780735348815,0.012043780735348815
56.301,0.011194373446056588,0.011194373446056588
56.302,0.01017427661233,0.01017427661233
56.303,0.008631302284269008,0.008631302284269008
56.304,0.0061707692295984076,0.0061707692295984076
56.305,0.0026664096045936727,0.0026664096045936727
56.306,0.0015536304916456951,-0.0015536304916456951
56.307,0.005732669156561449,-0.005732669156561449
56.308,0.008920369025920926,-0.008920369025920926
56.309,0.010325644284617182,-0.010325644284617182
56.31,0.009644827375118839,-0.009644827375118839
56.311,0.007227050106527818,-0.007227050106527818
56.312,0.003998410859492481,-0.003998410859492481
56.313,0.0011583943344264784,-0.0011583943344264784
56.314,0.0002487513128373076,0.0002487513128373076
56.315,0.0002675566832446797,-0.0002675566832446797
56.315999999999995,0.002426649399577697,-0.002426649399577697
56.317,0.005229607059093328,-0.005229607059093328
56.318,0.0072770551664357,-0.0072770551664357
56.318999999999996,0.007250316851587883,-0.007250316851587883
56.32,0.0043933896733544435,-0.0043933896733544435
56.321,0.001171145591800067,0.001171145591800067
56.321999999999996,0.008405064402429484,0.008405064402429484
56.323,0.015615608843467162,0.015615608843467162
56.324,0.02093416589820542,0.02093416589820542
56.324999999999996,0.022860192062077574,0.022860192062077574
56.326,0.020698669434968925,0.020698669434968925
56.327,0.014757586981747828,0.014757586981747828
56.327999999999996,0.006252866217057652,0.006252866217057652
56.329,0.0030373263622194453,-0.0030373263622194453
56.33,0.011251357731136542,-0.011251357731136542
56.330999999999996,0.016906170723660907,-0.016906170723660907
56.332,0.019211655582234873,-0.019211655582234873
56.333,0.018166087068473776,-0.018166087068473776
56.333999999999996,0.014437852928387293,-0.014437852928387293
56.335,0.009103981197551634,-0.009103981197551634
56.336,0.003348417444396653,-0.003348417444396653
56.336999999999996,0.001785109064631326,0.001785109064631326
56.338,0.005531370221187948,0.005531370221187948
56.339,0.007432160378881189,0.007432160378881189
56.339999999999996,0.007297366625130769,0.007297366625130769
56.341,0.00515718754785374,0.00515718754785374
56.342,0.0012491362962597306,0.0012491362962597306
56.342999999999996,0.003953342711082395,-0.003953342711082395
56.344,0.009703713381132965,-0.009703713381132965
56.345,0.014992727846565615,-0.014992727846565615
56.346,0.01865591129945594,-0.01865591129945594
56.347,0.019591906356286104,-0.019591906356286104
56.348,0.017053778937419512,-0.017053778937419512
56.349,0.010929430704887048,-0.010929430704887048
56.35,0.001908043974591155,-0.001908043974591155
56.351,0.008551160037651311,0.008551160037651311
56.352,0.018476394392841263,0.018476394392841263
56.353,0.025821753119381678,0.025821753119381678
56.354,0.028974765106515366,0.028974765106515366
56.355,0.027186836780747136,0.027186836780747136
56.356,0.02079307501025042,0.02079307501025042
56.357,0.011146301474218091,0.011146301474218091
56.358,0.000276136362533626,0.000276136362533626
56.359,0.009630532580097311,-0.009630532580097311
56.36,0.016775557926836753,-0.016775557926836753
56.361,0.02016294359334587,-0.02016294359334587
56.362,0.019765098948386038,-0.019765098948386038
56.363,0.01640814285635207,-0.01640814285635207
56.364,0.011431835897225455,-0.011431835897225455
56.365,0.006247372307336636,-0.006247372307336636
56.366,0.0019399178002051307,-0.0019399178002051307
56.367,0.0009640280083264378,0.0009640280083264378
56.368,0.002510248727882567,0.002510248727882567
56.369,0.0031373428742874614,0.0031373428742874614
56.37,0.003395412116596731,0.003395412116596731
56.371,0.0036819059008201464,0.0036819059008201464
56.372,0.0040955571368443385,0.0040955571368443385
56.373,0.004454314980574031,0.004454314980574031
56.374,0.00445351658237195,0.00445351658237195
56.375,0.0038834486581600714,0.0038834486581600714
56.376,0.0028027384089731916,0.0028027384089731916
56.376999999999995,0.0015839416934436744,0.0015839416934436744
56.378,0.0008019886947543157,0.0008019886947543157
56.379,0.0010032447287131514,0.0010032447287131514
56.379999999999995,0.002446259116391753,0.002446259116391753
56.381,0.0049233490140474165,0.0049233490140474165
56.382,0.007746916254903132,0.007746916254903132
56.382999999999996,0.009924361512718345,0.009924361512718345
56.384,0.010472790434653028,0.010472790434653028
56.385,0.008766984549329022,0.008766984549329022
56.385999999999996,0.004794021919844245,0.004794021919844245
56.387,0.0007853869553694288,-0.0007853869553694288
56.388,0.006803485827767842,-0.006803485827767842
56.388999999999996,0.011933512901858912,-0.011933512901858912
56.39,0.015105157183824859,-0.015105157183824859
56.391,0.01584458346303541,-0.01584458346303541
56.391999999999996,0.014417869090879012,-0.014417869090879012
56.393,0.011722569793256801,-0.011722569793256801
56.394,0.008959727605787888,-0.008959727605787888
56.394999999999996,0.007197146980288509,-0.007197146980288509
56.396,0.006975979903270962,-0.006975979903270962
56.397,0.008101106497561244,-0.008101106497561244
56.397999999999996,0.009694466686031558,-0.009694466686031558
56.399,0.010500042852026829,-0.010500042852026829
56.4,0.009340832461240735,-0.009340832461240735
56.400999999999996,0.005572775011581824,-0.005572775011581824
56.402,0.0006220806371666803,0.0006220806371666803
56.403,0.008209311716667722,0.008209311716667722
56.403999999999996,0.01556031850637399,0.01556031850637399
56.405,0.02091703194365939,0.02091703194365939
56.406,0.022915277842619673,0.022915277842619673
56.407,0.020998391003246887,0.020998391003246887
56.408,0.015588296743980358,0.015588296743980358
56.409,0.007960761684128563,0.007960761684128563
56.41,0.00013220468858516176,-0.00013220468858516176
56.411,0.006969136323916785,-0.006969136323916785
56.412,0.011332956371818682,-0.011332956371818682
56.413,0.012805384605674172,-0.012805384605674172
56.414,0.011798561939518323,-0.011798561939518323
56.415,0.009328849494987605,-0.009328849494987605
56.416,0.006621034253694668,-0.006621034253694668
56.417,0.004681892690169159,-0.004681892690169159
56.418,0.003984596082507815,-0.003984596082507815
56.419,0.004360950350380405,-0.004360950350380405
56.42,0.005123909524893939,-0.005123909524893939
56.421,0.0053645785458029515,-0.0053645785458029515
56.422,0.0043125002673644166,-0.0043125002673644166
56.423,0.0016329383612363176,-0.0016329383612363176
56.424,0.002436864600059887,0.002436864600059887
56.425,0.007150727093967026,0.007150727093967026
56.426,0.011484896399010765,0.011484896399010765
56.427,0.014452095675251991,0.014452095675251991
56.428,0.015390253253125678,0.015390253253125678
56.429,0.014133574310470213,0.014133574310470213
56.43,0.011019551759938077,0.011019551759938077
56.431,0.006744006839799529,0.006744006839799529
56.432,0.0021262947771776646,0.0021262947771776646
56.433,0.0021283752994072994,-0.0021283752994072994
56.434,0.005589902270664971,-0.005589902270664971
56.435,0.008142640366739572,-0.008142640366739572
56.436,0.009906141674848452,-0.009906141674848452
56.437,0.011083416509044394,-0.011083416509044394
56.438,0.011805933304474818,-0.011805933304474818
56.439,0.01204048253445848,-0.01204048253445848
56.44,0.011594728097806923,-0.011594728097806923
56.440999999999995,0.010217336248296937,-0.010217336248296937
56.442,0.007750588523305815,-0.007750588523305815
56.443,0.004272177509370423,-0.004272177509370423
56.443999999999996,0.0001656704206933925,-0.0001656704206933925
56.445,0.003915747311871382,0.003915747311871382
56.446,0.0071896952516003285,0.0071896952516003285
56.446999999999996,0.008949555557878169,0.008949555557878169
56.448,0.008770950368459401,0.008770950368459401
56.449,0.006654616555153371,0.006654616555153371
56.449999999999996,0.003059717079113857,0.003059717079113857
56.451,0.0011850740976390027,-0.0011850740976390027
56.452,0.005069316668360248,-0.005069316668360248
56.452999999999996,0.007636637611347486,-0.007636637611347486
56.454,0.00820702848953285,-0.00820702848953285
56.455,0.00653134071225826,-0.00653134071225826
56.455999999999996,0.0028451789413610133,-0.0028451789413610133
56.457,0.002183032434892468,0.002183032434892468
56.458,0.007590055117547276,0.007590055117547276
56.458999999999996,0.012306194313091632,0.012306194313091632
56.46,0.015353707173536495,0.015353707173536495
56.461,0.016020064966476465,0.016020064966476465
56.461999999999996,0.013981371120161332,0.013981371120161332
56.463,0.009362492234676988,0.009362492234676988
56.464,0.002729445571364426,0.002729445571364426
56.464999999999996,0.004984192163449563,-0.004984192163449563
56.466,0.012610038108569366,-0.012610038108569366
56.467,0.018923897502667316,-0.018923897502667316
56.467999999999996,0.022849811109188087,-0.022849811109188087
56.469,0.02365869377147437,-0.02365869377147437
56.47,0.021124211292585154,-0.021124211292585154
56.471,0.015598389112292511,-0.015598389112292511
56.472,0.007979320513641685,-0.007979320513641685
56.473,0.00043644470923353987,0.00043644470923353987
56.474,0.008197304215751416,0.008197304215751416
56.475,0.01398955248482745,0.01398955248482745
56.476,0.016915437443610425,0.016915437443610425
56.477,0.0166890708849847,0.0166890708849847
56.478,0.01369829342135943,0.01369829342135943
56.479,0.008911462676865788,0.008911462676865788
56.48,0.0036468030817242885,0.0036468030817242885
56.481,0.0007421932759930993,-0.0007421932759930993
56.482,0.0031890912176207966,-0.0031890912176207966
56.483,0.0031654615388715013,-0.0031654615388715013
56.484,0.0007993653183370429,-0.0007993653183370429
56.485,0.003165825161398641,0.003165825161398641
56.486,0.007559173482204165,0.007559173482204165
56.487,0.011067705764637179,0.011067705764637179
56.488,0.012549070739133205,0.012549070739133205
56.489,0.011297545804369839,0.011297545804369839
56.49,0.007204624565471666,0.007204624565471666
56.491,0.0007832735018052833,0.0007832735018052833
56.492,0.006942471631410811,-0.006942471631410811
56.493,0.014651853237020758,-0.014651853237020758
56.494,0.02099562798395405,-0.02099562798395405
56.495,0.02486131633312168,-0.02486131633312168
56.496,0.02558372388308424,-0.02558372388308424
56.497,0.023063119465726367,-0.023063119465726367
56.498,0.017772626937598485,-0.017772626937598485
56.499,0.010656884596454808,-0.010656884596454808
56.5,0.0029429580111371843,-0.0029429580111371843
56.501,0.004100255492592697,0.004100255492592697
56.501999999999995,0.009408073962600813,0.009408073962600813
56.503,0.012322798111731212,0.012322798111731212
56.504,0.012710440525153813,0.012710440525153813
56.504999999999995,0.01096386714932664,0.01096386714932664
56.506,0.007887950079501329,0.007887950079501329
56.507,0.004489572865904149,0.004489572865904149
56.507999999999996,0.0017204531200757675,0.0017204531200757675
56.509,0.00023648268626383267,0.00023648268626383267
56.51,0.00023752558474401432,0.00023752558474401432
56.510999999999996,0.0014338485781587157,0.0014338485781587157
56.512,0.003152370769889436,0.003152370769889436
56.513,0.004555881058742898,0.004555881058742898
56.513999999999996,0.004912988548423394,0.004912988548423394
56.515,0.003837598100848711,0.003837598100848711
56.516,0.0014219036490169285,0.0014219036490169285
56.516999999999996,0.0017831698806210113,-0.0017831698806210113
56.518,0.004939164425558559,-0.004939164425558559
56.519,0.007192203372576426,-0.007192203372576426
56.519999999999996,0.007959136680803605,-0.007959136680803605
56.521,0.007131562452514187,-0.007131562452514187
56.522,0.005124312144305267,-0.005124312144305267
56.522999999999996,0.0027442306655541017,-0.0027442306655541017
56.524,0.0009157411520407103,-0.0009157411520407103
56.525,0.0003515904041786876,-0.0003515904041786876
56.525999999999996,0.0012817347728442405,-0.0012817347728442405
56.527,0.0033401499363946907,-0.0033401499363946907
56.528,0.005660453854113774,-0.005660453854113774
56.528999999999996,0.0071612306321707985,-0.0071612306321707985
56.53,0.006933793880828433,-0.006933793880828433
56.531,0.004602687783365084,-0.004602687783365084
56.532,0.0005289887730508032,-0.0005289887730508032
56.533,0.004228636499295323,0.004228636499295323
56.534,0.008202656596960154,0.008202656596960154
56.535,0.009977170874217263,0.009977170874217263
56.536,0.008677401698674883,0.008677401698674883
56.537,0.0043248739067238955,0.0043248739067238955
56.538,0.0020716616671344326,-0.0020716616671344326
56.539,0.008740356227427637,-0.008740356227427637
56.54,0.01363536781517026,-0.01363536781517026
56.541,0.015050868742444537,-0.015050868742444537
56.542,0.012171238401581418,-0.012171238401581418
56.543,0.005379437302349926,-0.005379437302349926
56.544,0.003785407347459707,0.003785407347459707
56.545,0.013023238339090209,0.013023238339090209
56.546,0.01991194920211622,0.01991194920211622
56.547,0.022601258285103745,0.022601258285103745
56.548,0.020351684483073857,0.020351684483073857
56.549,0.013753683270050098,0.013753683270050098
56.55,0.004559582912770408,0.004559582912770408
56.551,0.004819745765033701,-0.004819745765033701
56.552,0.011998793064472662,-0.011998793064472662
56.553,0.015273945978779202,-0.015273945978779202
56.554,0.014057747495542172,-0.014057747495542172
56.555,0.00897028549595124,-0.00897028549595124
56.556,0.0015776628495468377,-0.0015776628495468377
56.557,0.006122356650444308,0.006122356650444308
56.558,0.012293571704532885,0.012293571704532885
56.559,0.015745012104303718,0.015745012104303718
56.56,0.016164289299343458,0.016164289299343458
56.561,0.014051438552650805,0.014051438552650805
56.562,0.010406955863958694,0.010406955863958694
56.563,0.006306430733603185,0.006306430733603185
56.564,0.002522550844307411,0.002522550844307411
56.565,0.0006745368196563374,-0.0006745368196563374
56.565999999999995,0.0034826490353584397,-0.0034826490353584397
56.567,0.006334766100851838,-0.006334766100851838
56.568,0.009578624765932181,-0.009578624765932181
56.568999999999996,0.013209645473027087,-0.013209645473027087
56.57,0.016773656518971537,-0.016773656518971537
56.571,0.019486350004219655,-0.019486350004219655
56.571999999999996,0.020528220487290718,-0.020528220487290718
56.573,0.019400291389809247,-0.019400291389809247
56.574,0.01619541247851634,-0.01619541247851634
56.574999999999996,0.011664895898529773,-0.011664895898529773
56.576,0.007032904795936088,-0.007032904795936088
56.577,0.00360559324884504,-0.00360559324884504
56.577999999999996,0.0023039851468347745,-0.0023039851468347745
56.579,0.0032880386073065736,-0.0032880386073065736
56.58,0.005818263024639324,-0.005818263024639324
56.580999999999996,0.008425713189149447,-0.008425713189149447
56.582,0.009356042199077187,-0.009356042199077187
56.583,0.007154801435372407,-0.007154801435372407
56.583999999999996,0.0012043460750923033,-0.0012043460750923033
56.585,0.007971099079970043,0.007971099079970043
56.586,0.01874653480963903,0.01874653480963903
56.586999999999996,0.028787653303156708,0.028787653303156708
56.588,0.03568229372506009,0.03568229372506009
56.589,0.03762106783831372,0.03762106783831372
56.589999999999996,0.033917493758862105,0.033917493758862105
56.591,0.025207472536073125,0.025207472536073125
56.592,0.013269429789790404,0.013269429789790404
56.592999999999996,0.0005260759161700816,0.0005260759161700816
56.594,0.010613209392969909,-0.010613209392969909
56.595,0.018365890613112085,-0.018365890613112085
56.596,0.02196476842125373,-0.02196476842125373
56.597,0.021720707487302943,-0.021720707487302943
56.598,0.01876802891261002,-0.01876802891261002
56.599,0.01460157549503408,-0.01460157549503408
56.6,0.01057306261349584,-0.01057306261349584
56.601,0.0075132075976980595,-0.0075132075976980595
56.602,0.005588859787736447,-0.005588859787736447
56.603,0.004413877730958003,-0.004413877730958003
56.604,0.003342380940842711,-0.003342380940842711
56.605,0.0018151182313593166,-0.0018151182313593166
56.606,0.00037712887984543735,0.00037712887984543735
56.607,0.0030055170431782935,0.0030055170431782935
56.608,0.005507810846343437,0.005507810846343437
56.609,0.00722653051284394,0.00722653051284394
56.61,0.0076726756654926,0.0076726756654926
56.611,0.006703974269649888,0.006703974269649888
56.612,0.004548529914764866,0.004548529914764866
56.613,0.001673632878914093,0.001673632878914093
56.614,0.0014331788955370612,-0.0014331788955370612
56.615,0.004465745165301287,-0.004465745165301287
56.616,0.007385953667038392,-0.007385953667038392
56.617,0.010348472574298015,-0.010348472574298015
56.618,0.01349055762308676,-0.01349055762308676
56.619,0.0166810570679222,-0.0166810570679222
56.62,0.019354079235692524,-0.019354079235692524
56.621,0.020532357172176243,-0.020532357172176243
56.622,0.019077027085636595,-0.019077027085636595
56.623,0.014107728143073251,-0.014107728143073251
56.624,0.0054546307668978024,-0.0054546307668978024
56.625,0.006033955444536782,0.006033955444536782
56.626,0.01847872360349389,0.01847872360349389
56.626999999999995,0.029314613148462072,0.029314613148462072
56.628,0.035935724454835755,0.035935724454835755
56.629,0.03646613609244196,0.03646613609244196
56.629999999999995,0.030416275701534316,0.030416275701534316
56.631,0.01899482409807825,0.01899482409807825
56.632,0.0049363890642822724,0.0049363890642822724
56.632999999999996,0.008149351090620418,-0.008149351090620418
56.634,0.016746075145809728,-0.016746075145809728
56.635,0.018442285928037323,-0.018442285928037323
56.635999999999996,0.012679585461837204,-0.012679585461837204
56.637,0.0009964241198823145,-0.0009964241198823145
56.638,0.013329236830847819,0.013329236830847819
56.638999999999996,0.026153916776657078,0.026153916776657078
56.64,0.033614491823930955,0.033614491823930955
56.641,0.033213121918071305,0.033213121918071305
56.641999999999996,0.02452188591693503,0.02452188591693503
56.643,0.00929985951369323,0.00929985951369323
56.644,0.009008525559738459,-0.009008525559738459
56.644999999999996,0.026239961555762793,-0.026239961555762793
56.646,0.03865350959844736,-0.03865350959844736
56.647,0.04391100356015541,-0.04391100356015541
56.647999999999996,0.041618683052805285,-0.041618683052805285
56.649,0.03329268241728919,-0.03329268241728919
56.65,0.02178841571368799,-0.02178841571368799
56.650999999999996,0.010391841008691576,-0.010391841008691576
56.652,0.0018608031732769228,-0.0018608031732769228
56.653,0.0022978317154007557,0.0022978317154007557
56.653999999999996,0.0021192874951484393,0.0021192874951484393
56.655,0.0010115170993128162,-0.0010115170993128162
56.656,0.004937266228780764,-0.004937266228780764
56.657,0.007482793458443675,-0.007482793458443675
56.658,0.007142769786641976,-0.007142769786641976
56.659,0.0035005489941499187,-0.0035005489941499187
56.66,0.0027227419086522397,0.0027227419086522397
56.661,0.00996679848561507,0.00996679848561507
56.662,0.01635248153668989,0.01635248153668989
56.663,0.02024438381351447,0.02024438381351447
56.664,0.02068464273779575,0.02068464273779575
56.665,0.0175879757610832,0.0175879757610832
56.666,0.01167529730808374,0.01167529730808374
56.667,0.004205260960303675,0.004205260960303675
56.668,0.0033864982442728545,-0.0033864982442728545
56.669,0.009823801500261482,-0.009823801500261482
56.67,0.0142174483364341,-0.0142174483364341
56.671,0.01615232547714993,-0.01615232547714993
56.672,0.01565400322348234,-0.01565400322348234
56.673,0.013085822262665801,-0.013085822262665801
56.674,0.009030518326696487,-0.009030518326696487
56.675,0.004190286442798155,-0.004190286442798155
56.676,0.000690077407455115,0.000690077407455115
56.677,0.004894359869411547,0.004894359869411547
56.678,0.007821475836607372,0.007821475836607372
56.679,0.009092445934684109,0.009092445934684109
56.68,0.008656389424078436,0.008656389424078436
56.681,0.006852178842634353,0.006852178842634353
56.682,0.004379053895826376,0.004379053895826376
56.683,0.0021509862287897915,0.0021509862287897915
56.684,0.0010508050350035564,0.0010508050350035564
56.685,0.0016457732399612081,0.0016457732399612081
56.686,0.003956786527144853,0.003956786527144853
56.687,0.007372691181928906,0.007372691181928906
56.688,0.010764327915283872,0.010764327915283872
56.689,0.01278896655782897,0.01278896655782897
56.69,0.012305965726273517,0.012305965726273517
56.690999999999995,0.008774730789536703,0.008774730789536703
56.692,0.0024973995227926516,0.0024973995227926516
56.693,0.005391276423961795,-0.005391276423961795
56.693999999999996,0.013205621194275992,-0.013205621194275992
56.695,0.019188723721302935,-0.019188723721302935
56.696,0.022042781497528068,-0.022042781497528068
56.696999999999996,0.021335319136958228,-0.021335319136958228
56.698,0.01763835683858433,-0.01763835683858433
56.699,0.01234125784213475,-0.01234125784213475
56.699999999999996,0.007187013971059484,-0.007187013971059484
56.701,0.0036792315773307056,-0.0036792315773307056
56.702,0.002558316133385195,-0.002558316133385195
56.702999999999996,0.003530194963111023,-0.003530194963111023
56.704,0.005351626874797736,-0.005351626874797736
56.705,0.006257517643721505,-0.006257517643721505
56.705999999999996,0.004597190362594171,-0.004597190362594171
56.707,0.0005308283041453323,0.0005308283041453323
56.708,0.008864126015636636,0.008864126015636636
56.708999999999996,0.018934270680161146,0.018934270680161146
56.71,0.02842941264697765,0.02842941264697765
56.711,0.03485886161609111,0.03485886161609111
56.711999999999996,0.03631263599942188,0.03631263599942188
56.713,0.03207142546024094,0.03207142546024094
56.714,0.02286558893839838,0.02286558893839838
56.714999999999996,0.010692696427035209,0.010692696427035209
56.716,0.0017543723191174995,-0.0017543723191174995
56.717,0.011869806508438115,-0.011869806508438115
56.717999999999996,0.017879749215588926,-0.017879749215588926
56.719,0.019313917734485795,-0.019313917734485795
56.72,0.017057781641958196,-0.017057781641958196
56.721,0.012976431143999836,-0.012976431143999836
56.722,0.009240720168367156,-0.009240720168367156
56.723,0.007581704891724678,-0.007581704891724678
56.724,0.0087195459250325,-0.0087195459250325
56.725,0.012151886080136919,-0.012151886080136919
56.726,0.016365306451484724,-0.016365306451484724
56.727,0.019392626013111876,-0.019392626013111876
56.728,0.019525305552028475,-0.019525305552028475
56.729,0.015941104544997683,-0.015941104544997683
56.73,0.009037617126530352,-0.009037617126530352
56.731,0.00036106025047167445,-0.00036106025047167445
56.732,0.007846870749558194,0.007846870749558194
56.733,0.013337385449837426,0.013337385449837426
56.734,0.01455731541263684,0.01455731541263684
56.735,0.011143588741638927,0.011143588741638927
56.736,0.004056390058328513,0.004056390058328513
56.737,0.004685780529170836,-0.004685780529170836
56.738,0.01258154257673022,-0.01258154257673022
56.739,0.01735228874631692,-0.01735228874631692
56.74,0.01756484778275312,-0.01756484778275312
56.741,0.012992393477761925,-0.012992393477761925
56.742,0.0046224409953398975,-0.0046224409953398975
56.743,0.005668818560947506,0.005668818560947506
56.744,0.01565918821544927,0.01565918821544927
56.745,0.023368488279427675,0.023368488279427675
56.746,0.027521663560462196,0.027521663560462196
56.747,0.027769562513947663,0.027769562513947663
56.748,0.02463350112538713,0.02463350112538713
56.749,0.01922514446954972,0.01922514446954972
56.75,0.01285374574989123,0.01285374574989123
56.751,0.006652015871219299,0.006652015871219299
56.751999999999995,0.0013282814650222411,0.0013282814650222411
56.753,0.0029015716709691014,-0.0029015716709691014
56.754,0.006212795943420882,-0.006212795943420882
56.754999999999995,0.008963640975650024,-0.008963640975650024
56.756,0.011467925083821396,-0.011467925083821396
56.757,0.0138292432509743,-0.0138292432509743
56.757999999999996,0.015885764570333038,-0.015885764570333038
56.759,0.017271047960510665,-0.017271047960510665
56.76,0.017556963590385916,-0.017556963590385916
56.760999999999996,0.016421830172754063,-0.016421830172754063
56.762,0.013785320160780351,-0.013785320160780351
56.763,0.009868827679287446,-0.009868827679287446
56.763999999999996,0.005167462642884195,-0.005167462642884195
56.765,0.0003473447718055439,-0.0003473447718055439
56.766,0.0038989688084639126,0.0038989688084639126
56.766999999999996,0.0069993093595858156,0.0069993093595858156
56.768,0.008616189492014864,0.008616189492014864
56.769,0.008706033332768717,0.008706033332768717
56.769999999999996,0.007515292313958634,0.007515292313958634
56.771,0.005518059765611866,0.005518059765611866
56.772,0.003308917872130312,0.003308917872130312
56.772999999999996,0.0014706590597405092,0.0014706590597405092
56.774,0.00044036200023334017,0.00044036200023334017
56.775,0.0003995639713465861,0.0003995639713465861
56.775999999999996,0.0012139965420636467,0.0012139965420636467
56.777,0.0024434580922212427,0.0024434580922212427
56.778,0.003431033620065576,0.003431033620065576
56.778999999999996,0.0034631261700023234,0.0034631261700023234
56.78,0.0019707900648719312,0.0019707900648719312
56.781,0.0012753179258752042,-0.0012753179258752042
56.782,0.006032249860515893,-0.006032249860515893
56.783,0.011562865860179359,-0.011562865860179359
56.784,0.01674910137888294,-0.01674910137888294
56.785,0.020328450364728648,-0.020328450364728648
56.786,0.021203077085217945,-0.021203077085217945
56.787,0.018742461193815597,-0.018742461193815597
56.788,0.012992939711545014,-0.012992939711545014
56.789,0.0047260697018282815,-0.0047260697018282815
56.79,0.004700708387914648,0.004700708387914648
56.791,0.013644245822862498,0.013644245822862498
56.792,0.02056079189038192,0.02056079189038192
56.793,0.024371438040605316,0.024371438040605316
56.794,0.024705389988430616,0.024705389988430616
56.795,0.02195229437084422,0.02195229437084422
56.796,0.01711074334271009,0.01711074334271009
56.797,0.011480955571880095,0.011480955571880095
56.798,0.0062960755527532485,0.0062960755527532485
56.799,0.0024033618005838194,0.0024033618005838194
56.8,8.803132147859003e-05,8.803132147859003e-05
56.801,0.0009153971187952335,-0.0009153971187952335
56.802,0.0012409906195457515,-0.0012409906195457515
56.803,0.0016100138019810263,-0.0016100138019810263
56.804,0.0025514633127012875,-0.0025514633127012875
56.805,0.0042205754972169515,-0.0042205754972169515
56.806,0.0063734382608943915,-0.0063734382608943915
56.807,0.00849848605712738,-0.00849848605712738
56.808,0.010048944036969326,-0.010048944036969326
56.809,0.010684117941273103,-0.010684117941273103
56.81,0.010424619255360208,-0.010424619255360208
56.811,0.0096583715559439,-0.0096583715559439
56.812,0.008989601819235641,-0.008989601819235641
56.813,0.008982533262850199,-0.008982533262850199
56.814,0.009893910445986167,-0.009893910445986167
56.815,0.011498140709407984,-0.011498140709407984
56.815999999999995,0.013081226790405224,-0.013081226790405224
56.817,0.013623244387487285,-0.013623244387487285
56.818,0.012122637446055714,-0.012122637446055714
56.818999999999996,0.007961872199079095,-0.007961872199079095
56.82,0.0011921288496282237,-0.0011921288496282237
56.821,0.007366477114436599,0.007366477114436599
56.821999999999996,0.016257911003271758,0.016257911003271758
56.823,0.02373158167583372,0.02373158167583372
56.824,0.02819842095549052,0.02819842095549052
56.824999999999996,0.028667073577922718,0.028667073577922718
56.826,0.02502662571870416,0.02502662571870416
56.827,0.018086126815488844,0.018086126815488844
56.827999999999996,0.009354605927792926,0.009354605927792926
56.829,0.0006253118303690805,0.0006253118303690805
56.83,0.0065110249730717705,-0.0065110249730717705
56.830999999999996,0.011076785655352459,-0.011076785655352459
56.832,0.012918771871635164,-0.012918771871635164
56.833,0.012660148604005073,-0.012660148604005073
56.833999999999996,0.011415229648140795,-0.011415229648140795
56.835,0.010364632846460315,-0.010364632846460315
56.836,0.010332464386116612,-0.010332464386116612
56.836999999999996,0.011505689055716906,-0.011505689055716906
56.838,0.013388751573960338,-0.013388751573960338
56.839,0.01500852486538703,-0.01500852486538703
56.839999999999996,0.015300609793201542,-0.015300609793201542
56.841,0.013545101125252621,-0.013545101125252621
56.842,0.00969911030534774,-0.00969911030534774
56.842999999999996,0.004502500379252878,-0.004502500379252878
56.844,0.0006954813259893781,0.0006954813259893781
56.845,0.004349307967749808,0.004349307967749808
56.846,0.0052473631299444715,0.0052473631299444715
56.847,0.002988858334413532,0.002988858334413532
56.848,0.00175804639804679,-0.00175804639804679
56.849,0.007323991207762421,-0.007323991207762421
56.85,0.011442726692290387,-0.011442726692290387
56.851,0.01189659132408693,-0.01189659132408693
56.852,0.007224489318308714,-0.007224489318308714
56.853,0.0027197542343990392,0.0027197542343990392
56.854,0.01654142838676162,0.01654142838676162
56.855,0.031507501055911456,0.031507501055911456
56.856,0.04415311238811817,0.04415311238811817
56.857,0.051147045182233994,0.051147045182233994
56.858,0.050187176993822774,0.050187176993822774
56.859,0.04067578586331983,0.04067578586331983
56.86,0.02397532395918233,0.02397532395918233
56.861,0.003155870382621837,0.003155870382621837
56.862,0.017714256672286207,-0.017714256672286207
56.863,0.034553292933744255,-0.034553292933744255
56.864,0.044263359106469134,-0.044263359106469134
56.865,0.04546956106270111,-0.04546956106270111
56.866,0.03879968882937374,-0.03879968882937374
56.867,0.02663161958026445,-0.02663161958026445
56.868,0.012385905220925648,-0.012385905220925648
56.869,0.00043030956316803107,0.00043030956316803107
56.87,0.009153007341983188,0.009153007341983188
56.871,0.012601297314210294,0.012601297314210294
56.872,0.011253484221423362,0.011253484221423362
56.873,0.006925226270905626,0.006925226270905626
56.874,0.0020650696995792037,0.0020650696995792037
56.875,0.0011041359776519368,-0.0011041359776519368
56.876,0.001326666152628272,-0.001326666152628272
56.876999999999995,0.0012923853183174569,0.0012923853183174569
56.878,0.005360124540470529,0.005360124540470529
56.879,0.00870656926846435,0.00870656926846435
56.879999999999995,0.009165573111245245,0.009165573111245245
56.881,0.005372702775687544,0.005372702775687544
56.882,0.0026794009777723763,-0.0026794009777723763
56.882999999999996,0.013512182342963289,-0.013512182342963289
56.884,0.024509188025135523,-0.024509188025135523
56.885,0.032641230693841596,-0.032641230693841596
56.885999999999996,0.035349619617381325,-0.035349619617381325
56.887,0.03131721299768715,-0.03131721299768715
56.888,0.020890177236774606,-0.020890177236774606
56.888999999999996,0.006020335890881771,-0.006020335890881771
56.89,0.01025481185841682,0.01025481185841682
56.891,0.02463615586697977,0.02463615586697977
56.891999999999996,0.03444186537839798,0.03444186537839798
56.893,0.038279054257752014,0.038279054257752014
56.894,0.036314779572674316,0.036314779572674316
56.894999999999996,0.030080419363488774,0.030080419363488774
56.896,0.021888972905888506,0.021888972905888506
56.897,0.014062286446118084,0.014062286446118084
56.897999999999996,0.008218098875272903,0.008218098875272903
56.899,0.0048396137780608375,0.0048396137780608375
56.9,0.003253191012320182,0.003253191012320182
56.900999999999996,0.0020049124049310463,0.0020049124049310463
56.902,0.0005021561287329962,-0.0005021561287329962
56.903,0.005330243074661301,-0.005330243074661301
56.903999999999996,0.01251881000593635,-0.01251881000593635
56.905,0.020952085756102752,-0.020952085756102752
56.906,0.028631530205421224,-0.028631530205421224
56.907,0.03327136305773846,-0.03327136305773846
56.908,0.03303115379749314,-0.03303115379749314
56.909,0.027154656586108557,-0.027154656586108557
56.91,0.01631157790209892,-0.01631157790209892
56.911,0.002528985072919824,-0.002528985072919824
56.912,0.011277233559701193,0.011277233559701193
56.913,0.02204136374249056,0.02204136374249056
56.914,0.027349005513199548,0.027349005513199548
56.915,0.0260757151945479,0.0260757151945479
56.916,0.01868733341569042,0.01868733341569042
56.917,0.007123494995567922,0.007123494995567922
56.918,0.0056983578933624355,-0.0056983578933624355
56.919,0.016620381322511847,-0.016620381322511847
56.92,0.02302651348691007,-0.02302651348691007
56.921,0.023469740358468372,-0.023469740358468372
56.922,0.017994060728552832,-0.017994060728552832
56.923,0.008085299648945945,-0.008085299648945945
56.924,0.0037202613426204987,0.0037202613426204987
56.925,0.014460325641258195,0.014460325641258195
56.926,0.021447769872872516,0.021447769872872516
56.927,0.022885625842312417,0.022885625842312417
56.928,0.018263584424387507,0.018263584424387507
56.929,0.008460241341499478,0.008460241341499478
56.93,0.0044577660017453375,-0.0044577660017453375
56.931,0.01768609730335925,-0.01768609730335925
56.932,0.02828214939961599,-0.02828214939961599
56.933,0.03378864672659359,-0.03378864672659359
56.934,0.03275582811411573,-0.03275582811411573
56.935,0.02505830928014872,-0.02505830928014872
56.936,0.011942348112550327,-0.011942348112550327
56.937,0.0042092288235672124,0.0042092288235672124
56.938,0.020351651216763095,0.020351651216763095
56.939,0.03339949419955623,0.03339949419955623
56.94,0.040867168885451034,0.040867168885451034
56.940999999999995,0.04139102420241168,0.04139102420241168
56.942,0.0350149854163063,0.0350149854163063
56.943,0.023169807173490334,0.023169807173490334
56.943999999999996,0.008344324042342628,0.008344324042342628
56.945,0.00647959241557966,-0.00647959241557966
56.946,0.01849687342189193,-0.01849687342189193
56.946999999999996,0.025693139698969386,-0.025693139698969386
56.948,0.027253263086471215,-0.027253263086471215
56.949,0.023666560830932135,-0.023666560830932135
56.949999999999996,0.016509528398046133,-0.016509528398046133
56.951,0.007972379342937078,-0.007972379342937078
56.952,0.00026325607385366815,-0.00026325607385366815
56.952999999999996,0.004946055602778474,0.004946055602778474
56.954,0.006885887729502218,0.006885887729502218
56.955,0.005777679212132279,0.005777679212132279
56.955999999999996,0.0026409737249148903,0.0026409737249148903
56.957,0.0011047883503150608,-0.0011047883503150608
56.958,0.004110870687321786,-0.004110870687321786
56.958999999999996,0.005496022136260603,-0.005496022136260603
56.96,0.005055441335805315,-0.005055441335805315
56.961,0.0032341453876702517,-0.0032341453876702517
56.961999999999996,0.0008948549464777167,-0.0008948549464777167
56.963,0.0010255292800798285,0.0010255292800798285
56.964,0.0018471204091829424,0.0018471204091829424
56.964999999999996,0.0013552408712319578,0.0013552408712319578
56.966,0.00017537389738694952,-0.00017537389738694952
56.967,0.0021334202650864116,-0.0021334202650864116
56.967999999999996,0.003831855882363777,-0.003831855882363777
56.969,0.004772778985398273,-0.004772778985398273
56.97,0.00481622254870645,-0.00481622254870645
56.971,0.004192792899093601,-0.004192792899093601
56.972,0.0033612160498744984,-0.0033612160498744984
56.973,0.0027715704382449756,-0.0027715704382449756
56.974,0.0026315147336823897,-0.0026315147336823897
56.975,0.002772827146127397,-0.002772827146127397
56.976,0.002678863071255579,-0.002678863071255579
56.977,0.0016731305604321372,-0.0016731305604321372
56.978,0.0007932655316559589,0.0007932655316559589
56.979,0.004859374997631751,0.004859374997631751
56.98,0.010086897661124939,0.010086897661124939
56.981,0.015482991350546593,0.015482991350546593
56.982,0.019726191061324325,0.019726191061324325
56.983,0.02153762410951376,0.02153762410951376
56.984,0.020085381399543533,0.020085381399543533
56.985,0.015290978865626215,0.015290978865626215
56.986,0.007930867968532514,0.007930867968532514
56.987,0.0005137283095451511,-0.0005137283095451511
56.988,0.008227537403200478,-0.008227537403200478
56.989,0.013550806537326035,-0.013550806537326035
56.99,0.015445366826081991,-0.015445366826081991
56.991,0.013797458219872957,-0.013797458219872957
56.992,0.009463152705907016,-0.009463152705907016
56.993,0.004037007165911944,-0.004037007165911944
56.994,0.0005941061027928459,0.0005941061027928459
56.995,0.0027867013084014606,0.0027867013084014606
56.996,0.001614003904463521,0.001614003904463521
56.997,0.0028574594385371347,-0.0028574594385371347
56.998,0.009566399369614917,-0.009566399369614917
56.999,0.01673127321750117,-0.01673127321750117
57.0,0.022325010946514873,-0.022325010946514873
57.001,0.024620058349048155,-0.024620058349048155
57.001999999999995,0.022656504109125834,-0.022656504109125834
57.003,0.016509075056270483,-0.016509075056270483
57.004,0.007284485418525267,-0.007284485418525267
57.004999999999995,0.0031471123762335977,0.0031471123762335977
57.006,0.01261372554504843,0.01261372554504843
57.007,0.019175244850859644,0.019175244850859644
57.007999999999996,0.021592829499043478,0.021592829499043478
57.009,0.01961709990513282,0.01961709990513282
57.01,0.014026728244791422,0.014026728244791422
57.010999999999996,0.00641314314198762,0.00641314314198762
57.012,0.0012295186730428478,-0.0012295186730428478
57.013,0.007002947205880952,-0.007002947205880952
57.013999999999996,0.009565701562747353,-0.009565701562747353
57.015,0.008442760108188717,-0.008442760108188717
57.016,0.004109822856628365,-0.004109822856628365
57.016999999999996,0.0021631245228702074,0.0021631245228702074
57.018,0.008662857666222051,0.008662857666222051
57.019,0.0136831187980702,0.0136831187980702
57.019999999999996,0.015954310313287107,0.015954310313287107
57.021,0.014940543035102812,0.014940543035102812
57.022,0.010929651430318918,0.010929651430318918
57.022999999999996,0.004899962701050876,0.004899962701050876
57.024,0.001789630036633906,-0.001789630036633906
57.025,0.007790218129261183,-0.007790218129261183
57.025999999999996,0.012116495097756993,-0.012116495097756993
57.027,0.01435960876429414,-0.01435960876429414
57.028,0.014701174769844614,-0.014701174769844614
57.028999999999996,0.013734906943585727,-0.013734906943585727
57.03,0.012165704137941744,-0.012165704137941744
57.031,0.010497611693853917,-0.010497611693853917
57.032,0.008827103370908862,-0.008827103370908862
57.033,0.006823076194755938,-0.006823076194755938
57.034,0.003909524101222415,-0.003909524101222415
57.035,0.00040825036801661087,0.00040825036801661087
57.036,0.006192300216396016,0.006192300216396016
57.037,0.012835423320176965,0.012835423320176965
57.038,0.019052059788195106,0.019052059788195106
57.039,0.023139181008410083,0.023139181008410083
57.04,0.023456818454039435,0.023456818454039435
57.041,0.01899277245206675,0.01899277245206675
57.042,0.009828864279859297,0.009828864279859297
57.043,0.0026633835878744987,-0.0026633835878744987
57.044,0.015999804771185254,-0.015999804771185254
57.045,0.02712447895055926,-0.02712447895055926
57.046,0.03318700035744003,-0.03318700035744003
57.047,0.03234135747393093,-0.03234135747393093
57.048,0.024326677606926125,-0.024326677606926125
57.049,0.010639986474590838,-0.010639986474590838
57.05,0.005775464187837461,0.005775464187837461
57.051,0.02125873518440878,0.02125873518440878
57.052,0.032379094652513804,0.032379094652513804
57.053,0.03683214727058257,0.03683214727058257
57.054,0.03402157176421148,0.03402157176421148
57.055,0.02515453663512287,0.02515453663512287
57.056,0.01282516358872266,0.01282516358872266
57.057,0.000216873279652336,0.000216873279652336
57.058,0.009828808471920875,-0.009828808471920875
57.059,0.015590401807986045,-0.015590401807986045
57.06,0.016857065261283208,-0.016857065261283208
57.061,0.014823987984849227,-0.014823987984849227
57.062,0.011545634071516712,-0.011545634071516712
57.063,0.009141916651902946,-0.009141916651902946
57.064,0.009029063294729765,-0.009029063294729765
57.065,0.01143305045519129,-0.01143305045519129
57.065999999999995,0.015343892850705903,-0.015343892850705903
57.067,0.01891732641084516,-0.01891732641084516
57.068,0.020177669621246563,-0.020177669621246563
57.068999999999996,0.017773471005032945,-0.017773471005032945
57.07,0.011520507397154165,-0.011520507397154165
57.071,0.0025405065420666204,-0.0025405065420666204
57.071999999999996,0.007056569178185932,0.007056569178185932
57.073,0.014841375281023013,0.014841375281023013
57.074,0.018858316966760023,0.018858316966760023
57.074999999999996,0.01827220356475803,0.01827220356475803
57.076,0.013646638053253094,0.013646638053253094
57.077,0.006757555673758268,0.006757555673758268
57.077999999999996,3.884598649271096e-06,3.884598649271096e-06
57.079,0.0043852232621212585,-0.0043852232621212585
57.08,0.005078034188542919,-0.005078034188542919
57.080999999999996,0.0020572421413490812,-0.0020572421413490812
57.082,0.0034119115708533734,0.0034119115708533734
57.083,0.00924626164790596,0.00924626164790596
57.083999999999996,0.013277728350487841,0.013277728350487841
57.085,0.013999546243138853,0.013999546243138853
57.086,0.011068432217847852,0.011068432217847852
57.086999999999996,0.00539249255945019,0.00539249255945019
57.088,0.0012195740155131751,-0.0012195740155131751
57.089,0.0067189219828399475,-0.0067189219828399475
57.089999999999996,0.009549980846312802,-0.009549980846312802
57.091,0.00919603530022821,-0.00919603530022821
57.092,0.006343860745337832,-0.006343860745337832
57.092999999999996,0.0026100773633365836,-0.0026100773633365836
57.094,7.203860472567098e-05,7.203860472567098e-05
57.095,0.00018515941502975094,0.00018515941502975094
57.096,0.0027839369366473815,-0.0027839369366473815
57.097,0.008114815250971621,-0.008114815250971621
57.098,0.014070511106270526,-0.014070511106270526
57.099,0.018491021464334914,-0.018491021464334914
57.1,0.019557876293442585,-0.019557876293442585
57.101,0.01646082063053083,-0.01646082063053083
57.102,0.009728309057411632,-0.009728309057411632
57.103,0.0010985861694746504,-0.0010985861694746504
57.104,0.007032136880248976,0.007032136880248976
57.105,0.012399246555204923,0.012399246555204923
57.106,0.01362658780124857,0.01362658780124857
57.107,0.01068871041277189,0.01068871041277189
57.108,0.00491669008282225,0.00491669008282225
57.109,0.0014569894026270006,-0.0014569894026270006
57.11,0.006059164804477405,-0.006059164804477405
57.111,0.007180514512583562,-0.007180514512583562
57.112,0.004346452605034604,-0.004346452605034604
57.113,0.0015418400763743687,0.0015418400763743687
57.114,0.008542528794746122,0.008542528794746122
57.115,0.014364234237878993,0.014364234237878993
57.116,0.017168457276825026,0.017168457276825026
57.117,0.016199968143109974,0.016199968143109974
57.118,0.012023017424879759,0.012023017424879759
57.119,0.006281234670269305,0.006281234670269305
57.12,0.0010688747029122376,0.0010688747029122376
57.121,0.0018592603375947605,-0.0018592603375947605
57.122,0.001752151118788684,-0.001752151118788684
57.123,0.0008437099616022144,0.0008437099616022144
57.124,0.004275631311763171,0.004275631311763171
57.125,0.006402026619045514,0.006402026619045514
57.126,0.005421041410373639,0.005421041410373639
57.126999999999995,0.0006136056903323021,0.0006136056903323021
57.128,0.007274303410142964,-0.007274303410142964
57.129,0.016165376929564476,-0.016165376929564476
57.129999999999995,0.02327767271407434,-0.02327767271407434
57.131,0.026046238354244765,-0.026046238354244765
57.132,0.02303092560585182,-0.02303092560585182
57.132999999999996,0.014495316773211682,-0.014495316773211682
57.134,0.0024440900621621364,-0.0024440900621621364
57.135,0.009915791471773721,0.009915791471773721
57.135999999999996,0.019130652289796,0.019130652289796
57.137,0.022569028881961523,0.022569028881961523
57.138,0.019256304652654748,0.019256304652654748
57.138999999999996,0.010199186364606747,0.010199186364606747
57.14,0.0019111224762189104,-0.0019111224762189104
57.141,0.013525248632685675,-0.013525248632685675
57.141999999999996,0.021326404140341235,-0.021326404140341235
57.143,0.023234921273168573,-0.023234921273168573
57.144,0.019006462835025623,-0.019006462835025623
57.144999999999996,0.010239699826031423,-0.010239699826031423
57.146,0.0001956668535233024,0.0001956668535233024
57.147,0.009111105294035032,0.009111105294035032
57.147999999999996,0.014013032220439986,0.014013032220439986
57.149,0.013848335284345361,0.013848335284345361
57.15,0.009250235128979536,0.009250235128979536
57.150999999999996,0.002225700221232131,0.002225700221232131
57.152,0.004587463052591159,-0.004587463052591159
57.153,0.008827973188437596,-0.008827973188437596
57.153999999999996,0.009173650296610344,-0.009173650296610344
57.155,0.0057127942882936504,-0.0057127942882936504
57.156,0.000178004425113288,0.000178004425113288
57.157,0.00637904772209604,0.00637904772209604
57.158,0.010784141800820496,0.010784141800820496
57.159,0.011995963490109753,0.011995963490109753
57.16,0.009724735296280498,0.009724735296280498
57.161,0.00477347165136381,0.00477347165136381
57.162,0.0013521702421515095,-0.0013521702421515095
57.163,0.007037698513371594,-0.007037698513371594
57.164,0.011120933033921868,-0.011120933033921868
57.165,0.013210412261832255,-0.013210412261832255
57.166,0.013655870966204041,-0.013655870966204041
57.167,0.01320790563468139,-0.01320790563468139
57.168,0.012528832751540616,-0.012528832751540616
57.169,0.01177617948005652,-0.01177617948005652
57.17,0.01045093195707095,-0.01045093195707095
57.171,0.007594948162036268,-0.007594948162036268
57.172,0.0022763246299311694,-0.0022763246299311694
57.173,0.005826062287560774,0.005826062287560774
57.174,0.015986448580859118,0.015986448580859118
57.175,0.026355954578722095,0.026355954578722095
57.176,0.034335311310405556,0.034335311310405556
57.177,0.037318767951164566,0.037318767951164566
57.178,0.033580485277547784,0.033580485277547784
57.179,0.02299719638373165,0.02299719638373165
57.18,0.007330090658762014,0.007330090658762014
57.181,0.010079284199879275,-0.010079284199879275
57.182,0.025151256067464156,-0.025151256067464156
57.183,0.034211738446091294,-0.034211738446091294
57.184,0.03508312767427072,-0.03508312767427072
57.185,0.027766297759466044,-0.027766297759466044
57.186,0.014477332522187001,-0.014477332522187001
57.187,0.0009927079953844782,0.0009927079953844782
57.188,0.0144045247195995,0.0144045247195995
57.189,0.022329257071765363,0.022329257071765363
57.19,0.0231360802745688,0.0231360802745688
57.190999999999995,0.01739196809831793,0.01739196809831793
57.192,0.007550899408081695,0.007550899408081695
57.193,0.0029530397938571846,-0.0029530397938571846
57.193999999999996,0.010894507045282789,-0.010894507045282789
57.195,0.014320250992028043,-0.014320250992028043
57.196,0.013125705580066439,-0.013125705580066439
57.196999999999996,0.008954533745607346,-0.008954533745607346
57.198,0.004468298082954313,-0.004468298082954313
57.199,0.002255370430087807,-0.002255370430087807
57.199999999999996,0.003776932756944612,-0.003776932756944612
57.201,0.008737358773811267,-0.008737358773811267
57.202,0.015118375525088735,-0.015118375525088735
57.202999999999996,0.019881259052359077,-0.019881259052359077
57.204,0.020100312610191188,-0.020100312610191188
57.205,0.014128771837187876,-0.014128771837187876
57.205999999999996,0.0023736568597318057,-0.0023736568597318057
57.207,0.012619526675454209,0.012619526675454209
57.208,0.026838259006265342,0.026838259006265342
57.208999999999996,0.0360338618891837,0.0360338618891837
57.21,0.03711319244386769,0.03711319244386769
57.211,0.029223205868026566,0.029223205868026566
57.211999999999996,0.014150105871632523,0.014150105871632523
57.213,0.004124054538037519,-0.004124054538037519
57.214,0.020585175607948824,-0.020585175607948824
57.214999999999996,0.030706070613637063,-0.030706070613637063
57.216,0.0318315766719872,-0.0318315766719872
57.217,0.02397971915429433,-0.02397971915429433
57.217999999999996,0.009798694904694065,-0.009798694904694065
57.219,0.006302920039103891,0.006302920039103891
57.22,0.01956326716542981,0.01956326716542981
57.221,0.026347410821953566,0.026347410821953566
57.222,0.02521788811525467,0.02521788811525467
57.223,0.017256133864473184,0.017256133864473184
57.224,0.005551085545760817,0.005551085545760817
57.225,0.005948014213596883,-0.005948014213596883
57.226,0.013807607200449514,-0.013807607200449514
57.227,0.016239273497298475,-0.016239273497298475
57.228,0.01360265051113872,-0.01360265051113872
57.229,0.008126404058848517,-0.008126404058848517
57.23,0.002967004475837196,-0.002967004475837196
57.231,0.0009551649152168106,-0.0009551649152168106
57.232,0.003485351135845875,-0.003485351135845875
57.233,0.009948878545003795,-0.009948878545003795
57.234,0.01791576144882478,-0.01791576144882478
57.235,0.024003439489420245,-0.024003439489420245
57.236,0.02512532940544267,-0.02512532940544267
57.237,0.019674629244859878,-0.019674629244859878
57.238,0.00821717351980887,-0.00821717351980887
57.239,0.006564642504989994,0.006564642504989994
57.24,0.02067498366805215,0.02067498366805215
57.241,0.030091490736566747,0.030091490736566747
57.242,0.032100722763873074,0.032100722763873074
57.243,0.02622425315604635,0.02622425315604635
57.244,0.01441286088682974,0.01441286088682974
57.245,0.0004334914721451323,0.0004334914721451323
57.246,0.01135181131057751,-0.01135181131057751
57.247,0.017408067058204864,-0.017408067058204864
57.248,0.01617392123970542,-0.01617392123970542
57.249,0.008548036793407697,-0.008548036793407697
57.25,0.0024467135389514673,0.0024467135389514673
57.251,0.01270617443441839,0.01270617443441839
57.251999999999995,0.01844236307191918,0.01844236307191918
57.253,0.01746520320467324,0.01746520320467324
57.254,0.009919608021479093,0.009919608021479093
57.254999999999995,0.0017657314707020012,-0.0017657314707020012
57.256,0.013695814949684953,-0.013695814949684953
57.257,0.021815059767294323,-0.021815059767294323
57.257999999999996,0.02326290415547524,-0.02326290415547524
57.259,0.017328728374646163,-0.017328728374646163
57.26,0.005693662708687885,-0.005693662708687885
57.260999999999996,0.008113098525068424,0.008113098525068424
57.262,0.019855610325197913,0.019855610325197913
57.263,0.025948789000102838,0.025948789000102838
57.263999999999996,0.024587237370993765,0.024587237370993765
57.265,0.016284412274724956,0.016284412274724956
57.266,0.003661979084270474,0.003661979084270474
57.266999999999996,0.009423004509597061,-0.009423004509597061
57.268,0.0191136710482728,-0.0191136710482728
57.269,0.02274518972476057,-0.02274518972476057
57.269999999999996,0.019615597053741673,-0.019615597053741673
57.271,0.011109211647030744,-0.011109211647030744
57.272,0.00016431865581940241,-0.00016431865581940241
57.272999999999996,0.009712449629121028,0.009712449629121028
57.274,0.01554814550622143,0.01554814550622143
57.275,0.015767352182473264,0.015767352182473264
57.275999999999996,0.010562024559310173,0.010562024559310173
57.277,0.0016877037851903995,0.0016877037851903995
57.278,0.008202745519416701,-0.008202745519416701
57.278999999999996,0.016435657996268494,-0.016435657996268494
57.28,0.021103661181397032,-0.021103661181397032
57.281,0.02151949390830105,-0.02151949390830105
57.282,0.018225950685644195,-0.018225950685644195
57.283,0.012611288997488366,-0.012611288997488366
57.284,0.006309329718477693,-0.006309329718477693
57.285,0.0006204832721911686,-0.0006204832721911686
57.286,0.0038408484181100353,0.0038408484181100353
57.287,0.00716890233926672,0.00716890233926672
57.288,0.009887784165252832,0.009887784165252832
57.289,0.012513047890700948,0.012513047890700948
57.29,0.01514958711112925,0.01514958711112925
57.291,0.017300002086969368,0.017300002086969368
57.292,0.017970711670922804,0.017970711670922804
57.293,0.01604489622495525,0.01604489622495525
57.294,0.010785726752993493,0.010785726752993493
57.295,0.002278289831903688,0.002278289831903688
57.296,0.008366765052809883,-0.008366765052809883
57.297,0.019146432930707957,-0.019146432930707957
57.298,0.027619762892567075,-0.027619762892567075
57.299,0.03155737301789768,-0.03155737301789768
57.3,0.029590663339266254,-0.029590663339266254
57.301,0.02165967171162282,-0.02165967171162282
57.302,0.009117299308160198,-0.009117299308160198
57.303,0.005549445946338553,0.005549445946338553
57.304,0.01930715484021505,0.01930715484021505
57.305,0.029310225185920562,0.029310225185920562
57.306,0.03358143394899223,0.03358143394899223
57.307,0.031460331323400724,0.031460331323400724
57.308,0.023711807348513067,0.023711807348513067
57.309,0.012283448194663791,0.012283448194663791
57.31,0.00020732226816939648,-0.00020732226816939648
57.311,0.011112082891100508,-0.011112082891100508
57.312,0.018352129594203785,-0.018352129594203785
57.313,0.02084088334883865,-0.02084088334883865
57.314,0.018644019196127567,-0.018644019196127567
57.315,0.012863449622672822,-0.012863449622672822
57.315999999999995,0.005296291134596427,-0.005296291134596427
57.317,0.002034620473770064,0.002034620473770064
57.318,0.007363373861689226,0.007363373861689226
57.318999999999996,0.009569311395259341,0.009569311395259341
57.32,0.00839241139051141,0.00839241139051141
57.321,0.004438739738436261,0.004438739738436261
57.321999999999996,0.0010152323073011407,-0.0010152323073011407
57.323,0.006368654993821981,-0.006368654993821981
57.324,0.010110487157221392,-0.010110487157221392
57.324999999999996,0.011204449731148461,-0.011204449731148461
57.326,0.009352183184958968,-0.009352183184958968
57.327,0.00506789398921252,-0.00506789398921252
57.327999999999996,0.00045865147134242415,0.00045865147134242415
57.329,0.0056809487769704115,0.0056809487769704115
57.33,0.00911676301420221,0.00911676301420221
57.330999999999996,0.00975924423274252,0.00975924423274252
57.332,0.0073625063624411236,0.0073625063624411236
57.333,0.002515846144353128,0.002515846144353128
57.333999999999996,0.003521410528895893,-0.003521410528895893
57.335,0.009181812931086513,-0.009181812931086513
57.336,0.013043596506462404,-0.013043596506462404
57.336999999999996,0.01423857528101443,-0.01423857528101443
57.338,0.012685714891071514,-0.012685714891071514
57.339,0.009073881000849712,-0.009073881000849712
57.339999999999996,0.00459721558106361,-0.00459721558106361
57.341,0.0005293944789467289,-0.0005293944789467289
57.342,0.0022194688480571927,0.0022194688480571927
57.342999999999996,0.0034086722924395597,0.0034086722924395597
57.344,0.0035233313886489483,0.0035233313886489483
57.345,0.0035531248837454765,0.0035531248837454765
57.346,0.0045636446509666135,0.0045636446509666135
57.347,0.00720968903720232,0.00720968903720232
57.348,0.011370314587991686,0.011370314587991686
57.349,0.016053522573022328,0.016053522573022328
57.35,0.019631503272939395,0.019631503272939395
57.351,0.020352665666452482,0.020352665666452482
57.352,0.016972927544770092,0.016972927544770092
57.353,0.009293063640291106,0.009293063640291106
57.354,0.001596216679091937,-0.001596216679091937
57.355,0.013475167127705428,-0.013475167127705428
57.356,0.023546185055519784,-0.023546185055519784
57.357,0.029227076059448492,-0.029227076059448492
57.358,0.02894735441007313,-0.02894735441007313
57.359,0.022692005970469394,-0.022692005970469394
57.36,0.012103917175856915,-0.012103917175856915
57.361,8.766953322736763e-05,-8.766953322736763e-05
57.362,0.009987130145455065,0.009987130145455065
57.363,0.015255226222083527,0.015255226222083527
57.364,0.014208906976004814,0.014208906976004814
57.365,0.007174492392405929,0.007174492392405929
57.366,0.003738228062740919,-0.003738228062740919
57.367,0.015206110892488554,-0.015206110892488554
57.368,0.023618827625536933,-0.023618827625536933
57.369,0.02609214423548036,-0.02609214423548036
57.37,0.021276637240196117,-0.021276637240196117
57.371,0.009735600333338064,-0.009735600333338064
57.372,0.006202981007524693,0.006202981007524693
57.373,0.023061079936598988,0.023061079936598988
57.374,0.0371029029734196,0.0371029029734196
57.375,0.045248890752290244,0.045248890752290244
57.376,0.04576779568222202,0.04576779568222202
57.376999999999995,0.038585168111372956,0.038585168111372956
57.378,0.02516774789507822,0.02516774789507822
57.379,0.008063267569502795,0.008063267569502795
57.379999999999995,0.00974225945987978,-0.00974225945987978
57.381,0.02546329137788883,-0.02546329137788883
57.382,0.03699662244673252,-0.03699662244673252
57.382999999999996,0.043165940512058916,-0.043165940512058916
57.384,0.04373082516953046,-0.04373082516953046
57.385,0.039225382761622324,-0.039225382761622324
57.385999999999996,0.030718843643160007,-0.030718843643160007
57.387,0.019579415086925876,-0.019579415086925876
57.388,0.007286094790698732,-0.007286094790698732
57.388999999999996,0.004708562533220564,0.004708562533220564
57.39,0.015089315772577525,0.015089315772577525
57.391,0.02279045038446925,0.02279045038446925
57.391999999999996,0.027117772679237293,0.027117772679237293
57.393,0.02785981700465838,0.02785981700465838
57.394,0.025345917322141052,0.025345917322141052
57.394999999999996,0.020407694980532555,0.020407694980532555
57.396,0.014223875914276197,0.014223875914276197
57.397,0.008068360338143196,0.008068360338143196
57.397999999999996,0.00302181862097973,0.00302181862097973
57.399,0.00027018674921347436,-0.00027018674921347436
57.4,0.0017163168013507649,-0.0017163168013507649
57.400999999999996,0.0017361382420899949,-0.0017361382420899949
57.402,0.0010690029876979895,-0.0010690029876979895
57.403,0.0005016433233199473,-0.0005016433233199473
57.403999999999996,0.0006100535528176401,-0.0006100535528176401
57.405,0.001605041503746398,-0.001605041503746398
57.406,0.0033304253580367553,-0.0033304253580367553
57.407,0.005402908691177933,-0.005402908691177933
57.408,0.007426306805090119,-0.007426306805090119
57.409,0.009182724288691017,-0.009182724288691017
57.41,0.010712697280922907,-0.010712697280922907
57.411,0.012243168576491935,-0.012243168576491935
57.412,0.01398919279016297,-0.01398919279016297
57.413,0.01591603060211021,-0.01591603060211021
57.414,0.01757715098099575,-0.01757715098099575
57.415,0.018126002040863,-0.018126002040863
57.416,0.016538120813466808,-0.016538120813466808
57.417,0.011995677486752265,-0.011995677486752265
57.418,0.0043101817842857324,-0.0043101817842857324
57.419,0.005778328694904611,0.005778328694904611
57.42,0.016567131354679864,0.016567131354679864
57.421,0.025686987266174254,0.025686987266174254
57.422,0.030684169344616947,0.030684169344616947
57.423,0.029737211374084072,0.029737211374084072
57.424,0.022291991901689644,0.022291991901689644
57.425,0.009401305370500303,0.009401305370500303
57.426,0.006370265045767449,-0.006370265045767449
57.427,0.02148891697352301,-0.02148891697352301
57.428,0.03231525635995919,-0.03231525635995919
57.429,0.03605592819327158,-0.03605592819327158
57.43,0.03153200616020954,-0.03153200616020954
57.431,0.019537680186333495,-0.019537680186333495
57.432,0.002678209817066666,-0.002678209817066666
57.433,0.015273211788935762,0.015273211788935762
57.434,0.030321024690960815,0.030321024690960815
57.435,0.0392322875577206,0.0392322875577206
57.436,0.040293440437513525,0.040293440437513525
57.437,0.0336455762022615,0.0336455762022615
57.438,0.021132694981407945,0.021132694981407945
57.439,0.005737126258349677,0.005737126258349677
57.44,0.009215124097657335,-0.009215124097657335
57.440999999999995,0.0208496481985372,-0.0208496481985372
57.442,0.027334349141096555,-0.027334349141096555
57.443,0.02814155623038053,-0.02814155623038053
57.443999999999996,0.02396460701027582,-0.02396460701027582
57.445,0.01636888916243966,-0.01636888916243966
57.446,0.007315299325984707,-0.007315299325984707
57.446999999999996,0.0012993724466904555,0.0012993724466904555
57.448,0.007979059989345415,0.007979059989345415
57.449,0.011798489552052368,0.011798489552052368
57.449999999999996,0.012423589702718589,0.012423589702718589
57.451,0.010036328627470443,0.010036328627470443
57.452,0.005223253679097508,0.005223253679097508
57.452999999999996,0.0011342608505272506,-0.0011342608505272506
57.454,0.00796185320000355,-0.00796185320000355
57.455,0.0141037734231915,-0.0141037734231915
57.455999999999996,0.0184652365941376,-0.0184652365941376
57.457,0.020187889215392208,-0.020187889215392208
57.458,0.018830281394132183,-0.018830281394132183
57.458999999999996,0.014499762328471737,-0.014499762328471737
57.46,0.00787741874477663,-0.00787741874477663
57.461,0.00010061137114825349,-0.00010061137114825349
57.461999999999996,0.0074871500707919605,0.0074871500707919605
57.463,0.0136583851051293,0.0136583851051293
57.464,0.01759996335321282,0.01759996335321282
57.464999999999996,0.0190889910991062,0.0190889910991062
57.466,0.01848284770829748,0.01848284770829748
57.467,0.016522993405217838,0.016522993405217838
57.467999999999996,0.014020782167220866,0.014020782167220866
57.469,0.011541120799047903,0.011541120799047903
57.47,0.009205958547101618,0.009205958547101618
57.471,0.006698611508507241,0.006698611508507241
57.472,0.0034743407509804994,0.0034743407509804994
57.473,0.0009004890385583853,-0.0009004890385583853
57.474,0.006416851435076016,-0.006416851435076016
57.475,0.012444311956593377,-0.012444311956593377
57.476,0.01780236278780646,-0.01780236278780646
57.477,0.02108823659198829,-0.02108823659198829
57.478,0.02116549386527395,-0.02116549386527395
57.479,0.017642795856683963,-0.017642795856683963
57.48,0.01115565363410513,-0.01115565363410513
57.481,0.0033169457587255585,-0.0033169457587255585
