Czas,AbsSum,Sum
55.851,0.20392566155833824,-0.20392566155833824
55.852,0.18051100710667634,-0.18051100710667634
55.853,0.12475487356096182,-0.12475487356096182
55.854,0.04651972014222683,-0.04651972014222683
55.855,0.039300780200814955,0.039300780200814955
55.856,0.11666304894228818,0.11666304894228818
55.857,0.17239609405152256,0.17239609405152256
55.858,0.1992041001905389,0.1992041001905389
55.859,0.19683501149054639,0.19683501149054639
55.86,0.17119061084959797,0.17119061084959797
55.861,0.1317946956996927,0.1317946956996927
55.862,0.08852345633165504,0.08852345633165504
55.863,0.0486837555391717,0.0486837555391717
55.864,0.015350149243714917,0.015350149243714917
55.865,0.012593316448793024,-0.012593316448793024
55.866,0.03885508603562737,-0.03885508603562737
55.867,0.06725502588743393,-0.06725502588743393
55.868,0.09931532953722522,-0.09931532953722522
55.869,0.1328285061125355,-0.1328285061125355
55.87,0.16194897798893249,-0.16194897798893249
55.871,0.17881338226323307,-0.17881338226323307
55.872,0.1761554595190047,-0.1761554595190047
55.873,0.1500261107450842,-0.1500261107450842
55.874,0.10167553235971039,-0.10167553235971039
55.875,0.0379177634300758,-0.0379177634300758
55.876,0.030211824141415988,0.030211824141415988
55.877,0.09014285098853891,0.09014285098853891
55.878,0.13100387416631887,0.13100387416631887
55.879,0.14643403423033852,0.14643403423033852
55.88,0.1361395119923683,0.1361395119923683
55.881,0.10575839458952307,0.10575839458952307
55.882,0.06511929176094156,0.06511929176094156
55.883,0.02545569881514509,0.02545569881514509
55.884,0.003579428735624224,-0.003579428735624224
55.885,0.016245797787064364,-0.016245797787064364
55.886,0.011793793667142949,-0.011793793667142949
55.887,0.00589588425712706,0.00589588425712706
55.888,0.02985830900628983,0.02985830900628983
55.889,0.052206467134705115,0.052206467134705115
55.89,0.06623269805136811,0.06623269805136811
55.891,0.06788819661645196,0.06788819661645196
55.892,0.05635416181389363,0.05635416181389363
55.893,0.03374072688838714,0.03374072688838714
55.894,0.004203404120557419,0.004203404120557419
55.895,0.027128077912404125,-0.027128077912404125
55.896,0.05507303824757315,-0.05507303824757315
55.897,0.07501496890850667,-0.07501496890850667
55.898,0.08324936892072787,-0.08324936892072787
55.899,0.07723866945099289,-0.07723866945099289
55.9,0.05595612130249372,-0.05595612130249372
55.901,0.020381855909306412,-0.020381855909306412
55.902,0.025972316972992848,0.025972316972992848
55.903,0.07679476675569785,0.07679476675569785
55.904,0.12329632055816009,0.12329632055816009
55.905,0.15534458347391533,0.15534458347391533
55.906,0.16337732866283683,0.16337732866283683
55.907,0.14074642385611802,0.14074642385611802
55.908,0.08588534989623686,0.08588534989623686
55.909,0.0036039195604928853,0.0036039195604928853
55.91,0.09504490370299623,-0.09504490370299623
55.911,0.19452559813556225,-0.19452559813556225
55.912,0.2779336709016751,-0.2779336709016751
55.913,0.33074345360885704,-0.33074345360885704
55.914,0.3442082087756366,-0.3442082087756366
55.915,0.31745171418183793,-0.31745171418183793
55.916,0.2576111368341014,-0.2576111368341014
55.917,0.17792847957624747,-0.17792847957624747
55.918,0.0942836306142425,-0.0942836306142425
55.919,0.021130772802820386,-0.021130772802820386
55.92,0.03201040680464562,0.03201040680464562
55.921,0.06251432354762332,0.06251432354762332
55.922,0.07452805374222948,0.07452805374222948
55.923,0.0768653772704988,0.0768653772704988
55.924,0.07961242131313484,0.07961242131313484
55.925,0.09052401500411178,0.09052401500411178
55.926,0.11233598250549592,0.11233598250549592
55.927,0.14181425191816976,0.14181425191816976
55.928,0.17080466351995183,0.17080466351995183
55.929,0.18891550197081752,0.18891550197081752
55.93,0.18695837135408033,0.18695837135408033
55.931,0.16005038399836913,0.16005038399836913
55.932,0.10940749482122003,0.10940749482122003
55.933,0.0422883059041983,0.0422883059041983
55.934,0.02986299480343968,-0.02986299480343968
55.935,0.09446774098517363,-0.09446774098517363
55.936,0.14110079325883784,-0.14110079325883784
55.937,0.1640211906292569,-0.1640211906292569
55.938,0.16322894632392349,-0.16322894632392349
55.939,0.14382401706606573,-0.14382401706606573
55.94,0.11398435125697093,-0.11398435125697093
55.941,0.08229263188995606,-0.08229263188995606
55.942,0.05529748613098984,-0.05529748613098984
55.943,0.0360550691843623,-0.0360550691843623
55.944,0.024020747923525154,-0.024020747923525154
55.945,0.016183971390128504,-0.016183971390128504
55.946,0.008926533701337447,-0.008926533701337447
55.947,0.00012814070571942615,0.00012814070571942615
55.948,0.010955658153509296,0.010955658153509296
55.949,0.02105547690513543,0.02105547690513543
55.95,0.026440527169995898,0.026440527169995898
55.951,0.02328099217712354,0.02328099217712354
55.952,0.009559982793275967,0.009559982793275967
55.953,0.01389485035488447,-0.01389485035488447
55.954,0.04340233907177615,-0.04340233907177615
55.955,0.073459883052571,-0.073459883052571
55.956,0.09844998957360052,-0.09844998957360052
55.957,0.1144033416743474,-0.1144033416743474
55.958,0.1201735209079664,-0.1201735209079664
55.959,0.1175867960791861,-0.1175867960791861
55.96,0.11050103456333082,-0.11050103456333082
55.961,0.1031094322453373,-0.1031094322453373
55.962,0.09811329686882042,-0.09811329686882042
55.963,0.09545726696454215,-0.09545726696454215
55.964,0.09213949229696361,-0.09213949229696361
55.965,0.08323554764110896,-0.08323554764110896
55.966,0.06383481400931335,-0.06383481400931335
55.967,0.031235299077389422,-0.031235299077389422
55.968,0.013394767192344448,0.013394767192344448
55.969,0.0645454673264183,0.0645454673264183
55.97,0.11336858664326455,0.11336858664326455
55.971,0.14994884821452237,0.14994884821452237
55.972,0.16618769486018126,0.16618769486018126
55.973,0.15839367016014494,0.15839367016014494
55.974,0.12871350308999796,0.12871350308999796
55.975,0.08486764290997217,0.08486764290997217
55.976,0.038175560247746265,0.038175560247746265
55.977,0.000405149307116659,0.000405149307116659
55.978,0.019621660574395072,-0.019621660574395072
55.979,0.018622866893230006,-0.018622866893230006
55.98,0.00017578646228355588,0.00017578646228355588
55.981,0.028037043278557716,0.028037043278557716
55.982,0.05340313649363004,0.05340313649363004
55.983,0.06547731366465337,0.06547731366465337
55.984,0.057601002914627886,0.057601002914627886
55.985,0.029382006946707673,0.029382006946707673
55.986,0.013090904910368018,-0.013090904910368018
55.987,0.059018826272959846,-0.059018826272959846
55.988,0.09610143449671771,-0.09610143449671771
55.989,0.1141867793002197,-0.1141867793002197
55.99,0.10822993770296663,-0.10822993770296663
55.991,0.07965132684767906,-0.07965132684767906
55.992,0.03569682803340646,-0.03569682803340646
55.993,0.012961176293480925,0.012961176293480925
55.994,0.05558406168873886,0.05558406168873886
55.995,0.08458990830429647,0.08458990830429647
55.996,0.09759503394039282,0.09759503394039282
55.997,0.09762330652643936,0.09762330652643936
55.998,0.09143864526389867,0.09143864526389867
55.999,0.0865799491422099,0.0865799491422099
56.0,0.0881168252507254,0.0881168252507254
56.001,0.0962546577725345,0.0962546577725345
56.002,0.10565927417089704,0.10565927417089704
56.003,0.10682338287727178,0.10682338287727178
56.004,0.08913144748706814,0.08913144748706814
56.005,0.0447083113086153,0.0447083113086153
56.006,0.02815671278492604,-0.02815671278492604
56.007,0.12313727383970707,-0.12313727383970707
56.008,0.22624009403396372,-0.22624009403396372
56.009,0.3184502447065005,-0.3184502447065005
56.01,0.3800041611753483,-0.3800041611753483
56.011,0.3951500362142082,-0.3951500362142082
56.012,0.3560990564288976,-0.3560990564288976
56.013,0.2650967139075021,-0.2650967139075021
56.014,0.13407886187230245,-0.13407886187230245
56.015,0.017943334462978466,0.017943334462978466
56.016,0.16900787107591286,0.16900787107591286
56.017,0.2987002844060287,0.2987002844060287
56.018,0.39186208347652784,0.39186208347652784
56.019,0.4406551476504983,0.4406551476504983
56.02,0.4446650566126107,0.4446650566126107
56.021,0.40931463244022437,0.40931463244022437
56.022,0.34331493785339684,0.34331493785339684
56.023,0.25607159392099144,0.25607159392099144
56.024,0.1558473270942904,0.1558473270942904
56.025,0.049115457775617655,0.049115457775617655
56.026,0.05894033762354123,-0.05894033762354123
56.027,0.1632505350064094,-0.1632505350064094
56.028,0.25770960412434507,-0.25770960412434507
56.029,0.33471601168261245,-0.33471601168261245
56.03,0.3857845705171825,-0.3857845705171825
56.031,0.40318708988800056,-0.40318708988800056
56.032,0.382156827103761,-0.382156827103761
56.033,0.3229232289607794,-0.3229232289607794
56.034,0.23182001656565343,-0.23182001656565343
56.035,0.12094436976577716,-0.12094436976577716
56.036,0.00626578512591236,-0.00626578512591236
56.037,0.09544222764994204,0.09544222764994204
56.038,0.1700957186793901,0.1700957186793901
56.039,0.2093037689929913,0.2093037689929913
56.04,0.2120705101340552,0.2120705101340552
56.041,0.18472603290553558,0.18472603290553558
56.042,0.13909484872787004,0.13909484872787004
56.043,0.08938563530237409,0.08938563530237409
56.044,0.04862203782818186,0.04862203782818186
56.045,0.02553960559521662,0.02553960559521662
56.046,0.02272588321451008,0.02272588321451008
56.047,0.036429018414457115,0.036429018414457115
56.048,0.05800920676756949,0.05800920676756949
56.049,0.076582976896441,0.076582976896441
56.05,0.0821242137865883,0.0821242137865883
56.051,0.06820518871626735,0.06820518871626735
56.052,0.033693945062210906,0.033693945062210906
56.053,0.01697689053430307,-0.01697689053430307
56.054,0.07497716625297735,-0.07497716625297735
56.055,0.12933226093994488,-0.12933226093994488
56.056,0.16966135551165096,-0.16966135551165096
56.057,0.18870811431348544,-0.18870811431348544
56.058,0.1840484910583089,-0.1840484910583089
56.059,0.15857846209607473,-0.15857846209607473
56.06,0.11968548325156225,-0.11968548325156225
56.061,0.07732040562296272,-0.07732040562296272
56.062,0.04144287129569413,-0.04144287129569413
56.063,0.019459486589185393,-0.019459486589185393
56.064,0.014280838431856013,-0.014280838431856013
56.065,0.02348912201897413,-0.02348912201897413
56.066,0.0398590557251256,-0.0398590557251256
56.067,0.053160945263934556,-0.053160945263934556
56.068,0.05286224946563001,-0.05286224946563001
56.069,0.031103301324781008,-0.031103301324781008
56.07,0.014785229600037031,0.014785229600037031
56.071,0.08089454830190124,0.08089454830190124
56.072,0.1569207657306828,0.1569207657306828
56.073,0.22800151013081216,0.22800151013081216
56.074,0.2778801887937927,0.2778801887937927
56.075,0.2927121289381356,0.2927121289381356
56.076,0.2646126720410622,0.2646126720410622
56.077,0.19404690386462153,0.19404690386462153
56.078,0.0903915377134783,0.0903915377134783
56.079,0.029581649223972883,-0.029581649223972883
56.08,0.1450420195739357,-0.1450420195739357
56.081,0.2355264183560163,-0.2355264183560163
56.082,0.2854213007418511,-0.2854213007418511
56.083,0.2874164190293539,-0.2874164190293539
56.084,0.24407475373753107,-0.24407475373753107
56.085,0.1671195085387598,-0.1671195085387598
56.086,0.07460675424914698,-0.07460675424914698
56.087,0.013317539333702832,0.013317539333702832
56.088,0.07902651009830408,0.07902651009830408
56.089,0.11126044055225592,0.11126044055225592
56.09,0.10730219352549875,0.10730219352549875
56.091,0.07301561113653365,0.07301561113653365
56.092,0.020837568411312235,0.020837568411312235
56.093,0.03367372129127599,-0.03367372129127599
56.094,0.07579815477815399,-0.07579815477815399
56.095,0.0951117195840987,-0.0951117195840987
56.096,0.08762746436337576,-0.08762746436337576
56.097,0.056197405693420466,-0.056197405693420466
56.098,0.009228144214167178,-0.009228144214167178
56.099,0.041814350247915355,0.041814350247915355
56.1,0.08537441628815579,0.08537441628815579
56.101,0.11247153224552875,0.11247153224552875
56.102,0.1184467239042386,0.1184467239042386
56.103,0.10348465315094146,0.10348465315094146
56.104,0.07195533660844444,0.07195533660844444
56.105,0.030910689374429312,0.030910689374429312
56.106,0.011768543928078579,-0.011768543928078579
56.107,0.049076185843616726,-0.049076185843616726
56.108,0.07606513442072405,-0.07606513442072405
56.109,0.09034910974086874,-0.09034910974086874
56.11,0.09196663762469481,-0.09196663762469481
56.111,0.08280354020921121,-0.08280354020921121
56.112,0.06583082957652653,-0.06583082957652653
56.113,0.04438611805208248,-0.04438611805208248
56.114,0.021638162891498558,-0.021638162891498558
56.115,0.00026963079164787906,-0.00026963079164787906
56.116,0.01766697867028344,0.01766697867028344
56.117,0.03079766859595945,0.03079766859595945
56.118,0.03844104118861291,0.03844104118861291
56.119,0.04060472734153975,0.04060472734153975
56.12,0.0379356268555191,0.0379356268555191
56.121,0.03157586156248038,0.03157586156248038
56.122,0.022894387595929988,0.022894387595929988
56.123,0.01311398525176033,0.01311398525176033
56.124,0.002913817009852826,0.002913817009852826
56.125,0.007868598724632747,-0.007868598724632747
56.126,0.020308314381142778,-0.020308314381142778
56.127,0.036154331947008234,-0.036154331947008234
56.128,0.05728456596684761,-0.05728456596684761
56.129,0.08495892816809647,-0.08495892816809647
56.13,0.11905970575389391,-0.11905970575389391
56.131,0.15754619632069067,-0.15754619632069067
56.132,0.19632393365309475,-0.19632393365309475
56.133,0.22963892610458614,-0.22963892610458614
56.134,0.25097457768900167,-0.25097457768900167
56.135,0.2542879979974012,-0.2542879979974012
56.136,0.2353127174832469,-0.2353127174832469
56.137,0.19260985251720997,-0.19260985251720997
56.138,0.12808734176067027,-0.12808734176067027
56.139,0.04682347395463493,-0.04682347395463493
56.14,0.043798766320718885,0.043798766320718885
56.141,0.1354579336218784,0.1354579336218784
56.142,0.22042729976469988,0.22042729976469988
56.143,0.2928766972243355,0.2928766972243355
56.144,0.3495862992334886,0.3495862992334886
56.145,0.3898626678283752,0.3898626678283752
56.146,0.41466977788406223,0.41466977788406223
56.147,0.42523018328171247,0.42523018328171247
56.148,0.42154574903696496,0.42154574903696496
56.149,0.40136960675522504,0.40136960675522504
56.15,0.3600908839062691,0.3600908839062691
56.151,0.2917698797115993,0.2917698797115993
56.152,0.19122768837126447,0.19122768837126447
56.153,0.05673430993122497,0.05673430993122497
56.154,0.10744261974493219,-0.10744261974493219
56.155,0.289473059974662,-0.289473059974662
56.156,0.4701002159627745,-0.4701002159627745
56.157,0.6248315956254458,-0.6248315956254458
56.158,0.7280167558953647,-0.7280167558953647
56.159,0.758086349348035,-0.758086349348035
56.16,0.7027939976987274,-0.7027939976987274
56.161,0.5631335946342435,-0.5631335946342435
56.162,0.3547805473370702,-0.3547805473370702
56.163,0.10641596779171325,-0.10641596779171325
56.164,0.14497018918714066,0.14497018918714066
56.165,0.36092165650163954,0.36092165650163954
56.166,0.5090198954825902,0.5090198954825902
56.167,0.5693091320824593,0.5693091320824593
56.168,0.5380925717409881,0.5380925717409881
56.169,0.42816098308297534,0.42816098308297534
56.17,0.2653977726856793,0.2653977726856793
56.171,0.0826257697511914,0.0826257697511914
56.172,0.0877348093408521,-0.0877348093408521
56.173,0.220342537442213,-0.220342537442213
56.174,0.3013117715878495,-0.3013117715878495
56.175,0.3293278626226047,-0.3293278626226047
56.176,0.3134685859440075,-0.3134685859440075
56.177,0.26862151908076193,-0.26862151908076193
56.178,0.2100305255743995,-0.2100305255743995
56.179,0.14868072998389248,-0.14868072998389248
56.18,0.08889044499472354,-0.08889044499472354
56.181,0.028726698134553197,-0.028726698134553197
56.182,0.037069670976171976,0.037069670976171976
56.183,0.11278481846128474,0.11278481846128474
56.184,0.1976502287422659,0.1976502287422659
56.185,0.28351637451257483,0.28351637451257483
56.186,0.3552683303939257,0.3552683303939257
56.187,0.39408885864664045,0.39408885864664045
56.188,0.3827351997130364,0.3827351997130364
56.189,0.31129113569799216,0.31129113569799216
56.19,0.18160933540796687,0.18160933540796687
56.191,0.008955354563357387,0.008955354563357387
56.192,0.17987661073637184,-0.17987661073637184
56.193,0.35170675477061697,-0.35170675477061697
56.194,0.4741573216374386,-0.4741573216374386
56.195,0.5230598406876679,-0.5230598406876679
56.196,0.48815862772465735,-0.48815862772465735
56.197,0.3756276323959036,-0.3756276323959036
56.198,0.20676460749345194,-0.20676460749345194
56.199,0.013232348351206569,-0.013232348351206569
56.2,0.1699052404218535,0.1699052404218535
56.201,0.31159398024352214,0.31159398024352214
56.202,0.39086994044473644,0.39086994044473644
56.203,0.4002823367074,0.4002823367074
56.204,0.3460952447143857,0.3460952447143857
56.205,0.24554846798864416,0.24554846798864416
56.206,0.12214380029341476,0.12214380029341476
56.207,0.00027898169494822156,0.00027898169494822156
56.208,0.09948213821032792,-0.09948213821032792
56.209,0.16357879896300842,-0.16357879896300842
56.21,0.18668268240437702,-0.18668268240437702
56.211,0.17115115027117722,-0.17115115027117722
56.212,0.12525209187918462,-0.12525209187918462
56.213,0.0608497598616724,-0.0608497598616724
56.214,0.008852054907719786,0.008852054907719786
56.215,0.07115657931610664,0.07115657931610664
56.216,0.1152294791234556,0.1152294791234556
56.217,0.13307212155672743,0.13307212155672743
56.218,0.12026913676997086,0.12026913676997086
56.219,0.07658010156215411,0.07658010156215411
56.22,0.006291516011300846,0.006291516011300846
56.221,0.08188118090394148,-0.08188118090394148
56.222,0.17557057357614503,-0.17557057357614503
56.223,0.26032106397494514,-0.26032106397494514
56.224,0.32181689414050907,-0.32181689414050907
56.225,0.34839517016634225,-0.34839517016634225
56.226,0.3332859199648145,-0.3332859199648145
56.227,0.2760044206005451,-0.2760044206005451
56.228,0.18249545711090276,-0.18249545711090276
56.229,0.06395399644413313,-0.06395399644413313
56.23,0.06537838677849939,0.06537838677849939
56.231,0.19084353531367637,0.19084353531367637
56.232,0.2997108815818661,0.2997108815818661
56.233,0.3826412454944379,0.3826412454944379
56.234,0.4339939956280914,0.4339939956280914
56.235,0.45111506582320193,0.45111506582320193
56.236,0.43310805453756696,0.43310805453756696
56.237,0.3797718659360665,0.3797718659360665
56.238,0.29131028174861195,0.29131028174861195
56.239,0.16909490793310789,0.16909490793310789
56.24,0.017296558365529346,0.017296558365529346
56.241,0.1552460021843738,-0.1552460021843738
56.242,0.3338083244865868,-0.3338083244865868
56.243,0.49805449853014216,-0.49805449853014216
56.244,0.6242732491609418,-0.6242732491609418
56.245,0.6894431525540318,-0.6894431525540318
56.246,0.6763400247936773,-0.6763400247936773
56.247,0.5784082073709305,-0.5784082073709305
56.248,0.4029690678667176,-0.4029690678667176
56.249,0.17161863674161182,-0.17161863674161182
56.25,0.08267394552855656,0.08267394552855656
56.251,0.3213843149770712,0.3213843149770712
56.252,0.5079490935563158,0.5079490935563158
56.253,0.6152152574045844,0.6152152574045844
56.254,0.6309767235750852,0.6309767235750852
56.255,0.5601841516467871,0.5601841516467871
56.256,0.42325333291543576,0.42325333291543576
56.257,0.2509142690694721,0.2509142690694721
56.258,0.07694845673296014,0.07694845673296014
56.259,0.06930516657385388,-0.06930516657385388
56.26,0.16878876195950143,-0.16878876195950143
56.261,0.21554075371095038,-0.21554075371095038
56.262,0.21600674434075962,-0.21600674434075962
56.263,0.1853538490357165,-0.1853538490357165
56.264,0.1420921518855216,-0.1420921518855216
56.265,0.10267934384574628,-0.10267934384574628
56.266,0.07763630014896372,-0.07763630014896372
56.267,0.07009889848738837,-0.07009889848738837
56.268,0.07688238955381999,-0.07688238955381999
56.269,0.09132044339031964,-0.09132044339031964
56.27,0.10662543146438175,-0.10662543146438175
56.271,0.1184600381662827,-0.1184600381662827
56.272,0.1258175537556815,-0.1258175537556815
56.273,0.13002642638833128,-0.13002642638833128
56.274,0.13246442693210658,-0.13246442693210658
56.275,0.13211020311620114,-0.13211020311620114
56.276,0.12417209388431649,-0.12417209388431649
56.277,0.10066077927728556,-0.10066077927728556
56.278,0.05303024998266315,-0.05303024998266315
56.279,0.0238451060051017,0.0238451060051017
56.28,0.1277514284824075,0.1277514284824075
56.281,0.2468760581425531,0.2468760581425531
56.282,0.3604462337145178,0.3604462337145178
56.283,0.4426447885939697,0.4426447885939697
56.284,0.46908052202353745,0.46908052202353745
56.285,0.42410548352357735,0.42410548352357735
56.286,0.30674964618975853,0.30674964618975853
56.287,0.13320545562575847,0.13320545562575847
56.288,0.06534942762066098,-0.06534942762066098
56.289,0.24947109635488118,-0.24947109635488118
56.29,0.38117200532062967,-0.38117200532062967
56.291,0.43405100641955474,-0.43405100641955474
56.292,0.40089796801892463,-0.40089796801892463
56.293,0.29638108085444004,-0.29638108085444004
56.294,0.15373218477017447,-0.15373218477017447
56.295,0.0160609665493735,-0.0160609665493735
56.296,0.07545179611867225,0.07545179611867225
56.297,0.09320820610958758,0.09320820610958758
56.298,0.03133110240357584,0.03133110240357584
56.299,0.09216833715882611,-0.09216833715882611
56.3,0.23997840898381517,-0.23997840898381517
56.301,0.3656657035445211,-0.3656657035445211
56.302,0.42662898545217154,-0.42662898545217154
56.303,0.39616099484564793,-0.39616099484564793
56.304,0.27116966140085974,-0.27116966140085974
56.305,0.07334771961343678,-0.07334771961343678
56.306,0.15652499523192587,0.15652499523192587
56.307,0.36947351493012537,0.36947351493012537
56.308,0.5212546676811525,0.5212546676811525
56.309,0.5836204160860978,0.5836204160860978
56.31,0.5507821512925004,0.5507821512925004
56.311,0.43942397438589786,0.43942397438589786
56.312,0.2825545315479776,0.2825545315479776
56.313,0.11928855256579296,0.11928855256579296
56.314,0.016235810463945843,-0.016235810463945843
56.315,0.10349463155530048,-0.10349463155530048
56.316,0.13937468022175115,-0.13937468022175115
56.317,0.13634807911939173,-0.13634807911939173
56.318,0.116034666526313,-0.116034666526313
56.319,0.10055534702681623,-0.10055534702681623
56.32,0.1046460096126679,-0.1046460096126679
56.321,0.131085232635054,-0.131085232635054
56.322,0.17075605076568978,-0.17075605076568978
56.323,0.207040546091935,-0.207040546091935
56.324,0.22278202188944096,-0.22278202188944096
56.325,0.2072263079554716,-0.2072263079554716
56.326,0.16043347197270263,-0.16043347197270263
56.327,0.09359086894063307,-0.09359086894063307
56.328,0.025127436576042772,-0.025127436576042772
56.329,0.025978078142765204,0.025978078142765204
56.33,0.04729598648698752,0.04729598648698752
56.331,0.037876964866669915,0.037876964866669915
56.332,0.009159020472912616,0.009159020472912616
56.333,0.01863447071690849,-0.01863447071690849
56.334,0.02352528358454764,-0.02352528358454764
56.335,0.010068864465092364,0.010068864465092364
56.336,0.08484143278037726,0.08484143278037726
56.337,0.1880812270323975,0.1880812270323975
56.338,0.29420237998907606,0.29420237998907606
56.339,0.37174957945117026,0.37174957945117026
56.34,0.39281531049662854,0.39281531049662854
56.341,0.341952734369914,0.341952734369914
56.342,0.2217420598826072,0.2217420598826072
56.343,0.053157545545722495,0.053157545545722495
56.344,0.12952278028125552,-0.12952278028125552
56.345,0.2878282330390064,-0.2878282330390064
56.346,0.38953622643859265,-0.38953622643859265
56.347,0.41733404032616783,-0.41733404032616783
56.348,0.3731419210220611,-0.3731419210220611
56.349,0.276874179344452,-0.276874179344452
56.35,0.16011204099589993,-0.16011204099589993
56.351,0.05668492946506609,-0.05668492946506609
56.352,0.006965321304648109,0.006965321304648109
56.353,0.018788350874529014,0.018788350874529014
56.354,0.01645493451593827,-0.01645493451593827
56.355,0.07984597777794944,-0.07984597777794944
56.356,0.1449698896219611,-0.1449698896219611
56.357,0.1863586056991573,-0.1863586056991573
56.358,0.18706955635251654,-0.18706955635251654
56.359,0.1431706904421436,-0.1431706904421436
56.36,0.06398672837584207,-0.06398672837584207
56.361,0.03166158877292902,0.03166158877292902
56.362,0.12177257914947637,0.12177257914947637
56.363,0.18789178918899152,0.18789178918899152
56.364,0.2201421536901973,0.2201421536901973
56.365,0.2191396948332296,0.2191396948332296
56.366,0.19447277499741022,0.19447277499741022
56.367,0.16053935925155316,0.16053935925155316
56.368,0.13131361832628086,0.13131361832628086
56.369,0.11582264946147136,0.11582264946147136
56.37,0.11572890437420025,0.11572890437420025
56.371,0.12560434934413722,0.12560434934413722
56.372,0.13554741794078673,0.13554741794078673
56.373,0.13505325999618534,0.13505325999618534
56.374,0.11673362914991414,0.11673362914991414
56.375,0.07866653676335544,0.07866653676335544
56.376,0.024734840762001387,0.024734840762001387
56.377,0.03694310630439068,-0.03694310630439068
56.378,0.09674897218213929,-0.09674897218213929
56.379,0.14640464293674904,-0.14640464293674904
56.38,0.1809408135851388,-0.1809408135851388
56.381,0.19924373928157824,-0.19924373928157824
56.382,0.20321489027655126,-0.20321489027655126
56.383,0.19609463960602358,-0.19609463960602358
56.384,0.1807609464066452,-0.1807609464066452
56.385,0.15873565572511317,-0.15873565572511317
56.386,0.13026441181447623,-0.13026441181447623
56.387,0.09533869505385084,-0.09533869505385084
56.388,0.05510230517834014,-0.05510230517834014
56.389,0.012899142571695221,-0.012899142571695221
56.39,0.02565238414398463,0.02565238414398463
56.391,0.05377995022351012,0.05377995022351012
56.392,0.06558927019116734,0.06558927019116734
56.393,0.058303808590375095,0.058303808590375095
56.394,0.03384226043441685,0.03384226043441685
56.395,0.0009733747865317,-0.0009733747865317
56.396,0.035840877501524204,-0.035840877501524204
56.397,0.05971922513445049,-0.05971922513445049
56.398,0.06407766097803624,-0.06407766097803624
56.399,0.0456048590674788,-0.0456048590674788
56.4,0.007450384448936642,-0.007450384448936642
56.401,0.04148184232264307,0.04148184232264307
56.402,0.08903843324448402,0.08903843324448402
56.403,0.12337019937118865,0.12337019937118865
56.404,0.13642127124700743,0.13642127124700743
56.405,0.12624104240821943,0.12624104240821943
56.406,0.09737683039520406,0.09737683039520406
56.407,0.0592253496334858,0.0592253496334858
56.408,0.022885710882822208,0.022885710882822208
56.409,0.0024551784335147264,-0.0024551784335147264
56.41,0.012424220587762602,-0.012424220587762602
56.411,0.0087078144949988,-0.0087078144949988
56.412,0.001755936500394073,0.001755936500394073
56.413,0.00936357846694058,0.00936357846694058
56.414,0.005357186876666864,0.005357186876666864
56.415,0.014892920098512175,-0.014892920098512175
56.416,0.049911543717771845,-0.049911543717771845
56.417,0.09210720774452619,-0.09210720774452619
56.418,0.12976184168728744,-0.12976184168728744
56.419,0.15043067456765147,-0.15043067456765147
56.42,0.14472786919307212,-0.14472786919307212
56.421,0.1093622265983546,-0.1093622265983546
56.422,0.048522359556588346,-0.048522359556588346
56.423,0.026792152139973435,0.026792152139973435
56.424,0.10129838332658836,0.10129838332658836
56.425,0.15910334234836143,0.15910334234836143
56.426,0.18751964997634407,0.18751964997634407
56.427,0.1800269503712708,0.1800269503712708
56.428,0.13766210620438857,0.13766210620438857
56.429,0.06857324672600962,0.06857324672600962
56.43,0.014043306295994817,-0.014043306295994817
56.431,0.0950223637133577,-0.0950223637133577
56.432,0.1605341114052593,-0.1605341114052593
56.433,0.20084759910855954,-0.20084759910855954
56.434,0.21199256169003733,-0.21199256169003733
56.435,0.19606476435098652,-0.19606476435098652
56.436,0.16023863179641384,-0.16023863179641384
56.437,0.11480880658137371,-0.11480880658137371
56.438,0.07073785991391146,-0.07073785991391146
56.439,0.03723233370490009,-0.03723233370490009
56.44,0.019819290866443406,-0.019819290866443406
56.441,0.019276457661785318,-0.019276457661785318
56.442,0.03160581816430075,-0.03160581816430075
56.443,0.049053224864415323,-0.049053224864415323
56.444,0.06198352322471179,-0.06198352322471179
56.445,0.06124471647314811,-0.06124471647314811
56.446,0.04052698833785562,-0.04052698833785562
56.447,0.0018209112469576016,0.0018209112469576016
56.448,0.06198442407595817,0.06198442407595817
56.449,0.13115793502813977,0.13115793502813977
56.45,0.19728370394662642,0.19728370394662642
56.451,0.2477116718007084,0.2477116718007084
56.452,0.2721635884428677,0.2721635884428677
56.453,0.2652515692568236,0.2652515692568236
56.454,0.22786605685610017,0.22786605685610017
56.455,0.16701527561545482,0.16701527561545482
56.456,0.0941078290891384,0.0941078290891384
56.457,0.022110122619578343,0.022110122619578343
56.458,0.037651999788352875,-0.037651999788352875
56.459,0.07815412842831115,-0.07815412842831115
56.46,0.09804455398955536,-0.09804455398955536
56.461,0.1013492179621901,-0.1013492179621901
56.462,0.09563500689779347,-0.09563500689779347
56.463,0.0892288146645932,-0.0892288146645932
56.464,0.08838197456752528,-0.08838197456752528
56.465,0.09528251846423774,-0.09528251846423774
56.466,0.10754086469733126,-0.10754086469733126
56.467,0.11929263432996307,-0.11929263432996307
56.468,0.12352984048699833,-0.12352984048699833
56.469,0.11486329210173718,-0.11486329210173718
56.47,0.09177139169219761,-0.09177139169219761
56.471,0.057555663753306785,-0.057555663753306785
56.472,0.0196496993673152,-0.0196496993673152
56.473,0.01252388313813868,0.01252388313813868
56.474,0.030466176446621196,0.030466176446621196
56.475,0.029337832264663355,0.029337832264663355
56.476,0.009619814780986058,0.009619814780986058
56.477,0.022853242314162414,-0.022853242314162414
56.478,0.05851094695577386,-0.05851094695577386
56.479,0.08680541958412513,-0.08680541958412513
56.48,0.09923569699073642,-0.09923569699073642
56.481,0.09169148858712262,-0.09169148858712262
56.482,0.06540839688289735,-0.06540839688289735
56.483,0.026292778921080284,-0.026292778921080284
56.484,0.017092025544957812,0.017092025544957812
56.485,0.056165329761357796,0.056165329761357796
56.486,0.08471200134633006,0.08471200134633006
56.487,0.10025805727340997,0.10025805727340997
56.488,0.10406885216592743,0.10406885216592743
56.489,0.0998912726483745,0.0998912726483745
56.49,0.09199128196805795,0.09199128196805795
56.491,0.08325894527261335,0.08325894527261335
56.492,0.07409293602605405,0.07409293602605405
56.493,0.06246319002787737,0.06246319002787737
56.494,0.045099788634350046,0.045099788634350046
56.495,0.019330711256495325,0.019330711256495325
56.496,0.015157763472607888,-0.015157763472607888
56.497,0.0553488265418387,-0.0553488265418387
56.498,0.095148195127288,-0.095148195127288
56.499,0.12686409957789413,-0.12686409957789413
56.5,0.14347118951756488,-0.14347118951756488
56.501,0.14091673889896017,-0.14091673889896017
56.502,0.11967924542223018,-0.11967924542223018
56.503,0.08500969117014134,-0.08500969117014134
56.504,0.04570127262712442,-0.04570127262712442
56.505,0.011706166116986716,-0.011706166116986716
56.506,0.008707688817897852,0.008707688817897852
56.507,0.011411364604320351,0.011411364604320351
56.508,0.002256950173010086,-0.002256950173010086
56.509,0.02569321580290429,-0.02569321580290429
56.51,0.04871078273963203,-0.04871078273963203
56.511,0.06023571887733559,-0.06023571887733559
56.512,0.051275496708597545,-0.051275496708597545
56.513,0.017377730066149177,-0.017377730066149177
56.514,0.040028112778335734,0.040028112778335734
56.515,0.11368631585420674,0.11368631585420674
56.516,0.1918793844742026,0.1918793844742026
56.517,0.2607104973655343,0.2607104973655343
56.518,0.30675059120470793,0.30675059120470793
56.519,0.31949430624235053,0.31949430624235053
56.52,0.29319502123359364,0.29319502123359364
56.521,0.22783977690295942,0.22783977690295942
56.522,0.12921207924720712,0.12921207924720712
56.523,0.00812752904515146,0.00812752904515146
56.524,0.12099892814067681,-0.12099892814067681
56.525,0.2420666383344583,-0.2420666383344583
56.526,0.3394801559967785,-0.3394801559967785
56.527,0.40038424952646856,-0.40038424952646856
56.528,0.4166633699811677,-0.4166633699811677
56.529,0.38638588740832513,-0.38638588740832513
56.53,0.31437922639768845,-0.31437922639768845
56.531,0.21170952354457406,-0.21170952354457406
56.532,0.09401943551015235,-0.09401943551015235
56.533,0.021076417004918246,0.021076417004918246
56.534,0.11708894901662759,0.11708894901662759
56.535,0.18162055575842562,0.18162055575842562
56.536,0.20854325819367125,0.20854325819367125
56.537,0.19887530446881496,0.19887530446881496
56.538,0.1601366246156113,0.1601366246156113
56.539,0.10433542495844295,0.10433542495844295
56.54,0.04508346780528294,0.04508346780528294
56.541,0.005445734432857452,-0.005445734432857452
56.542,0.03897925192205687,-0.03897925192205687
56.543,0.052470081501707955,-0.052470081501707955
56.544,0.048053475615329355,-0.048053475615329355
56.545,0.031774955795551785,-0.031774955795551785
56.546,0.01153971917880181,-0.01153971917880181
56.547,0.0051081731187401225,0.0051081731187401225
56.548,0.012795247959566769,0.012795247959566769
56.549,0.009322272357011219,0.009322272357011219
56.55,0.004258414282327316,-0.004258414282327316
56.551,0.024345748945795442,-0.024345748945795442
56.552,0.04594865909649015,-0.04594865909649015
56.553,0.06392841189832354,-0.06392841189832354
56.554,0.07402642109267976,-0.07402642109267976
56.555,0.07352538092810779,-0.07352538092810779
56.556,0.061541244416228214,-0.061541244416228214
56.557,0.0390384732271809,-0.0390384732271809
56.558,0.008675262823098717,-0.008675262823098717
56.559,0.025466639085177878,0.025466639085177878
56.56,0.05828640853959044,0.05828640853959044
56.561,0.0842634559121942,0.0842634559121942
56.562,0.0982859403052343,0.0982859403052343
56.563,0.09664825743717609,0.09664825743717609
56.564,0.07803163626229526,0.07803163626229526
56.565,0.0441863048220561,0.0441863048220561
56.566,2.6544561653851773e-05,2.6544561653851773e-05
56.567,0.04703970880862429,-0.04703970880862429
56.568,0.08851489591376838,-0.08851489591376838
56.569,0.11667084629931157,-0.11667084629931157
56.57,0.1263891787924042,-0.1263891787924042
56.571,0.11644785536710045,-0.11644785536710045
56.572,0.08983171749183938,-0.08983171749183938
56.573,0.05291362038034231,-0.05291362038034231
56.574,0.013699003724482628,-0.013699003724482628
56.575,0.020363508181162393,0.020363508181162393
56.576,0.04434019854810867,0.04434019854810867
56.577,0.0569248698013729,0.0569248698013729
56.578,0.060352318587283404,0.060352318587283404
56.579,0.05915043664744846,0.05915043664744846
56.58,0.05816203987053514,0.05816203987053514
56.581,0.0605264684282234,0.0605264684282234
56.582,0.06633985250891894,0.06633985250891894
56.583,0.0724923906597521,0.0724923906597521
56.584,0.0737782914986842,0.0737782914986842
56.585,0.06492292851468284,0.06492292851468284
56.586,0.04282815238882254,0.04282815238882254
56.587,0.008224880603401541,0.008224880603401541
56.588,0.033909839149246945,-0.033909839149246945
56.589,0.07541353384668414,-0.07541353384668414
56.59,0.10721560812878883,-0.10721560812878883
56.591,0.12213341458383054,-0.12213341458383054
56.592,0.11727171313299523,-0.11727171313299523
56.593,0.09519412333607657,-0.09519412333607657
56.594,0.06340321625342293,-0.06340321625342293
56.595,0.032204155446271865,-0.032204155446271865
56.596,0.011561351966427047,-0.011561351966427047
56.597,0.007911572901605712,-0.007911572901605712
56.598,0.02194939272910812,-0.02194939272910812
56.599,0.04812757834898185,-0.04812757834898185
56.6,0.07609742393835417,-0.07609742393835417
56.601,0.09371350718911764,-0.09371350718911764
56.602,0.09073294126129228,-0.09073294126129228
56.603,0.062107006936958364,-0.062107006936958364
56.604,0.009866401469730612,-0.009866401469730612
56.605,0.05699160784663526,0.05699160784663526
56.606,0.12462059725970587,0.12462059725970587
56.607,0.17786825510382753,0.17786825510382753
56.608,0.2042562512534165,0.2042562512534165
56.609,0.19728910787919007,0.19728910787919007
56.61,0.15818523183597244,0.15818523183597244
56.611,0.09557516469606742,0.09557516469606742
56.612,0.023277170653184465,0.023277170653184465
56.613,0.043224933197974935,-0.043224933197974935
56.614,0.0906521005958617,-0.0906521005958617
56.615,0.11114206944774863,-0.11114206944774863
56.616,0.10400625767345595,-0.10400625767345595
56.617,0.07563790387206504,-0.07563790387206504
56.618,0.037656773310365765,-0.037656773310365765
56.619,0.0038043470472616248,-0.0038043470472616248
56.62,0.013619056654890604,0.013619056654890604
56.621,0.0069103957155962625,0.0069103957155962625
56.622,0.025021631967045432,-0.025021631967045432
56.623,0.07623178570330091,-0.07623178570330091
56.624,0.1349818377806521,-0.1349818377806521
56.625,0.18636201372909222,-0.18636201372909222
56.626,0.2157045805457367,-0.2157045805457367
56.627,0.212036308646519,-0.212036308646519
56.628,0.17080507871280826,-0.17080507871280826
56.629,0.09526175597461306,-0.09526175597461306
56.63,0.003843888967407727,0.003843888967407727
56.631,0.1102350724622958,0.1102350724622958
56.632,0.20535817614465368,0.20535817614465368
56.633,0.2722178446626704,0.2722178446626704
56.634,0.29894176825767005,0.29894176825767005
56.635,0.28125070331489566,0.28125070331489566
56.636,0.22324219084323316,0.22324219084323316
56.637,0.13628969951979641,0.13628969951979641
56.638,0.03632273530659558,0.03632273530659558
56.639,0.05983137905070668,-0.05983137905070668
56.64,0.13811421661609002,-0.13811421661609002
56.641,0.18997846544299757,-0.18997846544299757
56.642,0.2135294630829251,-0.2135294630829251
56.643,0.21284367051309483,-0.21284367051309483
56.644,0.19576563193901164,-0.19576563193901164
56.645,0.1709231545081462,-0.1709231545081462
56.646,0.144915831200768,-0.144915831200768
56.647,0.12055170095860357,-0.12055170095860357
56.648,0.09664943630396616,-0.09664943630396616
56.649,0.06939793491227964,-0.06939793491227964
56.65,0.034739337554444916,-0.034739337554444916
56.651,0.009111131076095624,0.009111131076095624
56.652,0.059952812259381316,0.059952812259381316
56.653,0.11137494562473349,0.11137494562473349
56.654,0.15419445068521997,0.15419445068521997
56.655,0.179148867053875,0.179148867053875
56.656,0.17997443328545693,0.17997443328545693
56.657,0.1558176641544513,0.1558176641544513
56.658,0.11209979624964284,0.11209979624964284
56.659,0.059431250708630756,0.059431250708630756
56.66,0.010806655161793577,0.010806655161793577
56.661,0.02210814663181948,-0.02210814663181948
56.662,0.03245338250877716,-0.03245338250877716
56.663,0.020307051443359314,-0.020307051443359314
56.664,0.007241247033347387,0.007241247033347387
56.665,0.038148861197425,0.038148861197425
56.666,0.05901280960627808,0.05901280960627808
56.667,0.05910995033459865,0.05910995033459865
56.668,0.03365345880851445,0.03365345880851445
56.669,0.014718704326965204,-0.014718704326965204
56.67,0.07665107472982668,-0.07665107472982668
56.671,0.13871766464590896,-0.13871766464590896
56.672,0.1871637861688863,-0.1871637861688863
56.673,0.21159154003180902,-0.21159154003180902
56.674,0.20750487635253045,-0.20750487635253045
56.675,0.1770365133839501,-0.1770365133839501
56.676,0.12777980347012607,-0.12777980347012607
56.677,0.07023971395001727,-0.07023971395001727
56.678,0.014805449689304528,-0.014805449689304528
56.679,0.03078413981222594,0.03078413981222594
56.68,0.06276639390262928,0.06276639390262928
56.681,0.08122888182615706,0.08122888182615706
56.682,0.08880411041169745,0.08880411041169745
56.683,0.08883448075238864,0.08883448075238864
56.684,0.08377256824978185,0.08377256824978185
56.685,0.07441099314929156,0.07441099314929156
56.686,0.060157691261446544,0.060157691261446544
56.687,0.04013613073458311,0.04013613073458311
56.688,0.014560508874554845,0.014560508874554845
56.689,0.014267492523902248,-0.014267492523902248
56.69,0.04183901606479856,-0.04183901606479856
56.691,0.06234504224306647,-0.06234504224306647
56.692,0.07035093994340658,-0.07035093994340658
56.693,0.06266456051381808,-0.06266456051381808
56.694,0.03971964228323499,-0.03971964228323499
56.695,0.005940275906422654,-0.005940275906422654
56.696,0.031108990048912988,0.031108990048912988
56.697,0.06257219774346257,0.06257219774346257
56.698,0.08059911154026844,0.08059911154026844
56.699,0.08039477594519351,0.08039477594519351
56.7,0.061417821583389376,0.061417821583389376
56.701,0.02741230541394879,0.02741230541394879
56.702,0.014665208994464995,-0.014665208994464995
56.703,0.056430588191987985,-0.056430588191987985
56.704,0.09000198510644697,-0.09000198510644697
56.705,0.10953776742293808,-0.10953776742293808
56.706,0.11205105967143958,-0.11205105967143958
56.707,0.0974581309411966,-0.0974581309411966
56.708,0.0680736621923177,-0.0680736621923177
56.709,0.027894234666508422,-0.027894234666508422
56.71,0.01802479466015705,0.01802479466015705
56.711,0.06396149925971994,0.06396149925971994
56.712,0.10376289954091411,0.10376289954091411
56.713,0.1311495973182526,0.1311495973182526
56.714,0.1403295638265547,0.1403295638265547
56.715,0.12702130762228148,0.12702130762228148
56.716,0.08974574368359489,0.08974574368359489
56.717,0.031007466736793665,0.031007466736793665
56.718,0.04213699071804289,-0.04213699071804289
56.719,0.11855753578754813,-0.11855753578754813
56.72,0.1847432015631253,-0.1847432015631253
56.721,0.22748791245132538,-0.22748791245132538
56.722,0.23696746975158056,-0.23696746975158056
56.723,0.20937602585026982,-0.20937602585026982
56.724,0.1483120288561225,-0.1483120288561225
56.725,0.06439567211449315,-0.06439567211449315
56.726,0.026913403408792558,0.026913403408792558
56.727,0.10879669710899909,0.10879669710899909
56.728,0.16694850955633989,0.16694850955633989
56.729,0.19279057060787075,0.19279057060787075
56.73,0.18515950071126652,0.18515950071126652
56.731,0.15004301522024144,0.15004301522024144
56.732,0.09851457012937614,0.09851457012937614
56.733,0.043534343789048746,0.043534343789048746
56.734,0.0034174362745208464,-0.0034174362745208464
56.735,0.03492080701716904,-0.03492080701716904
56.736,0.04876380639056188,-0.04876380639056188
56.737,0.04750269171508181,-0.04750269171508181
56.738,0.03678428673202416,-0.03678428673202416
56.739,0.023129690108896095,-0.023129690108896095
56.74,0.011964770442501882,-0.011964770442501882
56.741,0.006493176105625498,-0.006493176105625498
56.742,0.007626847556432614,-0.007626847556432614
56.743,0.014766304529026386,-0.014766304529026386
56.744,0.026916224913612674,-0.026916224913612674
56.745,0.04354038580530173,-0.04354038580530173
56.746,0.06472583044068869,-0.06472583044068869
56.747,0.09056724956019813,-0.09056724956019813
56.748,0.12006125705350923,-0.12006125705350923
56.749,0.15006479119927407,-0.15006479119927407
56.75,0.1749134309807716,-0.1749134309807716
56.751,0.18708893837136265,-0.18708893837136265
56.752,0.17893982053792634,-0.17893982053792634
56.753,0.14503298028733114,-0.14503298028733114
56.754,0.08440733695799063,-0.08440733695799063
56.755,0.0019326992500504625,-0.0019326992500504625
56.756,0.09181209217521258,0.09181209217521258
56.757,0.1822977418849565,0.1822977418849565
56.758,0.2540843338288583,0.2540843338288583
56.759,0.29436354864982284,0.29436354864982284
56.76,0.296031945169698,0.296031945169698
56.761,0.25942979816908807,0.25942979816908807
56.762,0.19225293460574222,0.19225293460574222
56.763,0.10766671458951893,0.10766671458951893
56.764,0.021156809429406787,0.021156809429406787
56.765,0.05301512557575039,-0.05301512557575039
56.766,0.10481706435388227,-0.10481706435388227
56.767,0.1301880258413236,-0.1301880258413236
56.768,0.1311913233397074,-0.1311913233397074
56.769,0.11471370670502723,-0.11471370670502723
56.77,0.09021516192603873,-0.09021516192603873
56.771,0.06721463358970803,-0.06721463358970803
56.772,0.053156199752473765,-0.053156199752473765
56.773,0.05208286679920304,-0.05208286679920304
56.774,0.06424841599416187,-0.06424841599416187
56.775,0.0865316805348123,-0.0865316805348123
56.776,0.11336406583507797,-0.11336406583507797
56.777,0.13786661438528236,-0.13786661438528236
56.778,0.15298519480047412,-0.15298519480047412
56.779,0.15254018815970272,-0.15254018815970272
56.78,0.13219433927396163,-0.13219433927396163
56.781,0.09034287261295626,-0.09034287261295626
56.782,0.028847294033621074,-0.028847294033621074
56.783,0.04657939592179838,0.04657939592179838
56.784,0.12659599142649958,0.12659599142649958
56.785,0.19927989484826258,0.19927989484826258
56.786,0.2520324223357304,0.2520324223357304
56.787,0.2741004600548611,0.2741004600548611
56.788,0.2591894495106235,0.2591894495106235
56.789,0.20746779947669935,0.20746779947669935
56.79,0.12628884724867318,0.12628884724867318
56.791,0.02921553450576031,0.02921553450576031
56.792,0.06662441205271596,-0.06662441205271596
56.793,0.1443218436234266,-0.1443218436234266
56.794,0.19117409999435875,-0.19117409999435875
56.795,0.20178575991588377,-0.20178575991588377
56.796,0.17935573144687678,-0.17935573144687678
56.797,0.13468960436802369,-0.13468960436802369
56.798,0.08311842095899469,-0.08311842095899469
56.799,0.0401339368993342,-0.0401339368993342
56.8,0.016967746593861133,-0.016967746593861133
56.801,0.01740538670757208,-0.01740538670757208
56.802,0.03680009863310685,-0.03680009863310685
56.803,0.06361955285148069,-0.06361955285148069
56.804,0.08310694633104065,-0.08310694633104065
56.805,0.08199357302129329,-0.08199357302129329
56.806,0.05286383705448927,-0.05286383705448927
56.807,0.0031451544597544956,0.0031451544597544956
56.808,0.07614716585929426,0.07614716585929426
56.809,0.1499140622477313,0.1499140622477313
56.81,0.20621491683453397,0.20621491683453397
56.811,0.22984169495870632,0.22984169495870632
56.812,0.21287426540195176,0.21287426540195176
56.813,0.15696574631625526,0.15696574631625526
56.814,0.07301477597173167,0.07301477597173167
56.815,0.0216462943387129,-0.0216462943387129
56.816,0.1077100904578151,-0.1077100904578151
56.817,0.16871829317351383,-0.16871829317351383
56.818,0.19491369858189345,-0.19491369858189345
56.819,0.1851186822165305,-0.1851186822165305
56.82,0.14625080058797257,-0.14625080058797257
56.821,0.09078048393032756,-0.09078048393032756
56.822,0.03300062787643143,-0.03300062787643143
56.823,0.014748938779403753,0.014748938779403753
56.824,0.044843027938655355,0.044843027938655355
56.825,0.05545315242158022,0.05545315242158022
56.826,0.049847469252913834,0.049847469252913834
56.827,0.034353646817807615,0.034353646817807615
56.828,0.01579288185408756,0.01579288185408756
56.829,0.0007290885288621096,-0.0007290885288621096
56.83,0.013000648564913342,-0.013000648564913342
56.831,0.021593507859838157,-0.021593507859838157
56.832,0.028670808735423936,-0.028670808735423936
56.833,0.03628573455474926,-0.03628573455474926
56.834,0.04488597774557679,-0.04488597774557679
56.835,0.05262641098201071,-0.05262641098201071
56.836,0.05577199146449208,-0.05577199146449208
56.837,0.05006187851268551,-0.05006187851268551
56.838,0.032546803710733485,-0.032546803710733485
56.839,0.003226109793095455,-0.003226109793095455
56.84,0.03414109970903323,0.03414109970903323
56.841,0.07241325008332367,0.07241325008332367
56.842,0.10260604584401278,0.10260604584401278
56.843,0.11618387091030846,0.11618387091030846
56.844,0.10743674963307082,0.10743674963307082
56.845,0.07523270994135456,0.07523270994135456
56.846,0.02361456414142782,0.02361456414142782
56.847,0.03894723431967917,-0.03894723431967917
56.848,0.10143841083415395,-0.10143841083415395
56.849,0.1527900171286274,-0.1527900171286274
56.85,0.18428705474566143,-0.18428705474566143
56.851,0.19126710007740677,-0.19126710007740677
56.852,0.17371994822311132,-0.17371994822311132
56.853,0.1357402126391889,-0.1357402126391889
56.854,0.08411469370902436,-0.08411469370902436
56.855,0.0265429898644719,-0.0265429898644719
56.856,0.029966942193041746,0.029966942193041746
56.857,0.08011734275260318,0.08011734275260318
56.858,0.12059073916118113,0.12059073916118113
56.859,0.14968293161140078,0.14968293161140078
56.86,0.16661467180493772,0.16661467180493772
56.861,0.1709069106354255,0.1709069106354255
56.862,0.1621229125290813,0.1621229125290813
56.863,0.14008691821168262,0.14008691821168262
56.864,0.10546064358209195,0.10546064358209195
56.865,0.06038333367600446,0.06038333367600446
56.866,0.00882496500102814,0.00882496500102814
56.867,0.043612356126170204,-0.043612356126170204
56.868,0.09051266676300762,-0.09051266676300762
56.869,0.1259144899450353,-0.1259144899450353
56.87,0.14566900060259313,-0.14566900060259313
56.871,0.14845611540485892,-0.14845611540485892
56.872,0.13610518314838993,-0.13610518314838993
56.873,0.11307434738158617,-0.11307434738158617
56.874,0.08521139142838252,-0.08521139142838252
56.875,0.058158136244746306,-0.058158136244746306
56.876,0.03588718283717107,-0.03588718283717107
56.877,0.01982749134409556,-0.01982749134409556
56.878,0.00885065432137866,-0.00885065432137866
56.879,0.00011117905016055918,-0.00011117905016055918
56.88,0.009547270664913343,0.009547270664913343
56.881,0.02209849582945611,0.02209849582945611
56.882,0.03726784025049823,0.03726784025049823
56.883,0.05227539365215117,0.05227539365215117
56.884,0.06251015672934579,0.06251015672934579
56.885,0.0629537851769284,0.0629537851769284
56.886,0.04992359909491717,0.04992359909491717
56.887,0.022589687940769432,0.022589687940769432
56.888,0.016223727856550463,-0.016223727856550463
56.889,0.06023557568666438,-0.06023557568666438
56.89,0.1008943318044645,-0.1008943318044645
56.891,0.12925735882548528,-0.12925735882548528
56.892,0.13807244323050016,-0.13807244323050016
56.893,0.12352266757960428,-0.12352266757960428
56.894,0.08620071846966315,-0.08620071846966315
56.895,0.031096565292958678,-0.031096565292958678
56.896,0.03335803390042913,0.03335803390042913
56.897,0.09692072461846601,0.09692072461846601
56.898,0.14944770764005444,0.14944770764005444
56.899,0.18266945512071353,0.18266945512071353
56.9,0.1915090339341372,0.1915090339341372
56.901,0.17476417272070366,0.17476417272070366
56.902,0.13512453101416666,0.13512453101416666
56.903,0.07860951187435616,0.07860951187435616
56.904,0.013571582228409707,0.013571582228409707
56.905,0.05057657737054144,-0.05057657737054144
56.906,0.10476085636541566,-0.10476085636541566
56.907,0.14162347671129016,-0.14162347671129016
56.908,0.15671841797212516,-0.15671841797212516
56.909,0.14933936434555095,-0.14933936434555095
56.91,0.12278785225882283,-0.12278785225882283
56.911,0.0839299995149172,-0.0839299995149172
56.912,0.041997941196522226,-0.041997941196522226
56.913,0.006759796037854926,-0.006759796037854926
56.914,0.013628110379810598,0.013628110379810598
56.915,0.014620856734705479,0.014620856734705479
56.916,0.0033814050481284497,-0.0033814050481284497
56.917,0.034793783750190266,-0.034793783750190266
56.918,0.0698973771481719,-0.0698973771481719
56.919,0.09705079110706649,-0.09705079110706649
56.92,0.10559873811928144,-0.10559873811928144
56.921,0.08877238161378964,-0.08877238161378964
56.922,0.045810200090837916,-0.045810200090837916
56.923,0.01732495686274982,0.01732495686274982
56.924,0.08892221289924862,0.08892221289924862
56.925,0.15404306393590605,0.15404306393590605
56.926,0.19801326431077215,0.19801326431077215
56.927,0.2100273683304521,0.2100273683304521
56.928,0.18594372628750055,0.18594372628750055
56.929,0.12953126532746806,0.12953126532746806
56.93,0.051813820825683754,0.051813820825683754
56.931,0.03135979889611651,-0.03135979889611651
56.932,0.10294125465666892,-0.10294125465666892
56.933,0.1486253901287602,-0.1486253901287602
56.934,0.1601590234755429,-0.1601590234755429
56.935,0.13723051108417328,-0.13723051108417328
56.936,0.0875085868545229,-0.0875085868545229
56.937,0.02484424729644452,-0.02484424729644452
56.938,0.033926835682602574,0.033926835682602574
56.939,0.07284052840282973,0.07284052840282973
56.94,0.08045630315816821,0.08045630315816821
56.941,0.05251484360341885,0.05251484360341885
56.942,0.006953930676143472,-0.006953930676143472
56.943,0.08629174434044307,-0.08629174434044307
56.944,0.1684988166504242,-0.1684988166504242
56.945,0.23468431580450544,-0.23468431580450544
56.946,0.2679947513362201,-0.2679947513362201
56.947,0.2572401703411614,-0.2572401703411614
56.948,0.19948450863409195,-0.19948450863409195
56.949,0.10104707903790844,-0.10104707903790844
56.95,0.023347804528794258,0.023347804528794258
56.951,0.15317929839548672,0.15317929839548672
56.952,0.2660386662969554,0.2660386662969554
56.953,0.34207951345331167,0.34207951345331167
56.954,0.368085071339858,0.368085071339858
56.955,0.3402511318795447,0.3402511318795447
56.956,0.26501470322019216,0.26501470322019216
56.957,0.15766841964177258,0.15766841964177258
56.958,0.03900800385915204,0.03900800385915204
56.959,0.0692545451353801,-0.0692545451353801
56.96,0.14924497638462142,-0.14924497638462142
56.961,0.19070014843850425,-0.19070014843850425
56.962,0.1928277731173328,-0.1928277731173328
56.963,0.1637922163834178,-0.1637922163834178
56.964,0.11798113161303769,-0.11798113161303769
56.965,0.0718003318996121,-0.0718003318996121
56.966,0.03914559032697895,-0.03914559032697895
56.967,0.027788053779599475,-0.027788053779599475
56.968,0.03764961793045263,-0.03764961793045263
56.969,0.06140305003127111,-0.06140305003127111
56.97,0.08716219332959618,-0.08716219332959618
56.971,0.10242600203877328,-0.10242600203877328
56.972,0.09808571374949382,-0.09808571374949382
56.973,0.07130423703688449,-0.07130423703688449
56.974,0.026431175746434055,-0.026431175746434055
56.975,0.026282114318947336,0.026282114318947336
56.976,0.07373909647398369,0.07373909647398369
56.977,0.10387349748313657,0.10387349748313657
56.978,0.10916413919303403,0.10916413919303403
56.979,0.0887452135722675,0.0887452135722675
56.98,0.04851750825854295,0.04851750825854295
56.981,0.0007152696494119315,-0.0007152696494119315
56.982,0.04646717061966954,-0.04646717061966954
56.983,0.07814243391742548,-0.07814243391742548
56.984,0.08988579450866885,-0.08988579450866885
56.985,0.08189670713394659,-0.08189670713394659
56.986,0.05988965739326024,-0.05988965739326024
56.987,0.03295329900289823,-0.03295329900289823
56.988,0.010528552597975471,-0.010528552597975471
56.989,0.0005471128234570966,0.0005471128234570966
56.99,0.0019489076638458114,-0.0019489076638458114
56.991,0.015108328405908922,-0.015108328405908922
56.992,0.03195202703916,-0.03195202703916
56.993,0.043683327792669036,-0.043683327792669036
56.994,0.04243156439734952,-0.04243156439734952
56.995,0.02368833433029116,-0.02368833433029116
56.996,0.012223137372460613,0.012223137372460613
56.997,0.0599967803932242,0.0599967803932242
56.998,0.11048832466101888,0.11048832466101888
56.999,0.15280548354754964,0.15280548354754964
57.0,0.17679289083316085,0.17679289083316085
57.001,0.17532132172308645,0.17532132172308645
57.002,0.14589466572069387,0.14589466572069387
57.003,0.09128328947845765,0.09128328947845765
57.004,0.01911489825058088,0.01911489825058088
57.005,0.059449383981078685,-0.059449383981078685
57.006,0.13168471272215287,-0.13168471272215287
57.007,0.18556842666961548,-0.18556842666961548
57.008,0.211963646595016,-0.211963646595016
57.009,0.20635432201676174,-0.20635432201676174
57.01,0.16981641535725178,-0.16981641535725178
57.011,0.10900549833116957,-0.10900549833116957
57.012,0.035087548978760985,-0.035087548978760985
57.013,0.03826863946201353,0.03826863946201353
57.014,0.09750966812781892,0.09750966812781892
57.015,0.13192049651438498,0.13192049651438498
57.016,0.1358582413324272,0.1358582413324272
57.017,0.10995257354789123,0.10995257354789123
57.018,0.060930343179305346,0.060930343179305346
57.019,4.3337070011473244e-05,4.3337070011473244e-05
57.02,0.05955948516946297,-0.05955948516946297
57.021,0.10587454868936563,-0.10587454868936563
57.022,0.13072180944960532,-0.13072180944960532
57.023,0.13135859369340175,-0.13135859369340175
57.024,0.11061809094709796,-0.11061809094709796
57.025,0.07558285487224814,-0.07558285487224814
57.026,0.03523202645182866,-0.03523202645182866
57.027,0.0021989755894225027,0.0021989755894225027
57.028,0.03133580898773847,0.03133580898773847
57.029,0.0506345663304939,0.0506345663304939
57.03,0.06196540051985333,0.06196540051985333
57.031,0.06903748060227732,0.06903748060227732
57.032,0.07528092887663784,0.07528092887663784
57.033,0.08198202858087145,0.08198202858087145
57.034,0.08737644598388972,0.08737644598388972
57.035,0.08706843367878325,0.08706843367878325
57.036,0.07567306158314602,0.07567306158314602
57.037,0.049132523248801796,0.049132523248801796
57.038,0.006890109870545835,0.006890109870545835
57.039,0.04688783548209263,-0.04688783548209263
57.04,0.10356665495334294,-0.10356665495334294
57.041,0.15182623165218156,-0.15182623165218156
57.042,0.18051675144783408,-0.18051675144783408
57.043,0.18176004324595385,-0.18176004324595385
57.044,0.15335624645262713,-0.15335624645262713
57.045,0.0997414570623224,-0.0997414570623224
57.046,0.031168320442046538,-0.031168320442046538
57.047,0.03868820458579103,0.03868820458579103
57.048,0.09603214740541466,0.09603214740541466
57.049,0.13023127573562454,0.13023127573562454
57.05,0.13618996074471634,0.13618996074471634
57.051,0.11520900003919476,0.11520900003919476
57.052,0.07418958916667928,0.07418958916667928
57.053,0.023512444824079104,0.023512444824079104
57.054,0.025732905039854703,-0.025732905039854703
57.055,0.06437449938444029,-0.06437449938444029
57.056,0.08696890579245642,-0.08696890579245642
57.057,0.09243070280731636,-0.09243070280731636
57.058,0.08348934819346387,-0.08348934819346387
57.059,0.06530459603720096,-0.06530459603720096
57.06,0.04374958458993761,-0.04374958458993761
57.061,0.02387056457343506,-0.02387056457343506
57.062,0.008882704298991628,-0.008882704298991628
57.063,0.00016392552631327995,0.00016392552631327995
57.064,0.00412833926563283,0.00412833926563283
57.065,0.005148436632514297,0.005148436632514297
57.066,0.005883102413225316,0.005883102413225316
57.067,0.00881668587535156,0.00881668587535156
57.068,0.01572062344135139,0.01572062344135139
57.069,0.027286248833140903,0.027286248833140903
57.07,0.04291129189053966,0.04291129189053966
57.071,0.06064215601943013,0.06064215601943013
57.072,0.07731624250979796,0.07731624250979796
57.073,0.08897065043327412,0.08897065043327412
57.074,0.09155157723542806,0.09155157723542806
57.075,0.08186665291870687,0.08186665291870687
57.076,0.05859878243520433,0.05859878243520433
57.077,0.02309850529917279,0.02309850529917279
57.078,0.02035093264091159,-0.02035093264091159
57.079,0.06501196132632148,-0.06501196132632148
57.08,0.10293665857207912,-0.10293665857207912
57.081,0.1267529141623598,-0.1267529141623598
57.082,0.13155477655538794,-0.13155477655538794
57.083,0.11635833275906327,-0.11635833275906327
57.084,0.08464940930015219,-0.08464940930015219
57.085,0.04377721879149654,-0.04377721879149654
57.086,0.0032777285678154966,-0.0032777285678154966
57.087,0.02746009148293216,0.02746009148293216
57.088,0.04155229142209982,0.04155229142209982
57.089,0.036337815954579744,0.036337815954579744
57.09,0.013966757350997838,0.013966757350997838
57.091,0.019299564864996288,-0.019299564864996288
57.092,0.05485255056213234,-0.05485255056213234
57.093,0.08402896090963785,-0.08402896090963785
57.094,0.10025764574958396,-0.10025764574958396
57.095,0.10046130685203936,-0.10046130685203936
57.096,0.08537536327458672,-0.08537536327458672
57.097,0.05880157764786287,-0.05880157764786287
57.098,0.02614327507163494,-0.02614327507163494
57.099,0.007236805712377503,0.007236805712377503
57.1,0.037294589507710585,0.037294589507710585
57.101,0.061860474667515986,0.061860474667515986
57.102,0.08040779633547612,0.08040779633547612
57.103,0.09326231346532698,0.09326231346532698
57.104,0.10066953669556233,0.10066953669556233
57.105,0.1021565720396913,0.1021565720396913
57.106,0.09647627706696715,0.09647627706696715
57.107,0.08216551742888734,0.08216551742888734
57.108,0.05848556115945258,0.05848556115945258
57.109,0.02634120861807232,0.02634120861807232
57.11,0.011239701891263887,-0.011239701891263887
57.111,0.04933769633452989,-0.04933769633452989
57.112,0.0821002049917271,-0.0821002049917271
57.113,0.10417348922992153,-0.10417348922992153
57.114,0.11216708374169748,-0.11216708374169748
57.115,0.10567297647269736,-0.10567297647269736
57.116,0.08748857540929533,-0.08748857540929533
57.117,0.06293920029814004,-0.06293920029814004
57.118,0.03847803576207287,-0.03847803576207287
57.119,0.019964952989782847,-0.019964952989782847
57.12,0.011119053063885276,-0.011119053063885276
57.121,0.012578129990626241,-0.012578129990626241
57.122,0.02180860059091949,-0.02180860059091949
57.123,0.033858602561872786,-0.033858602561872786
57.124,0.04271609585907987,-0.04271609585907987
57.125,0.04289021622686051,-0.04289021622686051
57.126,0.030810373222454612,-0.030810373222454612
57.127,0.005724783349254192,-0.005724783349254192
57.128,0.030063466590771304,0.030063466590771304
57.129,0.07161472227292287,0.07161472227292287
57.13,0.11228197530475215,0.11228197530475215
57.131,0.14493271514095918,0.14493271514095918
57.132,0.1632305333964572,0.1632305333964572
57.133,0.16277001495770382,0.16277001495770382
57.134,0.14190176383988495,0.14190176383988495
57.135,0.10212875644846964,0.10212875644846964
57.136,0.047999382660415035,0.047999382660415035
57.137,0.013523196662954096,-0.013523196662954096
57.138,0.07416026392415997,-0.07416026392415997
57.139,0.12573388996810853,-0.12573388996810853
57.14,0.16165076635876763,-0.16165076635876763
57.141,0.1781385817142891,-0.1781385817142891
57.142,0.17492529665416368,-0.17492529665416368
57.143,0.1551499922085604,-0.1551499922085604
57.144,0.12447700320689914,-0.12447700320689914
57.145,0.0896088853169752,-0.0896088853169752
57.146,0.056588754298496746,-0.056588754298496746
57.147,0.029376130011596224,-0.029376130011596224
57.148,0.00912527860547585,-0.00912527860547585
57.149,0.0056084935514078005,0.0056084935514078005
57.15,0.017806250829462522,0.017806250829462522
57.151,0.03043314328493074,0.03043314328493074
57.152,0.044950273302990285,0.044950273302990285
57.153,0.060447270549359944,0.060447270549359944
57.154,0.0737538273140157,0.0737538273140157
57.155,0.08054506951637785,0.08054506951637785
57.156,0.07708145779128595,0.07708145779128595
57.157,0.06195427149678645,0.06195427149678645
57.158,0.03715067661417115,0.03715067661417115
57.159,0.007946432760143729,0.007946432760143729
57.16,0.01847139525332564,-0.01847139525332564
57.161,0.03528332825239422,-0.03528332825239422
57.162,0.03847686554237162,-0.03847686554237162
57.163,0.028569829518311662,-0.028569829518311662
57.164,0.010911790822584644,-0.010911790822584644
57.165,0.005702019863428998,0.005702019863428998
57.166,0.011796105899749554,0.011796105899749554
57.167,0.0005373424081713818,0.0005373424081713818
57.168,0.029475584786682996,-0.029475584786682996
57.169,0.0729580280850074,-0.0729580280850074
57.17,0.11878413157932743,-0.11878413157932743
57.171,0.15283418031177343,-0.15283418031177343
57.172,0.16207896491619056,-0.16207896491619056
57.173,0.13868286529574136,-0.13868286529574136
57.174,0.08283348017502734,-0.08283348017502734
57.175,0.003350973731151008,-0.003350973731151008
57.176,0.08420471794888251,0.08420471794888251
57.177,0.16143593576112814,0.16143593576112814
57.178,0.2118928256857584,0.2118928256857584
57.179,0.22533448074543783,0.22533448074543783
57.18,0.2002214139189269,0.2002214139189269
57.181,0.14375172016080184,0.14375172016080184
57.182,0.06951963452050292,0.06951963452050292
57.183,0.006401159252638622,-0.006401159252638622
57.184,0.0697020010389856,-0.0697020010389856
57.185,0.11113667850897435,-0.11113667850897435
57.186,0.12798336695287438,-0.12798336695287438
57.187,0.12343865760344286,-0.12343865760344286
57.188,0.10440426964862815,-0.10440426964862815
57.189,0.0786180836567798,-0.0786180836567798
57.19,0.0522083745726748,-0.0522083745726748
57.191,0.0284845105408571,-0.0284845105408571
57.192,0.00823074018203851,-0.00823074018203851
57.193,0.00884737277006864,0.00884737277006864
57.194,0.022329478855008134,0.022329478855008134
57.195,0.029869266758154822,0.029869266758154822
57.196,0.02724192868738129,0.02724192868738129
57.197,0.009792521148787703,0.009792521148787703
57.198,0.025185788457783853,-0.025185788457783853
57.199,0.07607202822385983,-0.07607202822385983
57.2,0.1355841150392163,-0.1355841150392163
57.201,0.191259377751834,-0.191259377751834
57.202,0.22791984422131084,-0.22791984422131084
57.203,0.2315826656250337,-0.2315826656250337
57.204,0.19370205509632532,-0.19370205509632532
57.205,0.11440264153970547,-0.11440264153970547
57.206,0.003581015786836561,-0.003581015786836561
57.207,0.12064278125401362,0.12064278125401362
57.208,0.23583890329427293,0.23583890329427293
57.209,0.32052130444654114,0.32052130444654114
57.21,0.3592827687862583,0.3592827687862583
57.211,0.34637031889403036,0.34637031889403036
57.212,0.2867237314258768,0.2867237314258768
57.213,0.1942590013135883,0.1942590013135883
57.214,0.08798754832609035,0.08798754832609035
57.215,0.012836217538627404,-0.012836217538627404
57.216,0.09313457893471344,-0.09313457893471344
57.217,0.14481750167743235,-0.14481750167743235
57.218,0.1673827253528828,-0.1673827253528828
57.219,0.16641864763960612,-0.16641864763960612
57.22,0.1507427717472647,-0.1507427717472647
57.221,0.12923758468098556,-0.12923758468098556
57.222,0.10840029079926561,-0.10840029079926561
57.223,0.09124968196763272,-0.09124968196763272
57.224,0.07768734869084226,-0.07768734869084226
57.225,0.06589436576304575,-0.06589436576304575
57.226,0.05403602122395312,-0.05403602122395312
57.227,0.04153717776025723,-0.04153717776025723
57.228,0.029456838787848993,-0.029456838787848993
57.229,0.019910854091643504,-0.019910854091643504
57.23,0.014895657370629367,-0.014895657370629367
57.231,0.015098925264465546,-0.015098925264465546
57.232,0.01926349601929256,-0.01926349601929256
57.233,0.024417762104300356,-0.024417762104300356
57.234,0.026907830957974332,-0.026907830957974332
57.235,0.02381854442432285,-0.02381854442432285
57.236,0.014192017239961885,-0.014192017239961885
57.237,0.00048428148692147843,0.00048428148692147843
57.238,0.016765826911771642,0.016765826911771642
57.239,0.030569943124029386,0.030569943124029386
57.24,0.03883148985217888,0.03883148985217888
57.241,0.04083619419224083,0.04083619419224083
57.242,0.038661449070415355,0.038661449070415355
57.243,0.03647323567266225,0.03647323567266225
57.244,0.03886346610645108,0.03886346610645108
57.245,0.04880317074986573,0.04880317074986573
57.246,0.06598303156939989,0.06598303156939989
57.247,0.08623015983871496,0.08623015983871496
57.248,0.10234475167598855,0.10234475167598855
57.249,0.10620512867673959,0.10620512867673959
57.25,0.09151635363824129,0.09151635363824129
57.251,0.05629678568642538,0.05629678568642538
57.252,0.00421753590538132,0.00421753590538132
57.253,0.05576117909203193,-0.05576117909203193
57.254,0.1114753730843957,-0.1114753730843957
57.255,0.15081220042465726,-0.15081220042465726
57.256,0.16516994545655006,-0.16516994545655006
57.257,0.15204765577313395,-0.15204765577313395
57.258,0.11592484396213099,-0.11592484396213099
57.259,0.06710531008713672,-0.06710531008713672
57.26,0.0188288261689733,-0.0188288261689733
57.261,0.016501415217376803,0.016501415217376803
57.262,0.030844402591944542,0.030844402591944542
57.263,0.022738103946728927,0.022738103946728927
57.264,0.0024539743801227365,-0.0024539743801227365
57.265,0.03432362169284031,-0.03432362169284031
57.266,0.06066618157837933,-0.06066618157837933
57.267,0.07119915376318631,-0.07119915376318631
57.268,0.060630061601890994,-0.060630061601890994
57.269,0.030173829740011482,-0.030173829740011482
57.27,0.012890085242909244,0.012890085242909244
57.271,0.05743036999463902,0.05743036999463902
57.272,0.09173350909994737,0.09173350909994737
57.273,0.10683052286830352,0.10683052286830352
57.274,0.09890778042962856,0.09890778042962856
57.275,0.07014788697089491,0.07014788697089491
57.276,0.027846414289727006,0.027846414289727006
57.277,0.017831310739587547,-0.017831310739587547
57.278,0.056711757353425485,-0.056711757353425485
57.279,0.08122261880714698,-0.08122261880714698
57.28,0.08802351278106268,-0.08802351278106268
57.281,0.07828568425132909,-0.07828568425132909
57.282,0.05668892990334762,-0.05668892990334762
57.283,0.02958697999121318,-0.02958697999121318
57.284,0.0030018226697439143,-0.0030018226697439143
57.285,0.018910591787223652,0.018910591787223652
57.286,0.03450346266827253,0.03450346266827253
57.287,0.04431122572653834,0.04431122572653834
57.288,0.050008128763251,0.050008128763251
57.289,0.053133718513018735,0.053133718513018735
57.29,0.05410653167667512,0.05410653167667512
57.291,0.0519027765970812,0.0519027765970812
57.292,0.044505940221793105,0.044505940221793105
57.293,0.029935194261792475,0.029935194261792475
57.294,0.007439857711928566,0.007439857711928566
57.295,0.021621007677177673,-0.021621007677177673
57.296,0.053589448122817074,-0.053589448122817074
57.297,0.08314514307986043,-0.08314514307986043
57.298,0.10461140555389448,-0.10461140555389448
57.299,0.11353234636540299,-0.11353234636540299
57.3,0.10801308257849229,-0.10801308257849229
57.301,0.08937537747476343,-0.08937537747476343
57.302,0.0618926632175294,-0.0618926632175294
57.303,0.03166129345641755,-0.03166129345641755
57.304,0.004942364935770049,-0.004942364935770049
57.305,0.013520998684339869,0.013520998684339869
57.306,0.02169842739670269,0.02169842739670269
57.307,0.02062421660701741,0.02062421660701741
57.308,0.013821874954825786,0.013821874954825786
57.309,0.006011078592214281,0.006011078592214281
57.31,0.0015286382831560807,0.0015286382831560807
57.311,0.0029729753003704396,0.0029729753003704396
57.312,0.01049233375633607,0.01049233375633607
57.313,0.021912975899770037,0.021912975899770037
57.314,0.0336217091983575,0.0336217091983575
57.315,0.04187227610014799,0.04187227610014799
57.316,0.04405842890520506,0.04405842890520506
57.317,0.039527693665989405,0.039527693665989405
57.318,0.02968432177897351,0.02968432177897351
57.319,0.017384364120974327,0.017384364120974327
57.32,0.005870355392358029,0.005870355392358029
57.321,0.0023570861613009253,-0.0023570861613009253
57.322,0.006328633421746388,-0.006328633421746388
57.323,0.006792985921514005,-0.006792985921514005
57.324,0.00576641516037002,-0.00576641516037002
57.325,0.005645543959200028,-0.005645543959200028
57.326,0.008238685109301591,-0.008238685109301591
57.327,0.014089773540407413,-0.014089773540407413
57.328,0.02234577782452285,-0.02234577782452285
57.329,0.031200618214067277,-0.031200618214067277
57.33,0.03871900123890726,-0.03871900123890726
57.331,0.043690463737937835,-0.043690463737937835
57.332,0.046147822469928546,-0.046147822469928546
57.333,0.04731448935427118,-0.04731448935427118
57.334,0.048975005440122565,-0.048975005440122565
57.335,0.052505887302030874,-0.052505887302030874
57.336,0.05796426772309793,-0.05796426772309793
57.337,0.0636421984704092,-0.0636421984704092
57.338,0.06634178123448897,-0.06634178123448897
57.339,0.06235957349566523,-0.06235957349566523
57.34,0.04888371244245138,-0.04888371244245138
57.341,0.02531250761294057,-0.02531250761294057
57.342,0.006019990078648174,0.006019990078648174
57.343,0.04005615158246645,0.04005615158246645
57.344,0.07019608339527017,0.07019608339527017
57.345,0.09012900151109315,0.09012900151109315
57.346,0.09573474275635618,0.09573474275635618
57.347,0.08640611338469784,0.08640611338469784
57.348,0.06530262833314926,0.06530262833314926
57.349,0.03839162389945261,0.03839162389945261
57.35,0.012550127734853422,0.012550127734853422
57.351,0.0066557224941957704,-0.0066557224941957704
57.352,0.016754604579924393,-0.016754604579924393
57.353,0.019078305997419664,-0.019078305997419664
57.354,0.018108287262631806,-0.018108287262631806
57.355,0.019645628450522867,-0.019645628450522867
57.356,0.02841702260480894,-0.02841702260480894
57.357,0.04595955201495605,-0.04595955201495605
57.358,0.06956913295296463,-0.06956913295296463
57.359,0.09275944106763312,-0.09275944106763312
57.36,0.10716684730600623,-0.10716684730600623
57.361,0.10532466517464467,-0.10532466517464467
57.362,0.08339595708874725,-0.08339595708874725
57.363,0.0429214909425355,-0.0429214909425355
57.364,0.009069527864043803,0.009069527864043803
57.365,0.061713072125752166,0.061713072125752166
57.366,0.10326905595447533,0.10326905595447533
57.367,0.12447736249283814,0.12447736249283814
57.368,0.12124813230516529,0.12124813230516529
57.369,0.09582006366021867,0.09582006366021867
57.37,0.05600802854176967,0.05600802854176967
57.371,0.01277859369466694,0.01277859369466694
57.372,0.023067614116658364,-0.023067614116658364
57.373,0.044045878547363415,-0.044045878547363415
57.374,0.047979351269094805,-0.047979351269094805
57.375,0.03823932358176918,-0.03823932358176918
57.376,0.022226044834967484,-0.022226044834967484
57.377,0.008657330705462485,-0.008657330705462485
57.378,0.0046024946833646,-0.0046024946833646
57.379,0.013244044281401579,-0.013244044281401579
57.38,0.03306242774726997,-0.03306242774726997
57.381,0.05862777968528032,-0.05862777968528032
57.382,0.08262998659468324,-0.08262998659468324
57.383,0.09837700501152236,-0.09837700501152236
57.384,0.10187558712077971,-0.10187558712077971
57.385,0.09280847286490645,-0.09280847286490645
57.386,0.07415512263910506,-0.07415512263910506
57.387,0.05070591834996019,-0.05070591834996019
57.388,0.02710873212513054,-0.02710873212513054
57.389,0.006224232534604024,-0.006224232534604024
57.39,0.011590443031427533,0.011590443031427533
57.391,0.028035093696618274,0.028035093696618274
57.392,0.0454872429268367,0.0454872429268367
57.393,0.06528969222335879,0.06528969222335879
57.394,0.086439684483953,0.086439684483953
57.395,0.10526647744731887,0.10526647744731887
57.396,0.11630817636827318,0.11630817636827318
57.397,0.11413469116603925,0.11413469116603925
57.398,0.09548400695171,0.09548400695171
57.399,0.06092515788906372,0.06092515788906372
57.4,0.01539266410569784,0.01539266410569784
57.401,0.032690417741760514,-0.032690417741760514
57.402,0.07350131421311756,-0.07350131421311756
57.403,0.09849653338469133,-0.09849653338469133
57.404,0.10284535528818983,-0.10284535528818983
57.405,0.08684970747155663,-0.08684970747155663
57.406,0.05590548561927855,-0.05590548561927855
57.407,0.01902501961220615,-0.01902501961220615
57.408,0.013613331417077656,0.013613331417077656
57.409,0.03334261088396073,0.03334261088396073
57.41,0.03513735286049946,0.03513735286049946
57.411,0.018639585290305183,0.018639585290305183
57.412,0.01210108960669043,-0.01210108960669043
57.413,0.049959504932703624,-0.049959504932703624
57.414,0.086641550505558,-0.086641550505558
57.415,0.1145783323356594,-0.1145783323356594
57.416,0.12833093061730372,-0.12833093061730372
57.417,0.12527237198210894,-0.12527237198210894
57.418,0.10558319879252098,-0.10558319879252098
57.419,0.07178943323404696,-0.07178943323404696
57.42,0.02812695167664714,-0.02812695167664714
57.421,0.020061737904304433,0.020061737904304433
57.422,0.06684283527735313,0.06684283527735313
57.423,0.10619887303913944,0.10619887303913944
57.424,0.1326558431222753,0.1326558431222753
57.425,0.1420886068838758,0.1420886068838758
57.426,0.13261176509404127,0.13261176509404127
57.427,0.10530602813045453,0.10530602813045453
57.428,0.06445601919540955,0.06445601919540955
57.429,0.017043139233900773,0.017043139233900773
57.43,0.028554131081136358,-0.028554131081136358
57.431,0.0644161924025557,-0.0644161924025557
57.432,0.08500795154889462,-0.08500795154889462
57.433,0.08858031696151447,-0.08858031696151447
57.434,0.07755387433730121,-0.07755387433730121
57.435,0.05768637107143215,-0.05768637107143215
57.436,0.03622543267780265,-0.03622543267780265
57.437,0.019611845295941177,-0.019611845295941177
57.438,0.011487702438896297,-0.011487702438896297
57.439,0.011693997628612451,-0.011693997628612451
57.44,0.01662160627044129,-0.01662160627044129
57.441,0.020810464983233357,-0.020810464983233357
57.442,0.0192383126382919,-0.0192383126382919
57.443,0.009470259336097575,-0.009470259336097575
57.444,0.007137922133771735,0.007137922133771735
57.445,0.02567099310639498,0.02567099310639498
57.446,0.03929629432510562,0.03929629432510562
57.447,0.0417685339346352,0.0417685339346352
57.448,0.029904815089129233,0.029904815089129233
57.449,0.005107184457407543,0.005107184457407543
57.45,0.02668244412109988,-0.02668244412109988
57.451,0.05666457378974765,-0.05666457378974765
57.452,0.075978531830737,-0.075978531830737
57.453,0.07866502579280876,-0.07866502579280876
57.454,0.06375049693621382,-0.06375049693621382
57.455,0.035686959006874464,-0.035686959006874464
57.456,0.002944242637218153,-0.002944242637218153
57.457,0.02479566965184299,0.02479566965184299
57.458,0.03988385956017626,0.03988385956017626
57.459,0.03925374382262592,0.03925374382262592
57.46,0.02536520402452158,0.02536520402452158
57.461,0.005191635725565247,0.005191635725565247
57.462,0.012407576448105528,-0.012407576448105528
57.463,0.02000234955450053,-0.02000234955450053
57.464,0.014406385909179642,-0.014406385909179642
57.465,0.002036978512759413,0.002036978512759413
57.466,0.022192652464596563,0.022192652464596563
57.467,0.03667097376540118,0.03667097376540118
57.468,0.037288662732847255,0.037288662732847255
57.469,0.020229519319727496,0.020229519319727496
57.47,0.012236217151434636,-0.012236217151434636
57.471,0.05212461949787872,-0.05212461949787872
57.472,0.0881258874089933,-0.0881258874089933
57.473,0.10922090627909165,-0.10922090627909165
57.474,0.10830084465467005,-0.10830084465467005
57.475,0.084551411863788,-0.084551411863788
57.476,0.043783469674398945,-0.043783469674398945
57.477,0.003402715251233701,0.003402715251233701
57.478,0.044989302300249,0.044989302300249
57.479,0.07129876130421153,0.07129876130421153
57.48,0.07787173465781372,0.07787173465781372
57.481,0.06652310671851125,0.06652310671851125
57.482,0.04428002362787997,0.04428002362787997
57.483,0.020641169840341034,0.020641169840341034
57.484,0.004162448709757571,0.004162448709757571
57.485,0.00042528032885447153,-0.00042528032885447153
57.486,0.006411690639835488,0.006411690639835488
57.487,0.019560877267817522,0.019560877267817522
57.488,0.031456383188734005,0.031456383188734005
57.489,0.035059240306993145,0.035059240306993145
57.49,0.0265203439995374,0.0265203439995374
57.491,0.006573654927433559,0.006573654927433559
57.492,0.019802391408370812,-0.019802391408370812
57.493,0.04527502601443967,-0.04527502601443967
57.494,0.06286014367061543,-0.06286014367061543
57.495,0.06842463782049035,-0.06842463782049035
57.496,0.0620755838776742,-0.0620755838776742
57.497,0.04795440960923869,-0.04795440960923869
57.498,0.032549726425423864,-0.032549726425423864
57.499,0.022182419228120698,-0.022182419228120698
57.5,0.020606004046275772,-0.020606004046275772
57.501,0.02760504736179925,-0.02760504736179925
57.502,0.03909483995163976,-0.03909483995163976
57.503,0.04867174789877893,-0.04867174789877893
57.504,0.050040064660613726,-0.050040064660613726
57.505,0.03943541778366444,-0.03943541778366444
57.506,0.017180326832548443,-0.017180326832548443
57.507,0.012171048452629396,0.012171048452629396
57.508,0.04113917352191532,0.04113917352191532
57.509,0.061617159482838746,0.061617159482838746
57.51,0.067380607985696,0.067380607985696
57.511,0.055990884804361984,0.055990884804361984
57.512,0.02951469039899557,0.02951469039899557
57.513,0.006097974884619939,-0.006097974884619939
57.514,0.04269641756658138,-0.04269641756658138
57.515,0.07208619344374312,-0.07208619344374312
57.516,0.0879953801851594,-0.0879953801851594
57.517,0.08733514532439801,-0.08733514532439801
57.518,0.07053673267222316,-0.07053673267222316
57.519,0.04106419349100443,-0.04106419349100443
57.52,0.004420082593267427,-0.004420082593267427
57.521,0.03298506071156093,0.03298506071156093
57.522,0.06482850085869574,0.06482850085869574
57.523,0.08564344905487098,0.08564344905487098
57.524,0.09142109466136028,0.09142109466136028
57.525,0.08015869728114544,0.08015869728114544
57.526,0.052391083275658,0.052391083275658
57.527,0.011589624592462267,0.011589624592462267
57.528,0.03582466770401471,-0.03582466770401471
57.529,0.08113168572078389,-0.08113168572078389
57.53,0.11476345580384428,-0.11476345580384428
57.531,0.12841150867405438,-0.12841150867405438
57.532,0.11732263845073776,-0.11732263845073776
57.533,0.082089923965173,-0.082089923965173
57.534,0.029241246535576915,-0.029241246535576915
57.535,0.029805924056061306,0.029805924056061306
57.536,0.08137074208021722,0.08137074208021722
57.537,0.11311212843117269,0.11311212843117269
57.538,0.11758448401496846,0.11758448401496846
57.539,0.09460682821688926,0.09460682821688926
57.54,0.05157722818883781,0.05157722818883781
57.541,0.001466866210764639,0.001466866210764639
57.542,0.04101956316558275,-0.04101956316558275
57.543,0.06398108920589018,-0.06398108920589018
57.544,0.06210999905175185,-0.06210999905175185
57.545,0.03845270490236219,-0.03845270490236219
57.546,0.003473604123432117,-0.003473604123432117
57.547,0.028371116966535714,0.028371116966535714
57.548,0.04349374644855897,0.04349374644855897
57.549,0.03388568621973964,0.03388568621973964
57.55,8.54229234130699e-05,8.54229234130699e-05
57.551,0.04865529742144137,-0.04865529742144137
57.552,0.09715213887336427,-0.09715213887336427
57.553,0.12916754510060002,-0.12916754510060002
57.554,0.1328067792504115,-0.1328067792504115
57.555,0.10463286162870422,-0.10463286162870422
57.556,0.05109194240520121,-0.05109194240520121
57.557,0.013284468661105775,0.013284468661105775
57.558,0.07036246582130845,0.07036246582130845
57.559,0.10412936332156053,0.10412936332156053
57.56,0.1057822191775426,0.1057822191775426
57.561,0.07650124044828521,0.07650124044828521
57.562,0.026989403923791677,0.026989403923791677
57.563,0.02606809602983151,-0.02606809602983151
57.564,0.06544947450170924,-0.06544947450170924
57.565,0.07894615138365157,-0.07894615138365157
57.566,0.06319552464102296,-0.06319552464102296
57.567,0.02456402471664343,-0.02456402471664343
57.568,0.023158458381906888,0.023158458381906888
57.569,0.06343177559150104,0.06343177559150104
57.57,0.08241700844848343,0.08241700844848343
57.571,0.07339398110654649,0.07339398110654649
57.572,0.03871983985552152,0.03871983985552152
57.573,0.011241879376090225,-0.011241879376090225
57.574,0.06176927683148592,-0.06176927683148592
57.575,0.09871184288657109,-0.09871184288657109
57.576,0.11302255275628603,-0.11302255275628603
57.577,0.10340360511941693,-0.10340360511941693
57.578,0.07626025002047565,-0.07626025002047565
57.579,0.04308634157171176,-0.04308634157171176
57.58,0.01625909347233201,-0.01625909347233201
57.581,0.004714590129682117,-0.004714590129682117
57.582,0.010957892137234304,-0.010957892137234304
57.583,0.030358998382229996,-0.030358998382229996
57.584,0.05288780893133915,-0.05288780893133915
57.585,0.06662785796802195,-0.06662785796802195
57.586,0.06185186073462878,-0.06185186073462878
57.587,0.03431384209696031,-0.03431384209696031
57.588,0.01326835355153011,0.01326835355153011
57.589,0.07193179957616858,0.07193179957616858
57.59,0.12905871512708456,0.12905871512708456
57.591,0.17194238564668973,0.17194238564668973
57.592,0.1911952012883018,0.1911952012883018
57.593,0.18300620442279336,0.18300620442279336
57.594,0.1496959773944999,0.1496959773944999
57.595,0.0985854382656024,0.0985854382656024
57.596,0.03969536983186228,0.03969536983186228
57.597,0.01692783067440251,-0.01692783067440251
57.598,0.06346951126914258,-0.06346951126914258
57.599,0.09564452645434496,-0.09564452645434496
57.6,0.11286732593968651,-0.11286732593968651
57.601,0.11748513108812819,-0.11748513108812819
57.602,0.11349307416890153,-0.11349307416890153
57.603,0.1051971601147379,-0.1051971601147379
57.604,0.09617932459081313,-0.09617932459081313
57.605,0.08872422770168886,-0.08872422770168886
57.606,0.08368069638073017,-0.08368069638073017
57.607,0.08061996654607817,-0.08061996654607817
57.608,0.0781395106122249,-0.0781395106122249
57.609,0.07421903994377377,-0.07421903994377377
57.61,0.06661003049228165,-0.06661003049228165
57.611,0.05327950188316588,-0.05327950188316588
57.612,0.03290832271841371,-0.03290832271841371
57.613,0.005378031090846558,-0.005378031090846558
57.614,0.027888313675223486,0.027888313675223486
57.615,0.06388663033753605,0.06388663033753605
57.616,0.09839326855044828,0.09839326855044828
57.617,0.12670343292437525,0.12670343292437525
57.618,0.14457741798956247,0.14457741798956247
57.619,0.1491232827399216,0.1491232827399216
57.62,0.13933891638500606,0.13933891638500606
57.621,0.11614321804442285,0.11614321804442285
57.622,0.0819120706466101,0.0819120706466101
57.623,0.03972744370658776,0.03972744370658776
57.624,0.007335836381146876,-0.007335836381146876
57.625,0.0565792284395541,-0.0565792284395541
57.626,0.10555609495985097,-0.10555609495985097
57.627,0.1515441349431701,-0.1515441349431701
57.628,0.1909291790801394,-0.1909291790801394
57.629,0.2189211468762482,-0.2189211468762482
57.63,0.22994837007673685,-0.22994837007673685
57.631,0.21882859341455874,-0.21882859341455874
57.632,0.18247607006229993,-0.18247607006229993
57.633,0.12160497323364261,-0.12160497323364261
57.634,0.041760195778414166,-0.041760195778414166
57.635,0.04687562997615258,0.04687562997615258
57.636,0.1310984095436929,0.1310984095436929
57.637,0.19744277081554684,0.19744277081554684
57.638,0.23536787295288053,0.23536787295288053
57.639,0.23992013765648235,0.23992013765648235
57.64,0.21300731226582448,0.21300731226582448
57.641,0.1628115773685186,0.1628115773685186
57.642,0.1014544524337695,0.1014544524337695
57.643,0.04160602253764667,0.04160602253764667
57.644,0.0069015627909926325,-0.0069015627909926325
57.645,0.039382186732006774,-0.039382186732006774
57.646,0.05680959516266615,-0.05680959516266615
57.647,0.06443644766738577,-0.06443644766738577
57.648,0.06907725120837527,-0.06907725120837527
57.649,0.07608036287185882,-0.07608036287185882
57.65,0.08711477804675394,-0.08711477804675394
57.651,0.0995878951138991,-0.0995878951138991
57.652,0.10789658361456134,-0.10789658361456134
57.653,0.10601667366491441,-0.10601667366491441
57.654,0.09041316711905223,-0.09041316711905223
57.655,0.06210478839834421,-0.06210478839834421
57.656,0.027007587356623675,-0.027007587356623675
57.657,0.0056837483856004845,0.0056837483856004845
57.658,0.026569623600334102,0.026569623600334102
57.659,0.02948209077442354,0.02948209077442354
57.66,0.01399662830183468,0.01399662830183468
57.661,0.013986582321695806,-0.013986582321695806
57.662,0.04392613222538333,-0.04392613222538333
57.663,0.06409672426903368,-0.06409672426903368
57.664,0.06565180664420678,-0.06565180664420678
57.665,0.04584930526872932,-0.04584930526872932
57.666,0.009244259378344721,-0.009244259378344721
57.667,0.03365471842069634,0.03365471842069634
57.668,0.0698674823703953,0.0698674823703953
57.669,0.08837995275487542,0.08837995275487542
57.67,0.08397491501436538,0.08397491501436538
57.671,0.05907024198604782,0.05907024198604782
57.672,0.02286256298213618,0.02286256298213618
57.673,0.011969562106679987,-0.011969562106679987
57.674,0.033860658421526746,-0.033860658421526746
57.675,0.03661244163341171,-0.03661244163341171
57.676,0.0217517908218805,-0.0217517908218805
57.677,0.0019149187024438685,0.0019149187024438685
57.678,0.02146809690811957,0.02146809690811957
57.679,0.024694668236560524,0.024694668236560524
57.68,0.004869970918910171,0.004869970918910171
57.681,0.03622284245005536,-0.03622284245005536
57.682,0.08818038876082468,-0.08818038876082468
57.683,0.13492045050493096,-0.13492045050493096
57.684,0.1597563947145736,-0.1597563947145736
57.685,0.1509225352188086,-0.1509225352188086
57.686,0.10568442377688536,-0.10568442377688536
57.687,0.031630008244610264,-0.031630008244610264
57.688,0.055313775419993716,0.055313775419993716
57.689,0.135489948555511,0.135489948555511
57.69,0.19122161515811542,0.19122161515811542
57.691,0.2117550708093816,0.2117550708093816
57.692,0.19586827473443047,0.19586827473443047
57.693,0.1514069506006699,0.1514069506006699
57.694,0.09206986378769999,0.09206986378769999
57.695,0.0326778052539598,0.0326778052539598
57.696,0.015388890307665881,-0.015388890307665881
57.697,0.047056726905332025,-0.047056726905332025
57.698,0.06389098818273597,-0.06389098818273597
57.699,0.07201135872234865,-0.07201135872234865
57.7,0.07857862826555528,-0.07857862826555528
57.701,0.08830837424863014,-0.08830837424863014
57.702,0.1013760960547393,-0.1013760960547393
57.703,0.11347771081589153,-0.11347771081589153
57.704,0.1179378290987918,-0.1179378290987918
57.705,0.10895024899992556,-0.10895024899992556
57.706,0.08459567867151874,-0.08459567867151874
57.707,0.04837315968508327,-0.04837315968508327
57.708,0.008564501310725614,-0.008564501310725614
57.709,0.024399636789503187,0.024399636789503187
57.71,0.041612337210677364,0.041612337210677364
57.711,0.039011644911875365,0.039011644911875365
57.712,0.019057193213777968,0.019057193213777968
57.713,0.009938710278952101,-0.009938710278952101
57.714,0.03665713450567365,-0.03665713450567365
57.715,0.05080465847989413,-0.05080465847989413
57.716,0.04687325446125756,-0.04687325446125756
57.717,0.02623628920444354,-0.02623628920444354
57.718,0.0032285606153221735,0.0032285606153221735
57.719,0.029909586645335384,0.029909586645335384
57.72,0.04267214108540984,0.04267214108540984
57.721,0.03502107476945282,0.03502107476945282
57.722,0.007720714066252521,0.007720714066252521
57.723,0.031089246279192073,-0.031089246279192073
57.724,0.06836562050610717,-0.06836562050610717
57.725,0.09039648981612947,-0.09039648981612947
57.726,0.08735902787659167,-0.08735902787659167
57.727,0.05665521136712859,-0.05665521136712859
57.728,0.003915060060536546,-0.003915060060536546
57.729,0.05863099366718316,0.05863099366718316
57.73,0.11581447903680986,0.11581447903680986
57.731,0.15396973310951645,0.15396973310951645
57.732,0.16469534815866815,0.16469534815866815
57.733,0.14678784725334038,0.14678784725334038
57.734,0.10588667468652502,0.10588667468652502
57.735,0.05217078569229394,0.05217078569229394
57.736,0.002931651352170106,-0.002931651352170106
57.737,0.04983110460554174,-0.04983110460554174
57.738,0.08269486090277711,-0.08269486090277711
57.739,0.09978464540365639,-0.09978464540365639
57.74,0.10245583085477172,-0.10245583085477172
57.741,0.09354682274950354,-0.09354682274950354
57.742,0.0760216176129691,-0.0760216176129691
57.743,0.052474902079613694,-0.052474902079613694
57.744,0.025592461647999887,-0.025592461647999887
57.745,0.0008860879458860715,0.0008860879458860715
57.746,0.021483426497062252,0.021483426497062252
57.747,0.029313468640785212,0.029313468640785212
57.748,0.017733016065830665,0.017733016065830665
57.749,0.017013791190908956,-0.017013791190908956
57.75,0.07307934933154414,-0.07307934933154414
57.751,0.14142381032359874,-0.14142381032359874
57.752,0.2063597599331043,-0.2063597599331043
57.753,0.24859287916059458,-0.24859287916059458
57.754,0.2502289300738191,-0.2502289300738191
57.755,0.20039468717629438,-0.20039468717629438
57.756,0.09968712057686324,-0.09968712057686324
57.757,0.0381779105506479,0.0381779105506479
57.758,0.18839985830529393,0.18839985830529393
57.759,0.32057191297898413,0.32057191297898413
57.76,0.4062318068200488,0.4062318068200488
57.761,0.42635606737832776,0.42635606737832776
57.762,0.37656519639274344,0.37656519639274344
57.763,0.2684219034073523,0.2684219034073523
57.764,0.1263598310144134,0.1263598310144134
57.765,0.01888928305743487,-0.01888928305743487
57.766,0.13842850539649665,-0.13842850539649665
57.767,0.21248313948369757,-0.21248313948369757
57.768,0.23473515702001624,-0.23473515702001624
57.769,0.21255694966596006,-0.21255694966596006
57.77,0.16329952192579678,-0.16329952192579678
57.771,0.1080069050916086,-0.1080069050916086
57.772,0.06466533092510562,-0.06466533092510562
57.773,0.04312603431160478,-0.04312603431160478
57.774,0.0431781951522342,-0.0431781951522342
57.775,0.05613734933736225,-0.05613734933736225
57.776,0.06914024970481847,-0.06914024970481847
57.777,0.0704925665873023,-0.0704925665873023
57.778,0.05416792695585293,-0.05416792695585293
57.779,0.021960455672740076,-0.021960455672740076
57.78,0.017319651714774675,0.017319651714774675
57.781,0.0511713353969363,0.0511713353969363
57.782,0.06797002729044954,0.06797002729044954
57.783,0.06113671321108449,0.06113671321108449
57.784,0.03148551319093418,0.03148551319093418
57.785,0.012981966607769846,-0.012981966607769846
57.786,0.05966364268450974,-0.05966364268450974
57.787,0.0953583358679152,-0.0953583358679152
57.788,0.11029328801517635,-0.11029328801517635
57.789,0.10086349384646842,-0.10086349384646842
57.79,0.07028108277917033,-0.07028108277917033
57.791,0.027080103075880713,-0.027080103075880713
57.792,0.01786767929258115,0.01786767929258115
57.793,0.05473672737987645,0.05473672737987645
57.794,0.07741168717263247,0.07741168717263247
57.795,0.0846611380090172,0.0846611380090172
57.796,0.07962692181757358,0.07962692181757358
57.797,0.0680174757385883,0.0680174757385883
57.798,0.05578004939605141,0.05578004939605141
57.799,0.047102038260248724,0.047102038260248724
57.8,0.043362644188953414,0.043362644188953414
57.801,0.04323794995699637,0.04323794995699637
57.802,0.04372727019343814,0.04372727019343814
57.803,0.041576579998087615,0.041576579998087615
57.804,0.03451602901430162,0.03451602901430162
57.805,0.021895797228872915,0.021895797228872915
57.806,0.004605325988185305,0.004605325988185305
57.807,0.015538781844973926,-0.015538781844973926
57.808,0.03657046072555559,-0.03657046072555559
57.809,0.056949737079636686,-0.056949737079636686
57.81,0.07572445827074348,-0.07572445827074348
57.811,0.09229623608410853,-0.09229623608410853
57.812,0.10600356915272557,-0.10600356915272557
57.813,0.11581016949535261,-0.11581016949535261
57.814,0.1203150472220127,-0.1203150472220127
57.815,0.1181232765833149,-0.1181232765833149
57.816,0.10841968470867469,-0.10841968470867469
57.817,0.09146603094357386,-0.09146603094357386
57.818,0.06875464068876658,-0.06875464068876658
57.819,0.042695758883878,-0.042695758883878
57.82,0.015929256695528582,-0.015929256695528582
57.821,0.00946269989279025,0.00946269989279025
57.822,0.03249479693779289,0.03249479693779289
57.823,0.05330719874109624,0.05330719874109624
57.824,0.07263432193094643,0.07263432193094643
57.825,0.090919465727193,0.090919465727193
57.826,0.10746772271083382,0.10746772271083382
57.827,0.12005968237665887,0.12005968237665887
57.828,0.1252948317014686,0.1252948317014686
57.829,0.11964575848440062,0.11964575848440062
57.83,0.10089242767933149,0.10089242767933149
57.831,0.06939871040967827,0.06939871040967827
57.832,0.028686351111296693,0.028686351111296693
57.833,0.015024728159440781,-0.015024728159440781
57.834,0.05427385340256119,-0.05427385340256119
57.835,0.08239233681941838,-0.08239233681941838
57.836,0.0954341558720776,-0.0954341558720776
57.837,0.09331297674116623,-0.09331297674116623
57.838,0.07970231390963611,-0.07970231390963611
57.839,0.06068760949994634,-0.06068760949994634
57.84,0.042619901148973294,-0.042619901148973294
57.841,0.029936025590256765,-0.029936025590256765
57.842,0.02375197990441802,-0.02375197990441802
57.843,0.021774140754510007,-0.021774140754510007
57.844,0.0195917894389237,-0.0195917894389237
57.845,0.012885642471539782,-0.012885642471539782
57.846,0.00029093775298183466,0.00029093775298183466
57.847,0.018077863643126246,0.018077863643126246
57.848,0.03487165517677582,0.03487165517677582
57.849,0.04300409933044658,0.04300409933044658
57.85,0.03554414941084527,0.03554414941084527
57.851,0.009265941310627746,0.009265941310627746
57.852,0.033315079822195726,-0.033315079822195726
57.853,0.08368443403603021,-0.08368443403603021
57.854,0.1291236203227487,-0.1291236203227487
57.855,0.1561296698638026,-0.1561296698638026
57.856,0.1544420230071859,-0.1544420230071859
57.857,0.12039543036790312,-0.12039543036790312
57.858,0.058481117381604664,-0.058481117381604664
57.859,0.019455117532090727,0.019455117532090727
57.86,0.09719871524820367,0.09719871524820367
57.861,0.15845419077331502,0.15845419077331502
57.862,0.19113545044055535,0.19113545044055535
57.863,0.19036663540333465,0.19036663540333465
57.864,0.15932887253212535,0.15932887253212535
57.865,0.10778716839912073,0.10778716839912073
57.866,0.04886398573002548,0.04886398573002548
57.867,0.004852392626593316,-0.004852392626593316
57.868,0.044631650041457305,-0.044631650041457305
57.869,0.06738830527022488,-0.06738830527022488
57.87,0.07552737867485426,-0.07552737867485426
57.871,0.07510406812162762,-0.07510406812162762
57.872,0.07307858199918271,-0.07307858199918271
57.873,0.07466993483618123,-0.07466993483618123
57.874,0.08167749420215886,-0.08167749420215886
57.875,0.09222043884924902,-0.09222043884924902
57.876,0.10181199795082896,-0.10181199795082896
57.877,0.1052349901992623,-0.1052349901992623
57.878,0.09847069717262447,-0.09847069717262447
57.879,0.08000964976185887,-0.08000964976185887
57.88,0.05118385097973943,-0.05118385097973943
57.881,0.01556548891880527,-0.01556548891880527
57.882,0.02218707813419507,0.02218707813419507
57.883,0.05751328707656733,0.05751328707656733
57.884,0.08673055608614888,0.08673055608614888
57.885,0.10723771112715919,0.10723771112715919
57.886,0.11727400531132637,0.11727400531132637
57.887,0.11557636791498682,0.11557636791498682
57.888,0.10129959360986396,0.10129959360986396
57.889,0.0743902251356734,0.0743902251356734
57.89,0.036315570590521595,0.036315570590521595
57.891,0.009220025572592605,-0.009220025572592605
57.892,0.05605610036826825,-0.05605610036826825
57.893,0.0962297930965954,-0.0962297930965954
57.894,0.12156563273085941,-0.12156563273085941
57.895,0.12586163338357736,-0.12586163338357736
57.896,0.10700085490854994,-0.10700085490854994
57.897,0.06820707450365482,-0.06820707450365482
57.898,0.017846300852338626,-0.017846300852338626
57.899,0.03238500424958013,0.03238500424958013
57.9,0.07049038015002407,0.07049038015002407
57.901,0.08755719084452096,0.08755719084452096
57.902,0.08042282313628135,0.08042282313628135
57.903,0.052707956379785426,0.052707956379785426
57.904,0.013788458405311399,0.013788458405311399
57.905,0.024056930321412873,-0.024056930321412873
57.906,0.04946635572524072,-0.04946635572524072
57.907,0.05557034895032842,-0.05557034895032842
57.908,0.04215474147917364,-0.04215474147917364
57.909,0.015682414504690212,-0.015682414504690212
57.91,0.012859206287963332,0.012859206287963332
57.911,0.031599457623196825,0.031599457623196825
57.912,0.0317320443171345,0.0317320443171345
57.913,0.010481692566296497,0.010481692566296497
57.914,0.02787304285381098,-0.02787304285381098
57.915,0.07324072858342423,-0.07324072858342423
57.916,0.11279923096519673,-0.11279923096519673
57.917,0.13490583559754665,-0.13490583559754665
57.918,0.13257863886427468,-0.13257863886427468
57.919,0.10546979234505816,-0.10546979234505816
57.92,0.059776883649577894,-0.059776883649577894
57.921,0.006223817746699667,-0.006223817746699667
57.922,0.0431499089466143,0.0431499089466143
57.923,0.07832334456527379,0.07832334456527379
57.924,0.09372795751190588,0.09372795751190588
57.925,0.08913724235194587,0.08913724235194587
57.926,0.06892955127638456,0.06892955127638456
57.927,0.04017718205800325,0.04017718205800325
57.928,0.01033931178888614,0.01033931178888614
57.929,0.014646476012305842,-0.014646476012305842
57.93,0.03134696373945933,-0.03134696373945933
57.931,0.03878905521536513,-0.03878905521536513
57.932,0.037693749510638974,-0.037693749510638974
57.933,0.029523123644878302,-0.029523123644878302
57.934,0.01584981597124091,-0.01584981597124091
57.935,0.001692222772373464,0.001692222772373464
57.936,0.02097168008500505,0.02097168008500505
57.937,0.038831152015823545,0.038831152015823545
57.938,0.05096097651473985,0.05096097651473985
57.939,0.05252580112095795,0.05252580112095795
57.94,0.03955318272446684,0.03955318272446684
57.941,0.01069548082759919,0.01069548082759919
57.942,0.031307527600217155,-0.031307527600217155
57.943,0.07917198839339501,-0.07917198839339501
57.944,0.12206723312483292,-0.12206723312483292
57.945,0.14803507760991563,-0.14803507760991563
57.946,0.14726315183575256,-0.14726315183575256
57.947,0.11525156317601049,-0.11525156317601049
57.948,0.05482324950870299,-0.05482324950870299
57.949,0.023798242143213244,0.023798242143213244
57.95,0.10505419789965353,0.10505419789965353
57.951,0.1717913654725851,0.1717913654725851
57.952,0.20964617018193876,0.20964617018193876
57.953,0.2107900190731209,0.2107900190731209
57.954,0.1759111144626957,0.1759111144626957
57.955,0.11383346982356746,0.11383346982356746
57.956,0.038899074834199965,0.038899074834199965
57.957,0.03307280352419739,-0.03307280352419739
57.958,0.08901048595188421,-0.08901048595188421
57.959,0.1217365110643106,-0.1217365110643106
57.96,0.13115350335478104,-0.13115350335478104
57.961,0.12323786459577357,-0.12323786459577357
57.962,0.10731165425414346,-0.10731165425414346
57.963,0.09258304522971794,-0.09258304522971794
57.964,0.08511886390704215,-0.08511886390704215
57.965,0.08619547596017918,-0.08619547596017918
57.966,0.09245612400558256,-0.09245612400558256
57.967,0.09767141648733546,-0.09767141648733546
57.968,0.09537336324690815,-0.09537336324690815
57.969,0.08138531283918327,-0.08138531283918327
57.97,0.05537066695687576,-0.05537066695687576
57.971,0.020919759684520534,-0.020919759684520534
57.972,0.015765323710869028,0.015765323710869028
57.973,0.04803868106277731,0.04803868106277731
57.974,0.07101120433242869,0.07101120433242869
57.975,0.0829956727531942,0.0829956727531942
57.976,0.08571704014947579,0.08571704014947579
57.977,0.08327323518590624,0.08327323518590624
57.978,0.08028168827140258,0.08028168827140258
57.979,0.07992416767355248,0.07992416767355248
57.98,0.08261665598324464,0.08261665598324464
57.981,0.08578699750641983,0.08578699750641983
57.982,0.08483571831550019,0.08483571831550019
57.983,0.07493242167736858,0.07493242167736858
57.984,0.05300854357135143,0.05300854357135143
57.985,0.01924286835799416,0.01924286835799416
57.986,0.022486686955892843,-0.022486686955892843
57.987,0.06536107961277449,-0.06536107961277449
57.988,0.10136354575044759,-0.10136354575044759
57.989,0.12346758381892708,-0.12346758381892708
57.99,0.1275958253808137,-0.1275958253808137
57.991,0.11376102189324933,-0.11376102189324933
57.992,0.08606510275048962,-0.08606510275048962
57.993,0.05158396299037915,-0.05158396299037915
57.994,0.018490564713121715,-0.018490564713121715
57.995,0.006029797101467782,0.006029797101467782
57.996,0.017491711906443497,0.017491711906443497
57.997,0.015011091556054401,0.015011091556054401
57.998,0.001212502132972526,0.001212502132972526
57.999,0.01875629346539842,-0.01875629346539842
58.0,0.03876965150757028,-0.03876965150757028
58.001,0.0533761011025532,-0.0533761011025532
58.002,0.05911598429233267,-0.05911598429233267
58.003,0.05519032607770691,-0.05519032607770691
58.004,0.04336306863509731,-0.04336306863509731
58.005,0.027187955980053413,-0.027187955980053413
58.006,0.010820105899300048,-0.010820105899300048
58.007,0.0022367310192676904,0.0022367310192676904
58.008,0.010098947670871494,0.010098947670871494
58.009,0.012930023194119178,0.012930023194119178
58.01,0.01272132723686692,0.01272132723686692
58.011,0.01250169946245383,0.01250169946245383
58.012,0.015212065802206354,0.015212065802206354
58.013,0.02258341614902748,0.02258341614902748
58.014,0.03436898611969297,0.03436898611969297
58.015,0.0481940818450215,0.0481940818450215
58.016,0.0601151811084939,0.0601151811084939
58.017,0.06576545030179082,0.06576545030179082
58.018,0.061766921382211404,0.061766921382211404
58.019,0.04697371038555209,0.04697371038555209
58.02,0.023122497315547497,0.023122497315547497
58.021,0.005382361341513597,-0.005382361341513597
58.022,0.032564287097456845,-0.032564287097456845
58.023,0.05257524753087084,-0.05257524753087084
58.024,0.061497127054416234,-0.061497127054416234
58.025,0.05865541894226278,-0.05865541894226278
58.026,0.04696405919122948,-0.04696405919122948
58.027,0.03210186335103471,-0.03210186335103471
58.028,0.020698556968091197,-0.020698556968091197
58.029,0.018061327732628585,-0.018061327732628585
58.03,0.026176941334584147,-0.026176941334584147
58.031,0.042695310530262987,-0.042695310530262987
58.032,0.06132704738561401,-0.06132704738561401
58.033,0.0736431742757846,-0.0736431742757846
58.034,0.0717887375111228,-0.0717887375111228
58.035,0.05127472726265114,-0.05127472726265114
58.036,0.012923009098043892,-0.012923009098043892
58.037,0.03674458643197376,0.03674458643197376
58.038,0.08691326764861973,0.08691326764861973
58.039,0.12534198590133427,0.12534198590133427
58.04,0.1418581054316359,0.1418581054316359
58.041,0.13140543611434885,0.13140543611434885
58.042,0.09567329906574495,0.09567329906574495
58.043,0.042760245853014966,0.042760245853014966
58.044,0.01505702154657007,-0.01505702154657007
58.045,0.06477298123811537,-0.06477298123811537
58.046,0.09625254808138761,-0.09625254808138761
58.047,0.1048686863942968,-0.1048686863942968
58.048,0.09238931194190914,-0.09238931194190914
58.049,0.06590475415674624,-0.06590475415674624
58.05,0.03522803033478694,-0.03522803033478694
58.051,0.009683309493445647,-0.009683309493445647
58.052,0.004640146104158749,0.004640146104158749
58.053,0.006301089973725915,0.006301089973725915
58.054,0.0017798194706147852,-0.0017798194706147852
58.055,0.014061535670481184,-0.014061535670481184
58.056,0.024835880550909906,-0.024835880550909906
58.057,0.030435970746050978,-0.030435970746050978
58.058,0.03038773831523056,-0.03038773831523056
58.059,0.02713328510177082,-0.02713328510177082
58.06,0.024522224754514932,-0.024522224754514932
58.061,0.02574583584699852,-0.02574583584699852
58.062,0.031597970971649625,-0.031597970971649625
58.063,0.03980772059004667,-0.03980772059004667
58.064,0.045755539888929664,-0.045755539888929664
58.065,0.04432344730092774,-0.04432344730092774
58.066,0.03215819529694852,-0.03215819529694852
58.067,0.009429766826166919,-0.009429766826166919
58.068,0.019670923271230212,0.019670923271230212
58.069,0.04798520114283766,0.04798520114283766
58.07,0.067682618812126,0.067682618812126
58.071,0.07298950710460317,0.07298950710460317
58.072,0.06233146520300181,0.06233146520300181
58.073,0.03904764846364417,0.03904764846364417
58.074,0.010342479286709727,0.010342479286709727
58.075,0.01520286104809987,-0.01520286104809987
58.076,0.03067671781050163,-0.03067671781050163
58.077,0.033312691367632374,-0.033312691367632374
58.078,0.02544061066012282,-0.02544061066012282
58.079,0.013502809417516248,-0.013502809417516248
58.08,0.005447874396454888,-0.005447874396454888
58.081,0.00744697038558495,-0.00744697038558495
58.082,0.021177912769743235,-0.021177912769743235
58.083,0.04276175864787446,-0.04276175864787446
58.084,0.06385675619523434,-0.06385675619523434
58.085,0.07461560205077067,-0.07461560205077067
58.086,0.06748533286956715,-0.06748533286956715
58.087,0.040451293336895566,-0.040451293336895566
58.088,0.0015446188936438787,0.0015446188936438787
58.089,0.047670085419770025,0.047670085419770025
58.09,0.08452276352179089,0.08452276352179089
58.091,0.10062516552742817,0.10062516552742817
58.092,0.09051984847513528,0.09051984847513528
58.093,0.056950731844195523,0.056950731844195523
58.094,0.010234877320553837,0.010234877320553837
58.095,0.0350940737435711,-0.0350940737435711
58.096,0.0652939815490996,-0.0652939815490996
58.097,0.07234350896485298,-0.07234350896485298
58.098,0.057003227027686565,-0.057003227027686565
58.099,0.02880252826823404,-0.02880252826823404
58.1,0.00279141796291571,-0.00279141796291571
58.101,0.0059505445093319675,0.0059505445093319675
58.102,0.011799432617252248,-0.011799432617252248
58.103,0.05521493179581172,-0.05521493179581172
58.104,0.11252795202999444,-0.11252795202999444
58.105,0.16397535769167415,-0.16397535769167415
58.106,0.1878202748006177,-0.1878202748006177
58.107,0.16758909327303262,-0.16758909327303262
58.108,0.09816034490919023,-0.09816034490919023
58.109,0.011380614493440078,0.011380614493440078
58.11,0.13921958673132306,0.13921958673132306
58.111,0.25634057128508525,0.25634057128508525
58.112,0.3344966342119857,0.3344966342119857
58.113,0.3541994122600427,0.3541994122600427
58.114,0.3102613363408966,0.3102613363408966
58.115,0.21318208873821654,0.21318208873821654
58.116,0.08597936297513686,0.08597936297513686
58.117,0.0425061729857501,-0.0425061729857501
58.118,0.1457184197684448,-0.1457184197684448
58.119,0.20640425467859214,-0.20640425467859214
58.12,0.2204619489249362,-0.2204619489249362
58.121,0.19661344302502337,-0.19661344302502337
58.122,0.1522550639960084,-0.1522550639960084
58.123,0.10703491482544814,-0.10703491482544814
58.124,0.07634699833920955,-0.07634699833920955
58.125,0.06683274901968983,-0.06683274901968983
58.126,0.07520354427716491,-0.07520354427716491
58.127,0.09052970140224692,-0.09052970140224692
58.128,0.09898801949944369,-0.09898801949944369
58.129,0.08930426128042801,-0.08930426128042801
58.13,0.057001282866893654,-0.057001282866893654
58.131,0.00607684342206849,-0.00607684342206849
58.132,0.052319721476195236,0.052319721476195236
58.133,0.10360850011597567,0.10360850011597567
58.134,0.13452538437716344,0.13452538437716344
58.135,0.13726257928258434,0.13726257928258434
58.136,0.11167909274637267,0.11167909274637267
58.137,0.06498915980552145,0.06498915980552145
58.138,0.009215436589837811,0.009215436589837811
58.139,0.0425912318128453,-0.0425912318128453
58.14,0.08004545430183452,-0.08004545430183452
58.141,0.09787125104051242,-0.09787125104051242
58.142,0.09647167592013772,-0.09647167592013772
58.143,0.08069859401217738,-0.08069859401217738
58.144,0.05749643775604063,-0.05749643775604063
58.145,0.03338961787427552,-0.03338961787427552
58.146,0.012698635916927103,-0.012698635916927103
58.147,0.003026347748331659,0.003026347748331659
58.148,0.014394952396675986,0.014394952396675986
58.149,0.022877651358863105,0.022877651358863105
58.15,0.029508594750231376,0.029508594750231376
58.151,0.03417827117821792,0.03417827117821792
58.152,0.03576604742438483,0.03576604742438483
58.153,0.03294679085898422,0.03294679085898422
58.154,0.02519352720566803,0.02519352720566803
58.155,0.013419619643548986,0.013419619643548986
58.156,0.00011327760512269691,-0.00011327760512269691
58.157,0.012635638273393979,-0.012635638273393979
58.158,0.022096544494358494,-0.022096544494358494
58.159,0.028189424988486866,-0.028189424988486866
58.16,0.03262496677000337,-0.03262496677000337
58.161,0.038392691888289865,-0.038392691888289865
58.162,0.04819410745303965,-0.04819410745303965
58.163,0.0626396436800779,-0.0626396436800779
58.164,0.07900069528795195,-0.07900069528795195
58.165,0.09119329705212109,-0.09119329705212109
58.166,0.09125788030038806,-0.09125788030038806
58.167,0.07202742596176104,-0.07202742596176104
58.168,0.03015536214626824,-0.03015536214626824
58.169,0.03158756397827611,0.03158756397827611
58.17,0.10371709995887679,0.10371709995887679
58.171,0.1716162038434461,0.1716162038434461
58.172,0.21905293241482915,0.21905293241482915
58.173,0.2326984060865751,0.2326984060865751
58.174,0.20627814587117133,0.20627814587117133
58.175,0.14299616612346822,0.14299616612346822
58.176,0.05533639740530183,0.05533639740530183
58.177,0.03786462566547977,-0.03786462566547977
58.178,0.11631784578513082,-0.11631784578513082
58.179,0.16374828142466546,-0.16374828142466546
58.18,0.17230390540258078,-0.17230390540258078
58.181,0.1445773725633902,-0.1445773725633902
58.182,0.09263022893438766,-0.09263022893438766
58.183,0.03432355190646974,-0.03432355190646974
58.184,0.011924646490262036,0.011924646490262036
58.185,0.032376128994715536,0.032376128994715536
58.186,0.02166342743295302,0.02166342743295302
58.187,0.016090511896938886,-0.016090511896938886
58.188,0.06893643339889166,-0.06893643339889166
58.189,0.12091356558496236,-0.12091356558496236
58.19,0.15677178510790035,-0.15677178510790035
58.191,0.1661632765186709,-0.1661632765186709
58.192,0.14612511011646145,-0.14612511011646145
58.193,0.10127746061079246,-0.10127746061079246
58.194,0.04189553753049524,-0.04189553753049524
58.195,0.019364967891726037,0.019364967891726037
58.196,0.0709869592480108,0.0709869592480108
58.197,0.10530677466941007,0.10530677466941007
58.198,0.11975124968799666,0.11975124968799666
58.199,0.11646620373229566,0.11646620373229566
58.2,0.10072052626895789,0.10072052626895789
58.201,0.07879097187317785,0.07879097187317785
58.202,0.05607666885991058,0.05607666885991058
58.203,0.035980320689060985,0.035980320689060985
58.204,0.019732822343899725,0.019732822343899725
58.205,0.006976960617092631,0.006976960617092631
58.206,0.0033058833307161306,-0.0033058833307161306
58.207,0.011977629559334013,-0.011977629559334013
58.208,0.019339705517177452,-0.019339705517177452
58.209,0.025204964213903502,-0.025204964213903502
58.21,0.029276702124007126,-0.029276702124007126
58.211,0.031545900641542834,-0.031545900641542834
58.212,0.03244849146953244,-0.03244849146953244
58.213,0.0326798170107212,-0.0326798170107212
58.214,0.03276446922010878,-0.03276446922010878
58.215,0.03262995906823052,-0.03262995906823052
58.216,0.03145993919916956,-0.03145993919916956
58.217,0.027989537008136223,-0.027989537008136223
58.218,0.021196890689446413,-0.021196890689446413
58.219,0.01113083171255358,-0.01113083171255358
58.22,0.0005077417213015245,0.0005077417213015245
58.221,0.010379308928420983,0.010379308928420983
58.222,0.01426895228321956,0.01426895228321956
58.223,0.008464107177124758,0.008464107177124758
58.224,0.00866750868041577,-0.00866750868041577
58.225,0.03546923286193959,-0.03546923286193959
58.226,0.06668231624850818,-0.06668231624850818
58.227,0.09430818567057575,-0.09430818567057575
58.228,0.10954713792031878,-0.10954713792031878
58.229,0.1053277824995138,-0.1053277824995138
58.23,0.07868330543752555,-0.07868330543752555
58.231,0.03220070620351079,-0.03220070620351079
58.232,0.026005913263098535,0.026005913263098535
58.233,0.08392626458938413,0.08392626458938413
58.234,0.1285285245024923,0.1285285245024923
58.235,0.14911573637664155,0.14911573637664155
58.236,0.1402194767226319,0.1402194767226319
58.237,0.10318725922192629,0.10318725922192629
58.238,0.045979701936209816,0.045979701936209816
58.239,0.018795242673646628,-0.018795242673646628
58.24,0.0770756621605877,-0.0770756621605877
58.241,0.11688042333082038,-0.11688042333082038
58.242,0.13120984943632796,-0.13120984943632796
58.243,0.11953295822350452,-0.11953295822350452
58.244,0.0874999729550443,-0.0874999729550443
58.245,0.045030525002409894,-0.045030525002409894
58.246,0.0033805652595745306,-0.0033805652595745306
58.247,0.02794568928550656,0.02794568928550656
58.248,0.043568007292848376,0.043568007292848376
58.249,0.043261160019197664,0.043261160019197664
58.25,0.031432917924065995,0.031432917924065995
58.251,0.01529275670327701,0.01529275670327701
58.252,0.0023199490532324063,0.0023199490532324063
58.253,0.0021859408509222744,-0.0021859408509222744
58.254,0.003253638498981193,0.003253638498981193
58.255,0.01592647364539035,0.01592647364539035
58.256,0.029909484509585305,0.029909484509585305
58.257,0.03808091567409577,0.03808091567409577
58.258,0.0345521847129131,0.0345521847129131
58.259,0.016790185254473178,0.016790185254473178
58.26,0.013209641089040547,-0.013209641089040547
58.261,0.049072183666970304,-0.049072183666970304
58.262,0.08151668972824855,-0.08151668972824855
58.263,0.10078731517603345,-0.10078731517603345
58.264,0.09939678219062642,-0.09939678219062642
58.265,0.07443519192160186,-0.07443519192160186
58.266,0.02879070827438368,-0.02879070827438368
58.267,0.029099795449207377,0.029099795449207377
58.268,0.08697245644580831,0.08697245644580831
58.269,0.13154276017393585,0.13154276017393585
58.27,0.15171064863727057,0.15171064863727057
58.271,0.14135332820711755,0.14135332820711755
58.272,0.10097986647447654,0.10097986647447654
58.273,0.037799923191722096,0.037799923191722096
58.274,0.03583915177972319,-0.03583915177972319
58.275,0.1052718654468412,-0.1052718654468412
58.276,0.15688881350857076,-0.15688881350857076
58.277,0.18122004509821288,-0.18122004509821288
58.278,0.17496252647229937,-0.17496252647229937
58.279,0.1414702984730991,-0.1414702984730991
58.28,0.08963453820748069,-0.08963453820748069
58.281,0.03150063720482987,-0.03150063720482987
58.282,0.02071598950639464,0.02071598950639464
58.283,0.057429596286928675,0.057429596286928675
58.284,0.07360875138962464,0.07360875138962464
58.285,0.06941399255022818,0.06941399255022818
58.286,0.049509988220462375,0.049509988220462375
58.287,0.02136898720938607,0.02136898720938607
58.288,0.00688228249202405,-0.00688228249202405
58.289,0.02846387981517573,-0.02846387981517573
58.29,0.03930662975243704,-0.03930662975243704
58.291,0.03853949625815223,-0.03853949625815223
58.292,0.028140222327169506,-0.028140222327169506
58.293,0.012009462517758362,-0.012009462517758362
58.294,0.005172052564153429,0.005172052564153429
58.295,0.018978616198610077,0.018978616198610077
58.296,0.025974585332865008,0.025974585332865008
58.297,0.02411845586599215,0.02411845586599215
58.298,0.012924255001921514,0.012924255001921514
58.299,0.006499550996308945,-0.006499550996308945
58.3,0.031470034786893475,-0.031470034786893475
58.301,0.05784852355860404,-0.05784852355860404
58.302,0.08038270089058552,-0.08038270089058552
58.303,0.09340331357862952,-0.09340331357862952
58.304,0.09190984876834007,-0.09190984876834007
58.305,0.07290359018033488,-0.07290359018033488
58.306,0.03663992673763761,-0.03663992673763761
58.307,0.012637616749785696,0.012637616749785696
58.308,0.06688046300128314,0.06688046300128314
58.309,0.11552602156402636,0.11552602156402636
58.31,0.14775518124875942,0.14775518124875942
58.311,0.1552207149135576,0.1552207149135576
58.312,0.13450331386945313,0.13450331386945313
58.313,0.08851786503165782,0.08851786503165782
58.314,0.026315659820879356,0.026315659820879356
58.315,0.038835395453359345,-0.038835395453359345
58.316,0.09268554572872889,-0.09268554572872889
58.317,0.1237010960726127,-0.1237010960726127
58.318,0.12616558121085164,-0.12616558121085164
58.319,0.10174132060702001,-0.10174132060702001
58.32,0.058974463757160756,-0.058974463757160756
58.321,0.01083960938237949,-0.01083960938237949
58.322,0.028972099969839293,0.028972099969839293
58.323,0.04991483966013699,0.04991483966013699
58.324,0.04743534159549023,0.04743534159549023
58.325,0.023956179196254812,0.023956179196254812
58.326,0.012261951197107934,-0.012261951197107934
58.327,0.0499587974052812,-0.0499587974052812
58.328,0.07845640154273781,-0.07845640154273781
58.329,0.090809863024922,-0.090809863024922
58.33,0.08553006704514987,-0.08553006704514987
58.331,0.06639211867186867,-0.06639211867186867
58.332,0.040510722514348174,-0.040510722514348174
58.333,0.01545611402406677,-0.01545611402406677
58.334,0.003505417755594209,0.003505417755594209
58.335,0.015042345213738928,0.015042345213738928
58.336,0.021696902856297662,0.021696902856297662
58.337,0.028212371978915796,0.028212371978915796
58.338,0.038941513972078345,0.038941513972078345
58.339,0.05538676074122573,0.05538676074122573
58.34,0.07489026662554354,0.07489026662554354
58.341,0.09107378424678769,0.09107378424678769
58.342,0.09597021826728902,0.09597021826728902
58.343,0.08312776777523267,0.08312776777523267
58.344,0.050548621680669426,0.050548621680669426
58.345,0.00231114076412009,0.00231114076412009
58.346,0.05186138229562487,-0.05186138229562487
58.347,0.09911432522998331,-0.09911432522998331
58.348,0.12732958990798127,-0.12732958990798127
58.349,0.12908502088939044,-0.12908502088939044
58.35,0.10433242049564329,-0.10433242049564329
58.351,0.06079284126312923,-0.06079284126312923
58.352,0.011809678996669626,-0.011809678996669626
58.353,0.027734689747002328,0.027734689747002328
58.354,0.046143136926746875,0.046143136926746875
58.355,0.03870574933843107,0.03870574933843107
58.356,0.00927803092015278,0.00927803092015278
58.357,0.030949807130916995,-0.030949807130916995
58.358,0.06714098442344696,-0.06714098442344696
58.359,0.0857660187400302,-0.0857660187400302
58.36,0.07917764375400771,-0.07917764375400771
58.361,0.04825996069507443,-0.04825996069507443
58.362,0.002231032748141182,-0.002231032748141182
58.363,0.04437219581535223,0.04437219581535223
58.364,0.07654335877169172,0.07654335877169172
58.365,0.08387338636337516,0.08387338636337516
58.366,0.06412425411279243,0.06412425411279243
58.367,0.02408526132424549,0.02408526132424549
58.368,0.022606997406054097,-0.022606997406054097
58.369,0.05998166355911472,-0.05998166355911472
