Czas,AbsSum,Sum
161.43900000000002,0.025301305490531906,0.025301305490531906
161.44,0.02724904323679026,-0.02724904323679026
161.441,0.06974765177610315,-0.06974765177610315
161.442,0.0928391727330355,-0.0928391727330355
161.443,0.09284303656100741,-0.09284303656100741
161.44400000000002,0.07244158234313083,-0.07244158234313083
161.44500000000002,0.03951471809492874,-0.03951471809492874
161.446,0.004535641635561122,-0.004535641635561122
161.447,0.0226411165797526,0.0226411165797526
161.448,0.03561617497121222,0.03561617497121222
161.449,0.033074810312460956,0.033074810312460956
161.45000000000002,0.018776985521133816,0.018776985521133816
161.45100000000002,9.00502043186031e-06,-9.00502043186031e-06
161.452,0.015076009130703895,-0.015076009130703895
161.453,0.020014658792183282,-0.020014658792183282
161.454,0.012264862414091514,-0.012264862414091514
161.455,0.006126262919874901,0.006126262919874901
161.45600000000002,0.02922957249959171,0.02922957249959171
161.45700000000002,0.04917267455577253,0.04917267455577253
161.458,0.05866407027138652,0.05866407027138652
161.459,0.05331931807132206,0.05331931807132206
161.46,0.0330911917021338,0.0330911917021338
161.461,0.0023944674948947623,0.0023944674948947623
161.46200000000002,0.031087333900184328,-0.031087333900184328
161.46300000000002,0.0585428252468806,-0.0585428252468806
161.464,0.07249155995340868,-0.07249155995340868
161.465,0.06886303881430661,-0.06886303881430661
161.466,0.04812946912389093,-0.04812946912389093
161.467,0.015207469807269976,-0.015207469807269976
161.46800000000002,0.02181158791794016,0.02181158791794016
161.469,0.0537337499879875,0.0537337499879875
161.47,0.07257514998745236,0.07257514998745236
161.471,0.07351875616642059,0.07351875616642059
161.472,0.05604005301211104,0.05604005301211104
161.473,0.02396013474780881,0.02396013474780881
161.47400000000002,0.015537496039530257,-0.015537496039530257
161.475,0.053640925383874855,-0.053640925383874855
161.476,0.0819472275406927,-0.0819472275406927
161.477,0.09431306211428607,-0.09431306211428607
161.478,0.08810475414624108,-0.08810475414624108
161.479,0.06460202832231496,-0.06460202832231496
161.48000000000002,0.02852221717486879,-0.02852221717486879
161.481,0.013163783769619943,0.013163783769619943
161.482,0.05280319831396662,0.05280319831396662
161.483,0.083636813689798,0.083636813689798
161.484,0.10102634071633389,0.10102634071633389
161.485,0.10309562485642591,0.10309562485642591
161.48600000000002,0.09071074037521289,0.09071074037521289
161.487,0.06689304017109847,0.06689304017109847
161.488,0.03589048303489202,0.03589048303489202
161.489,0.0021929588052234518,0.0021929588052234518
161.49,0.030246624203750138,-0.030246624203750138
161.491,0.05842177538680256,-0.05842177538680256
161.49200000000002,0.08028891814860917,-0.08028891814860917
161.493,0.09450498333313422,-0.09450498333313422
161.494,0.10009004912677577,-0.10009004912677577
161.495,0.09623074828547863,-0.09623074828547863
161.496,0.08236827647064701,-0.08236827647064701
161.497,0.05858224900877986,-0.05858224900877986
161.49800000000002,0.026134029701063394,-0.026134029701063394
161.499,0.012075116549244331,0.012075116549244331
161.5,0.0513997170552817,0.0513997170552817
161.501,0.08588925348704622,0.08588925348704622
161.502,0.10929460877353858,0.10929460877353858
161.50300000000001,0.11646211544340794,0.11646211544340794
161.50400000000002,0.10476213870958652,0.10476213870958652
161.505,0.07512056918879241,0.07512056918879241
161.506,0.03227673596012326,0.03227673596012326
161.507,0.01592269917524341,-0.01592269917524341
161.508,0.06011459233020469,-0.06011459233020469
161.50900000000001,0.09154181693936651,-0.09154181693936651
161.51000000000002,0.10416413497376689,-0.10416413497376689
161.511,0.0961749366567556,-0.0961749366567556
161.512,0.07047625114378869,-0.07047625114378869
161.513,0.033942107573074524,-0.033942107573074524
161.514,0.004357947160725547,0.004357947160725547
161.51500000000001,0.03550040580120401,0.03550040580120401
161.51600000000002,0.05297007594878762,0.05297007594878762
161.517,0.054218004576354395,0.054218004576354395
161.518,0.04109545944167093,0.04109545944167093
161.519,0.019074628310468578,0.019074628310468578
161.52,0.004479650151672199,-0.004479650151672199
161.52100000000002,0.022454873381360593,-0.022454873381360593
161.52200000000002,0.02991975617471375,-0.02991975617471375
161.523,0.025298687885709378,-0.025298687885709378
161.524,0.010508056016125733,-0.010508056016125733
161.525,0.009900205522511838,0.009900205522511838
161.526,0.03024643110071781,0.03024643110071781
161.52700000000002,0.045371316079575875,0.045371316079575875
161.52800000000002,0.051918357734655946,0.051918357734655946
161.529,0.048913020073671556,0.048913020073671556
161.53,0.03756620276445275,0.03756620276445275
161.531,0.020495128710836544,0.020495128710836544
161.532,0.0007281479333088782,0.0007281479333088782
161.53300000000002,0.019114756934161994,-0.019114756934161994
161.53400000000002,0.03719712974354141,-0.03719712974354141
161.535,0.05234559841855763,-0.05234559841855763
161.536,0.06360608387884956,-0.06360608387884956
161.537,0.06978965653862275,-0.06978965653862275
161.538,0.06932256921098853,-0.06932256921098853
161.53900000000002,0.060574969711069425,-0.060574969711069425
161.54000000000002,0.04261475003512456,-0.04261475003512456
161.541,0.01610733301089653,-0.01610733301089653
161.542,0.016047090299959647,0.016047090299959647
161.543,0.048718499037883244,0.048718499037883244
161.544,0.07538238180025876,0.07538238180025876
161.54500000000002,0.08967777188637131,0.08967777188637131
161.54600000000002,0.0872824747296517,0.0872824747296517
161.547,0.06751256120786608,0.06751256120786608
161.548,0.03405750595655792,0.03405750595655792
161.549,0.005522805904034353,-0.005522805904034353
161.55,0.04154246001159971,-0.04154246001159971
161.55100000000002,0.0647665863598946,-0.0647665863598946
161.55200000000002,0.06909674814207781,-0.06909674814207781
161.553,0.05353593744888581,-0.05353593744888581
161.554,0.022763141208114897,-0.022763141208114897
161.555,0.01396397148615624,0.01396397148615624
161.556,0.04535273927002916,0.04535273927002916
161.55700000000002,0.06137188574521251,0.06137188574521251
161.55800000000002,0.056330607718943985,0.056330607718943985
161.559,0.03078482094206509,0.03078482094206509
161.56,0.008369910744555304,-0.008369910744555304
161.561,0.049729253912239146,-0.049729253912239146
161.562,0.0806579234945763,-0.0806579234945763
161.56300000000002,0.09107434713796564,-0.09107434713796564
161.56400000000002,0.07661164249379235,-0.07661164249379235
161.565,0.04017464701172682,-0.04017464701172682
161.566,0.008632477108747559,0.008632477108747559
161.567,0.05610566651424211,0.05610566651424211
161.568,0.08835175523036483,0.08835175523036483
161.56900000000002,0.09538325825892746,0.09538325825892746
161.57000000000002,0.07418806722402309,0.07418806722402309
161.571,0.02984339783836026,0.02984339783836026
161.572,0.025696729467065024,-0.025696729467065024
161.573,0.07683380559917853,-0.07683380559917853
161.574,0.10867580083602547,-0.10867580083602547
161.57500000000002,0.1112704659518132,-0.1112704659518132
161.57600000000002,0.0825083232861123,-0.0825083232861123
161.577,0.02885847506075587,-0.02885847506075587
161.578,0.036282215179970066,0.036282215179970066
161.579,0.09616748593872461,0.09616748593872461
161.58,0.1352055669953558,0.1352055669953558
161.58100000000002,0.1431340701812957,0.1431340701812957
161.58200000000002,0.11771766647706136,0.11771766647706136
161.583,0.06524907481272743,0.06524907481272743
161.584,0.0012432914218543764,-0.0012432914218543764
161.585,0.06554175826068694,-0.06554175826068694
161.586,0.11253166307718,-0.11253166307718
161.58700000000002,0.1320565207806475,-0.1320565207806475
161.58800000000002,0.12131252302853482,-0.12131252302853482
161.589,0.08519612116092724,-0.08519612116092724
161.59,0.03460105528625632,-0.03460105528625632
161.591,0.016779327091221666,0.016779327091221666
161.592,0.05620722830404174,0.05620722830404174
161.59300000000002,0.07517065788837553,0.07517065788837553
161.594,0.07131367688478557,0.07131367688478557
161.595,0.048584623713206584,0.048584623713206584
161.596,0.015672823395486757,0.015672823395486757
161.597,0.01673147458957458,-0.01673147458957458
161.598,0.039029401293389686,-0.039029401293389686
161.59900000000002,0.04528856288496304,-0.04528856288496304
161.6,0.03462933750565886,-0.03462933750565886
161.601,0.011121665071038527,-0.011121665071038527
161.602,0.017678363181101206,0.017678363181101206
161.603,0.04305694477764715,0.04305694477764715
161.604,0.05763661615797148,0.05763661615797148
161.60500000000002,0.05733972765170556,0.05733972765170556
161.606,0.04232060367062163,0.04232060367062163
161.607,0.01668527283194854,0.01668527283194854
161.608,0.012836550410640921,-0.012836550410640921
161.609,0.038828791761267946,-0.038828791761267946
161.61,0.05516611208322651,-0.05516611208322651
161.61100000000002,0.05849785283210818,-0.05849785283210818
161.612,0.04888607051525567,-0.04888607051525567
161.613,0.029505895233267514,-0.029505895233267514
161.614,0.005578073433435089,-0.005578073433435089
161.615,0.017107459107726677,0.017107459107726677
161.616,0.03364759091083481,0.03364759091083481
161.61700000000002,0.04108767620474813,0.04108767620474813
161.618,0.03886676531221481,0.03886676531221481
161.619,0.028618512978004725,0.028618512978004725
161.62,0.013475584442713502,0.013475584442713502
161.621,0.002865459974941623,-0.002865459974941623
161.622,0.017041735124756707,-0.017041735124756707
161.62300000000002,0.026668741737508918,-0.026668741737508918
161.624,0.030629130854622412,-0.030629130854622412
161.625,0.029022379210632276,-0.029022379210632276
161.626,0.022880899776026847,-0.022880899776026847
161.627,0.013792706999389772,-0.013792706999389772
161.62800000000001,0.0035504626368114407,-0.0035504626368114407
161.62900000000002,0.006109626176457617,0.006109626176457617
161.63,0.013678580881243222,0.013678580881243222
161.631,0.017996394871049606,0.017996394871049606
161.632,0.018370973801058187,0.018370973801058187
161.633,0.01471060429953755,0.01471060429953755
161.63400000000001,0.007639505101133731,0.007639505101133731
161.63500000000002,0.0014717495352311667,-0.0014717495352311667
161.636,0.010635161228518581,-0.010635161228518581
161.637,0.01757247299505583,-0.01757247299505583
161.638,0.020211156897867538,-0.020211156897867538
161.639,0.017242884474527313,-0.017242884474527313
161.64000000000001,0.008584115681245301,-0.008584115681245301
161.64100000000002,0.004426030241153395,0.004426030241153395
161.642,0.019199744812498115,0.019199744812498115
161.643,0.032450797746148334,0.032450797746148334
161.644,0.04100307156939491,0.04100307156939491
161.645,0.04264047666503757,0.04264047666503757
161.64600000000002,0.0367437133901307,0.0367437133901307
161.64700000000002,0.02450267592790123,0.02450267592790123
161.648,0.008610892937973288,0.008610892937973288
161.649,0.007492800254211992,-0.007492800254211992
161.65,0.020620214049091628,-0.020620214049091628
161.651,0.028762167206026302,-0.028762167206026302
161.65200000000002,0.03164841810290911,-0.03164841810290911
161.65300000000002,0.030742304717157734,-0.030742304717157734
161.654,0.028648879436776666,-0.028648879436776666
161.655,0.028108887946324938,-0.028108887946324938
161.656,0.030899323420750156,-0.030899323420750156
161.657,0.03701255831910263,-0.03701255831910263
161.65800000000002,0.044417351741847876,-0.044417351741847876
161.65900000000002,0.04953171181190367,-0.04953171181190367
161.66,0.048310213256766425,-0.048310213256766425
161.661,0.0376379071590018,-0.0376379071590018
161.662,0.016598674275274488,-0.016598674275274488
161.663,0.012807237357069366,0.012807237357069366
161.66400000000002,0.0457785707983086,0.0457785707983086
161.66500000000002,0.07570205927770268,0.07570205927770268
161.666,0.09578730906347446,0.09578730906347446
161.667,0.10090674761760786,0.10090674761760786
161.668,0.08911080176733968,0.08911080176733968
161.669,0.06235614566574955,0.06235614566574955
161.67000000000002,0.026194657037563664,0.026194657037563664
161.67100000000002,0.01153592243880824,-0.01153592243880824
161.672,0.042687317939994016,-0.042687317939994016
161.673,0.06090750692669121,-0.06090750692669121
161.674,0.06329327036194973,-0.06329327036194973
161.675,0.05112061310611423,-0.05112061310611423
161.67600000000002,0.029439769540666506,-0.029439769540666506
161.67700000000002,0.005640082877003353,-0.005640082877003353
161.678,0.012619469273884909,0.012619469273884909
161.679,0.019539886495159843,0.019539886495159843
161.68,0.012782380337109503,0.012782380337109503
161.681,0.0058989679434036475,-0.0058989679434036475
161.68200000000002,0.031157110475839824,-0.031157110475839824
161.68300000000002,0.05553356326188193,-0.05553356326188193
161.684,0.07150213547628352,-0.07150213547628352
161.685,0.07350911784105804,-0.07350911784105804
161.686,0.05945828329737043,-0.05945828329737043
161.687,0.031255230453750206,-0.031255230453750206
161.68800000000002,0.005707225319702748,0.005707225319702748
161.68900000000002,0.04395060212436721,0.04395060212436721
161.69,0.07579531593458415,0.07579531593458415
161.691,0.0952127012665606,0.0952127012665606
161.692,0.09916313894638899,0.09916313894638899
161.693,0.08810258168906653,0.08810258168906653
161.69400000000002,0.06558104701314131,0.06558104701314131
161.69500000000002,0.03710470135522202,0.03710470135522202
161.696,0.00861896328508821,0.00861896328508821
161.697,0.014954261714317699,-0.014954261714317699
161.698,0.030740920153831973,-0.030740920153831973
161.699,0.038268420112792904,-0.038268420112792904
161.70000000000002,0.0391222939177644,-0.0391222939177644
161.70100000000002,0.036078386058647716,-0.036078386058647716
161.702,0.032018443098318625,-0.032018443098318625
161.703,0.028974291788618024,-0.028974291788618024
161.704,0.02758002490562106,-0.02758002490562106
161.705,0.02706754422587826,-0.02706754422587826
161.70600000000002,0.02576452445108116,-0.02576452445108116
161.70700000000002,0.021898709599905638,-0.021898709599905638
161.708,0.014423533892069101,-0.014423533892069101
161.709,0.0035816244681606264,-0.0035816244681606264
161.71,0.008988100334043242,0.008988100334043242
161.711,0.020645775564194682,0.020645775564194682
161.71200000000002,0.028532453062990196,0.028532453062990196
161.71300000000002,0.030495808910351047,0.030495808910351047
161.714,0.025863811987706202,0.025863811987706202
161.715,0.015807518588697538,0.015807518588697538
161.716,0.0031517026762221977,0.0031517026762221977
161.717,0.008343505877578776,-0.008343505877578776
161.71800000000002,0.015043374390191629,-0.015043374390191629
161.719,0.014541394068101267,-0.014541394068101267
161.72,0.006475185601862617,-0.006475185601862617
161.721,0.007205701905189071,0.007205701905189071
161.722,0.022633364704891166,0.022633364704891166
161.723,0.03500198245511488,0.03500198245511488
161.72400000000002,0.03988619638094756,0.03988619638094756
161.725,0.034538627481900064,0.034538627481900064
161.726,0.018796660511553376,0.018796660511553376
161.727,0.004676798880675115,-0.004676798880675115
161.728,0.03091710271209419,-0.03091710271209419
161.729,0.05383365889782622,-0.05383365889782622
161.73000000000002,0.06773931059921516,-0.06773931059921516
161.731,0.06882789067184633,-0.06882789067184633
161.732,0.05619908751491914,-0.05619908751491914
161.733,0.03214701171776245,-0.03214701171776245
161.734,0.0016275148616917688,-0.0016275148616917688
161.735,0.028956043866602305,0.028956043866602305
161.73600000000002,0.0533221075081921,0.0533221075081921
161.737,0.06681361985010063,0.06681361985010063
161.738,0.06743638951038264,0.06743638951038264
161.739,0.05617155349414309,0.05617155349414309
161.74,0.03650902983817821,0.03650902983817821
161.741,0.013368372946872403,0.013368372946872403
161.74200000000002,0.008260378919441771,-0.008260378919441771
161.743,0.02455871911184262,-0.02455871911184262
161.744,0.03366196879883757,-0.03366196879883757
161.745,0.035794298823729045,-0.035794298823729045
161.746,0.03277527207110074,-0.03277527207110074
161.747,0.0271098473149109,-0.0271098473149109
161.74800000000002,0.020993796600311143,-0.020993796600311143
161.749,0.015576726081410157,-0.015576726081410157
161.75,0.010723563682542054,-0.010723563682542054
161.751,0.00533623698769409,-0.00533623698769409
161.752,0.0019009178475961476,0.0019009178475961476
161.75300000000001,0.01164047760215167,0.01164047760215167
161.75400000000002,0.023199437096907045,0.023199437096907045
161.755,0.03437643393104835,0.03437643393104835
161.756,0.04187933953094634,0.04187933953094634
161.757,0.042274681423967245,0.042274681423967245
161.758,0.033180635136315355,0.033180635136315355
161.75900000000001,0.014318415585715099,0.014318415585715099
161.76000000000002,0.011948713435170835,-0.011948713435170835
161.761,0.040823302003307534,-0.040823302003307534
161.762,0.06604321094415211,-0.06604321094415211
161.763,0.08139065944435157,-0.08139065944435157
161.764,0.08233864501466887,-0.08233864501466887
161.76500000000001,0.06736748946552788,-0.06736748946552788
161.76600000000002,0.038558218077058296,-0.038558218077058296
161.767,0.0012639102582508953,-0.0012639102582508953
161.768,0.037081050712777355,0.037081050712777355
161.769,0.06870762502602899,0.06870762502602899
161.77,0.08734876309711223,0.08734876309711223
161.77100000000002,0.08967535659531214,0.08967535659531214
161.77200000000002,0.07595833425932552,0.07595833425932552
161.773,0.04980771769490512,0.04980771769490512
161.774,0.017101726937043423,0.017101726937043423
161.775,0.015559572275040604,-0.015559572275040604
161.776,0.04242658534171468,-0.04242658534171468
161.77700000000002,0.059771923217012614,-0.059771923217012614
161.77800000000002,0.06638396551575353,-0.06638396551575353
161.779,0.06332855993449865,-0.06332855993449865
161.78,0.05315063723193124,-0.05315063723193124
161.781,0.0388428090837077,-0.0388428090837077
161.782,0.02294618460841023,-0.02294618460841023
161.78300000000002,0.007062550577277508,-0.007062550577277508
161.78400000000002,0.00811882486251278,0.00811882486251278
161.785,0.022378110283510114,0.022378110283510114
161.786,0.03535942527355862,0.03535942527355862
161.787,0.04611130853244384,0.04611130853244384
161.788,0.05301578658822098,0.05301578658822098
161.78900000000002,0.05418641836207587,0.05418641836207587
161.79000000000002,0.04821563918760577,0.04821563918760577
161.791,0.034987901637774266,0.034987901637774266
161.792,0.01621103653038704,0.01621103653038704
161.793,0.004615863654197095,-0.004615863654197095
161.794,0.02289910656928721,-0.02289910656928721
161.79500000000002,0.034174689798516525,-0.034174689798516525
161.79600000000002,0.035509586056399485,-0.035509586056399485
161.797,0.02661861817030642,-0.02661861817030642
161.798,0.010275901460827474,-0.010275901460827474
161.799,0.008209363204682128,0.008209363204682128
161.8,0.02239419798325898,0.02239419798325898
161.80100000000002,0.026624576293837646,0.026624576293837646
161.80200000000002,0.01791719488557446,0.01791719488557446
161.803,0.002802796933152073,-0.002802796933152073
161.804,0.030560106343480574,-0.030560106343480574
161.805,0.05742801336338764,-0.05742801336338764
161.806,0.07463588670020502,-0.07463588670020502
161.80700000000002,0.07512480092552203,-0.07512480092552203
161.80800000000002,0.055814804746729604,-0.055814804746729604
161.809,0.018888120844941975,-0.018888120844941975
161.81,0.028352343702490127,0.028352343702490127
161.811,0.07508954937688377,0.07508954937688377
161.812,0.10967573439474844,0.10967573439474844
161.81300000000002,0.12267679117016184,0.12267679117016184
161.81400000000002,0.10943649508351143,0.10943649508351143
161.815,0.07143845220277696,0.07143845220277696
161.816,0.01607476968718682,0.01607476968718682
161.817,0.045123051522758355,-0.045123051522758355
161.818,0.09930578116285174,-0.09930578116285174
161.81900000000002,0.13540934940822671,-0.13540934940822671
161.82000000000002,0.14670764763290173,-0.14670764763290173
161.821,0.13216325614936605,-0.13216325614936605
161.822,0.09628348600549363,-0.09628348600549363
161.823,0.04761643036485627,-0.04761643036485627
161.824,0.0036120818818926475,0.0036120818818926475
161.82500000000002,0.048020177679502174,0.048020177679502174
161.82600000000002,0.07906688823212839,0.07906688823212839
161.827,0.09405564724464643,0.09405564724464643
161.828,0.09400892486150503,0.09400892486150503
161.829,0.0826194006093999,0.0826194006093999
161.83,0.06472541036236602,0.06472541036236602
161.83100000000002,0.044835212833672713,0.044835212833672713
161.83200000000002,0.026127388174301155,0.026127388174301155
161.833,0.01013258685006309,0.01013258685006309
161.834,0.0029583376358290085,-0.0029583376358290085
161.835,0.013620541796225105,-0.013620541796225105
161.836,0.022301785670075642,-0.022301785670075642
161.83700000000002,0.029002143610499832,-0.029002143610499832
161.83800000000002,0.03326094563565739,-0.03326094563565739
161.839,0.03449084007113304,-0.03449084007113304
161.84,0.0324477004076118,-0.0324477004076118
161.841,0.027574794687636076,-0.027574794687636076
161.842,0.021026039667171724,-0.021026039667171724
161.84300000000002,0.014325278265867438,-0.014325278265867438
161.844,0.008791425171234619,-0.008791425171234619
161.845,0.004979881395434335,-0.004979881395434335
161.846,0.002406254524671268,-0.002406254524671268
161.847,0.0002818507986356255,0.0002818507986356255
161.848,0.0046995788092912445,0.0046995788092912445
161.84900000000002,0.0118913449543393,0.0118913449543393
161.85,0.02159765055653271,0.02159765055653271
161.851,0.03195130317918336,0.03195130317918336
161.852,0.03979968106182178,0.03979968106182178
161.853,0.041625051214866954,0.041625051214866954
161.854,0.03479756158582095,0.03479756158582095
161.85500000000002,0.018735267920308205,0.018735267920308205
161.856,0.004470468730186427,-0.004470468730186427
161.857,0.030259784124818837,-0.030259784124818837
161.858,0.05266754124650066,-0.05266754124650066
161.859,0.06597264255381088,-0.06597264255381088
161.86,0.0664330060860708,-0.0664330060860708
161.86100000000002,0.05353638672014632,-0.05353638672014632
161.862,0.030321091857653866,-0.030321091857653866
161.863,0.0026058448399796743,-0.0026058448399796743
161.864,0.02267574703170036,0.02267574703170036
161.865,0.039532986336708084,0.039532986336708084
161.866,0.04471386520419664,0.04471386520419664
161.86700000000002,0.03864822710552255,0.03864822710552255
161.868,0.02521260191575004,0.02521260191575004
161.869,0.010373873761649954,0.010373873761649954
161.87,0.00014342049982516068,0.00014342049982516068
161.871,0.0014877317715346911,-0.0014877317715346911
161.872,0.0060568449145922045,0.0060568449145922045
161.87300000000002,0.01969268658596929,0.01969268658596929
161.874,0.03367695705230439,0.03367695705230439
161.875,0.04154397288770516,0.04154397288770516
161.876,0.03834089045363679,0.03834089045363679
161.877,0.022421421168667615,0.022421421168667615
161.87800000000001,0.003806942968085854,-0.003806942968085854
161.87900000000002,0.03444608184677803,-0.03444608184677803
161.88,0.06181381616331545,-0.06181381616331545
161.881,0.07874973663893274,-0.07874973663893274
161.882,0.08077887396890499,-0.08077887396890499
161.883,0.06744024336377577,-0.06744024336377577
161.88400000000001,0.042364410641507894,-0.042364410641507894
161.88500000000002,0.01209601012955899,-0.01209601012955899
161.886,0.01593515500523958,0.01593515500523958
161.887,0.03562334051715866,0.03562334051715866
161.888,0.0438654333262315,0.0438654333262315
161.889,0.0411948125175239,0.0411948125175239
161.89000000000001,0.03121912840549843,0.03121912840549843
161.89100000000002,0.019112994062189335,0.019112994062189335
161.892,0.009721460872288529,0.009721460872288529
161.893,0.005936470456879916,0.005936470456879916
161.894,0.007885374920025818,0.007885374920025818
161.895,0.013166789934857813,0.013166789934857813
161.89600000000002,0.017994412190429653,0.017994412190429653
161.89700000000002,0.01879586471366092,0.01879586471366092
161.898,0.013668697028762354,0.013668697028762354
161.899,0.0031656365784703236,0.0031656365784703236
161.9,0.009863886651993772,-0.009863886651993772
161.901,0.021303203323785595,-0.021303203323785595
161.90200000000002,0.027283675768548978,-0.027283675768548978
161.90300000000002,0.025631207702988386,-0.025631207702988386
161.904,0.016720209103143688,-0.016720209103143688
161.905,0.003427558164828996,-0.003427558164828996
161.906,0.009798862604780998,0.009798862604780998
161.907,0.018430299740628608,0.018430299740628608
161.90800000000002,0.01938663109189465,0.01938663109189465
161.90900000000002,0.012078371705259789,0.012078371705259789
161.91,0.0013894832489994386,-0.0013894832489994386
161.911,0.016908326459446,-0.016908326459446
161.912,0.029701688867679935,-0.029701688867679935
161.913,0.0358445243902043,-0.0358445243902043
161.91400000000002,0.03345864808908688,-0.03345864808908688
161.91500000000002,0.023206584571643984,-0.023206584571643984
161.916,0.007959389792083075,-0.007959389792083075
161.917,0.008202648403949126,0.008202648403949126
161.918,0.02128454141961261,0.02128454141961261
161.919,0.02852279540469844,0.02852279540469844
161.92000000000002,0.029026464741841087,0.029026464741841087
161.92100000000002,0.023760788125527663,0.023760788125527663
161.922,0.01496225396177169,0.01496225396177169
161.923,0.005261571808536671,0.005261571808536671
161.924,0.003140005163007246,-0.003140005163007246
161.925,0.008962153629631549,-0.008962153629631549
161.92600000000002,0.011892294124722445,-0.011892294124722445
161.92700000000002,0.012268908476881049,-0.012268908476881049
161.928,0.010623536679725985,-0.010623536679725985
161.929,0.007336731378931535,-0.007336731378931535
161.93,0.0025792579920251263,-0.0025792579920251263
161.931,0.0034512181998166197,0.0034512181998166197
161.93200000000002,0.01015317430277941,0.01015317430277941
161.93300000000002,0.01625367873613782,0.01625367873613782
161.934,0.019876624884965083,0.019876624884965083
161.935,0.01903445475148656,0.01903445475148656
161.936,0.012429740458809237,0.012429740458809237
161.937,0.0002727835302496893,0.0002727835302496893
161.93800000000002,0.015255574362967313,-0.015255574362967313
161.93900000000002,0.030193932149743825,-0.030193932149743825
161.94,0.03972931455801567,-0.03972931455801567
161.941,0.03966909340210394,-0.03966909340210394
161.942,0.028010954554897518,-0.028010954554897518
161.943,0.0060524402668814155,-0.0060524402668814155
161.94400000000002,0.021436607943543844,0.021436607943543844
161.94500000000002,0.0471861775901585,0.0471861775901585
161.946,0.06337239262793595,0.06337239262793595
161.947,0.064007094897676,0.064007094897676
161.948,0.04702737453330623,0.04702737453330623
161.949,0.015365838331454024,0.015365838331454024
161.95000000000002,0.023445466660536138,-0.023445466660536138
161.95100000000002,0.059139017179753686,-0.059139017179753686
161.952,0.08156597485261884,-0.08156597485261884
161.953,0.08370973785070877,-0.08370973785070877
161.954,0.06392674415383662,-0.06392674415383662
161.955,0.026679572809260747,-0.026679572809260747
161.95600000000002,0.018528445689916656,0.018528445689916656
161.95700000000002,0.0597528579718415,0.0597528579718415
161.958,0.08598939434685458,0.08598939434685458
161.959,0.09032349949523802,0.09032349949523802
161.96,0.07189075520321722,0.07189075520321722
161.961,0.03605119190814422,0.03605119190814422
161.96200000000002,0.007267605536245108,-0.007267605536245108
161.96300000000002,0.04653653610388318,-0.04653653610388318
161.964,0.07197793004453673,-0.07197793004453673
161.965,0.07827795464292563,-0.07827795464292563
161.966,0.06585224426179355,-0.06585224426179355
161.967,0.04033108196102052,-0.04033108196102052
161.96800000000002,0.010498176908459986,-0.010498176908459986
161.969,0.01460502899708384,0.01460502899708384
161.97,0.028461904757985546,0.028461904757985546
161.971,0.028878890387288508,0.028878890387288508
161.972,0.018282978716618912,0.018282978716618912
161.973,0.0025101744286403047,0.0025101744286403047
161.97400000000002,0.01143307340659459,-0.01143307340659459
161.975,0.017841701752291626,-0.017841701752291626
161.976,0.01418625882550916,-0.01418625882550916
161.977,0.001797924525937878,-0.001797924525937878
161.978,0.014802046133542775,0.014802046133542775
161.979,0.029632904550103662,0.029632904550103662
161.98000000000002,0.037406855971556116,0.037406855971556116
161.981,0.03535196962005957,0.03535196962005957
161.982,0.02409890155026294,0.02409890155026294
161.983,0.007368083682878828,0.007368083682878828
161.984,0.009388221390432494,-0.009388221390432494
161.985,0.020886665567097017,-0.020886665567097017
161.98600000000002,0.023790618309584663,-0.023790618309584663
161.987,0.01776786367393731,-0.01776786367393731
161.988,0.005498470656342873,-0.005498470656342873
161.989,0.008329607270879745,0.008329607270879745
161.99,0.01866097342545145,0.01866097342545145
161.991,0.021775870163056148,0.021775870163056148
161.99200000000002,0.016486593542612026,0.016486593542612026
161.993,0.004452166635818724,0.004452166635818724
161.994,0.010454113272276667,-0.010454113272276667
161.995,0.023474141081344584,-0.023474141081344584
161.996,0.030525635461020408,-0.030525635461020408
161.997,0.02947810375402104,-0.02947810375402104
161.99800000000002,0.02075052163691102,-0.02075052163691102
161.999,0.007079957944459138,-0.007079957944459138
162.0,0.007414474270392372,0.007414474270392372
162.001,0.01853323908011243,0.01853323908011243
162.002,0.023235694802849424,0.023235694802849424
162.00300000000001,0.020444715836729205,0.020444715836729205
162.00400000000002,0.01121282512697362,0.01121282512697362
162.005,0.0017379711063765643,-0.0017379711063765643
162.006,0.014901883713307027,-0.014901883713307027
162.007,0.02499625818132168,-0.02499625818132168
162.008,0.02978949563937787,-0.02978949563937787
162.00900000000001,0.02854548704825664,-0.02854548704825664
162.01000000000002,0.02202297323512226,-0.02202297323512226
162.011,0.012104663288893007,-0.012104663288893007
162.012,0.001218151898820267,-0.001218151898820267
162.013,0.008269535745072318,0.008269535745072318
162.014,0.014540607653292788,0.014540607653292788
162.01500000000001,0.016624234500235133,0.016624234500235133
162.01600000000002,0.014495728497129602,0.014495728497129602
162.017,0.009010208721643168,0.009010208721643168
162.018,0.0017128938764865316,0.0017128938764865316
162.019,0.005442911738698975,-0.005442911738698975
162.02,0.010450372859688596,-0.010450372859688596
162.02100000000002,0.011651318961605156,-0.011651318961605156
162.02200000000002,0.008135860795724927,-0.008135860795724927
162.023,5.566318480649576e-05,-5.566318480649576e-05
162.024,0.011252344091124281,0.011252344091124281
162.025,0.023418954842963892,0.023418954842963892
162.026,0.03349933514161416,0.03349933514161416
162.02700000000002,0.03866749800794722,0.03866749800794722
162.02800000000002,0.036987410743636866,0.036987410743636866
162.029,0.028039973217800638,0.028039973217800638
162.03,0.013192566815570576,0.013192566815570576
162.031,0.004617912278220468,-0.004617912278220468
162.032,0.021575606349280376,-0.021575606349280376
162.03300000000002,0.03398094026337713,-0.03398094026337713
162.03400000000002,0.03926629935696913,-0.03926629935696913
162.035,0.036718554967858565,-0.036718554967858565
162.036,0.027669753827550488,-0.027669753827550488
162.037,0.01507823444558471,-0.01507823444558471
162.038,0.0026188108085149057,-0.0026188108085149057
162.03900000000002,0.006434143535893461,0.006434143535893461
162.04000000000002,0.01017206661219477,0.01017206661219477
162.041,0.008552766312124581,0.008552766312124581
162.042,0.0032766565032019057,0.0032766565032019057
162.043,0.0029095726306369017,-0.0029095726306369017
162.044,0.007234282673517118,-0.007234282673517118
162.04500000000002,0.007888649208020883,-0.007888649208020883
162.04600000000002,0.004636662433025304,-0.004636662433025304
162.047,0.00116075636150145,0.00116075636150145
162.048,0.007105381969541099,0.007105381969541099
162.049,0.010693425581491127,0.010693425581491127
162.05,0.01027464903203125,0.01027464903203125
162.05100000000002,0.005686079912131519,0.005686079912131519
162.05200000000002,0.001671807732673847,-0.001671807732673847
162.053,0.009342695025937903,-0.009342695025937903
162.054,0.014716014840285284,-0.014716014840285284
162.055,0.015986119302416748,-0.015986119302416748
162.056,0.012810081776904254,-0.012810081776904254
162.05700000000002,0.006416201478474987,-0.006416201478474987
162.05800000000002,0.000880177760334037,0.000880177760334037
162.059,0.006574013638578632,0.006574013638578632
162.06,0.008943237750262636,0.008943237750262636
162.061,0.007725250380877555,0.007725250380877555
162.062,0.00423125546043628,0.00423125546043628
162.06300000000002,0.0008400932635781894,0.0008400932635781894
162.06400000000002,4.728880408841334e-05,4.728880408841334e-05
162.065,0.0034186751968619165,0.0034186751968619165
162.066,0.010845221678800969,0.010845221678800969
162.067,0.020396306342891374,0.020396306342891374
162.068,0.02885624700025915,0.02885624700025915
162.06900000000002,0.03277941869306193,0.03277941869306193
162.07000000000002,0.029703717512673287,0.029703717512673287
162.071,0.01909317891071062,0.01909317891071062
162.072,0.0026656765395888776,0.0026656765395888776
162.073,0.016027646254737737,-0.016027646254737737
162.074,0.032642836614900785,-0.032642836614900785
162.07500000000002,0.04335633545211526,-0.04335633545211526
162.07600000000002,0.046007076684734645,-0.046007076684734645
162.077,0.04068430135741911,-0.04068430135741911
162.078,0.029574251211750995,-0.029574251211750995
162.079,0.016139949968358665,-0.016139949968358665
162.08,0.003939557406636132,-0.003939557406636132
162.08100000000002,0.00449310641912588,0.00449310641912588
162.08200000000002,0.008319052331450744,0.008319052331450744
162.083,0.00840521882086258,0.00840521882086258
162.084,0.0067151837651871545,0.0067151837651871545
162.085,0.005347670453081793,0.005347670453081793
162.086,0.005614665992745646,0.005614665992745646
162.08700000000002,0.007523562365606363,0.007523562365606363
162.08800000000002,0.009860626136060738,0.009860626136060738
162.089,0.010830459362134013,0.010830459362134013
162.09,0.00898103511535833,0.00898103511535833
162.091,0.004023505083154706,0.004023505083154706
162.092,0.002811591771620482,-0.002811591771620482
162.09300000000002,0.009064476174196824,-0.009064476174196824
162.094,0.011911259499625017,-0.011911259499625017
162.095,0.00929626475421192,-0.00929626475421192
162.096,0.000897029424314594,-0.000897029424314594
162.097,0.011476616951409935,0.011476616951409935
162.098,0.024256618884243054,0.024256618884243054
162.09900000000002,0.0331903382748211,0.0331903382748211
162.1,0.03477197536718861,0.03477197536718861
162.101,0.027535089655314763,0.027535089655314763
162.102,0.012730218120395983,0.012730218120395983
162.103,0.005892675988045277,-0.005892675988045277
162.104,0.023171135979733186,-0.023171135979733186
162.10500000000002,0.03415136970583703,-0.03415136970583703
162.106,0.035707130782894704,-0.035707130782894704
162.107,0.02760185866783022,-0.02760185866783022
162.108,0.012616374124515108,-0.012616374124515108
162.109,0.004322149242389523,0.004322149242389523
162.11,0.01773201302186184,0.01773201302186184
162.11100000000002,0.023360615729540127,0.023360615729540127
162.112,0.019560200801474786,0.019560200801474786
162.113,0.007792371150717784,0.007792371150717784
162.114,0.007904923763168774,-0.007904923763168774
162.115,0.022299481478748013,-0.022299481478748013
162.116,0.030718849978942316,-0.030718849978942316
162.11700000000002,0.030576918521967436,-0.030576918521967436
162.118,0.022160007045892476,-0.022160007045892476
162.119,0.008422343337295296,-0.008422343337295296
162.12,0.006113110646410907,0.006113110646410907
162.121,0.016945527832466712,0.016945527832466712
162.122,0.02111510049090818,0.02111510049090818
162.12300000000002,0.018126092647112926,0.018126092647112926
162.124,0.009973190152854947,0.009973190152854947
162.125,0.0002942435993408602,0.0002942435993408602
162.126,0.007019401260170423,-0.007019401260170423
162.127,0.009240926124156732,-0.009240926124156732
162.12800000000001,0.005745542132966323,-0.005745542132966323
162.12900000000002,0.0018538245573713984,0.0018538245573713984
162.13,0.010395153697973579,0.010395153697973579
162.131,0.016402826882426044,0.016402826882426044
162.132,0.01740026023645056,0.01740026023645056
162.133,0.01281321689197523,0.01281321689197523
162.13400000000001,0.004139266063196079,0.004139266063196079
162.13500000000002,0.005662760166468175,-0.005662760166468175
162.136,0.013318605353209818,-0.013318605353209818
162.137,0.016479035712207695,-0.016479035712207695
162.138,0.01458447420332977,-0.01458447420332977
162.139,0.009029429034400321,-0.009029429034400321
162.14000000000001,0.0025687298318315395,-0.0025687298318315395
162.14100000000002,0.0018051848555321146,0.0018051848555321146
162.142,0.002083529732668256,0.002083529732668256
162.143,0.0019096076739126373,-0.0019096076739126373
162.144,0.008374535749266753,-0.008374535749266753
162.145,0.014171426064575287,-0.014171426064575287
162.14600000000002,0.016012995749628074,-0.016012995749628074
162.14700000000002,0.011778881100552753,-0.011778881100552753
162.148,0.0014597861238665405,-0.0014597861238665405
162.149,0.012636229806466327,0.012636229806466327
162.15,0.02652138279827144,0.02652138279827144
162.151,0.035810632360415214,0.035810632360415214
162.15200000000002,0.03721145970387186,0.03721145970387186
162.15300000000002,0.02969858635130681,0.02969858635130681
162.154,0.014952127727424557,0.014952127727424557
162.155,0.003110148235918473,-0.003110148235918473
162.156,0.019560977479354046,-0.019560977479354046
162.157,0.03004051335749303,-0.03004051335749303
162.15800000000002,0.03214694553403814,-0.03214694553403814
162.15900000000002,0.026168735248526188,-0.026168735248526188
162.16,0.014913400503601196,-0.014913400503601196
162.161,0.002698917094124928,-0.002698917094124928
162.162,0.00613994493758154,0.00613994493758154
162.163,0.008716034244414556,0.008716034244414556
162.16400000000002,0.004527845270852418,0.004527845270852418
162.16500000000002,0.004437909199185162,-0.004437909199185162
162.166,0.014457004623476342,-0.014457004623476342
162.167,0.021397580042165302,-0.021397580042165302
162.168,0.022163261827085202,-0.022163261827085202
162.169,0.015755900221209387,-0.015755900221209387
162.17000000000002,0.0036062676365097965,-0.0036062676365097965
162.17100000000002,0.010920574346070465,0.010920574346070465
162.172,0.02365595657452271,0.02365595657452271
162.173,0.03099606172615051,0.03099606172615051
162.174,0.031043723002581042,0.031043723002581042
162.175,0.024153256875422958,0.024153256875422958
162.17600000000002,0.012723890009462613,0.012723890009462613
162.17700000000002,0.0003458223327146571,0.0003458223327146571
162.178,0.009386424972399216,-0.009386424972399216
162.179,0.013985809753041974,-0.013985809753041974
162.18,0.012752566990389685,-0.012752566990389685
162.181,0.00683315149818862,-0.00683315149818862
162.18200000000002,0.0013094736164605575,0.0013094736164605575
162.18300000000002,0.008788022431192944,0.008788022431192944
162.184,0.013217995625541717,0.013217995625541717
162.185,0.013372151114735034,0.013372151114735034
162.186,0.009379898821148298,0.009379898821148298
162.187,0.0024666929016439383,0.0024666929016439383
162.18800000000002,0.005609671752496172,-0.005609671752496172
162.18900000000002,0.01318045525706944,-0.01318045525706944
162.19,0.01911117128491772,-0.01911117128491772
162.191,0.02293579083746728,-0.02293579083746728
162.192,0.024687083357495112,-0.024687083357495112
162.193,0.02455651559117024,-0.02455651559117024
162.19400000000002,0.02257849156900519,-0.02257849156900519
162.19500000000002,0.01850860525172768,-0.01850860525172768
162.196,0.011967493782446043,-0.011967493782446043
162.197,0.0027930688333036185,-0.0027930688333036185
162.198,0.008561807821352114,0.008561807821352114
162.199,0.020787572957302033,0.020787572957302033
162.20000000000002,0.03178728345324087,0.03178728345324087
162.20100000000002,0.039097352515235086,0.039097352515235086
162.202,0.04055994988994715,0.04055994988994715
162.203,0.03503593072038907,0.03503593072038907
162.204,0.022908644618696246,0.022908644618696246
162.205,0.006180910270478756,0.006180910270478756
162.20600000000002,0.011905965848198655,-0.011905965848198655
162.20700000000002,0.027644511730347796,-0.027644511730347796
162.208,0.037804669622803,-0.037804669622803
162.209,0.04046655250820926,-0.04046655250820926
162.21,0.03549180418229461,-0.03549180418229461
162.211,0.024497175858280904,-0.024497175858280904
162.21200000000002,0.010351324240327715,-0.010351324240327715
162.21300000000002,0.0036373072359385233,0.0036373072359385233
162.214,0.01458620050786476,0.01458620050786476
162.215,0.0207017126868583,0.0207017126868583
162.216,0.021564776761870096,0.021564776761870096
162.217,0.017997882932620054,0.017997882932620054
162.21800000000002,0.011608272483452782,0.011608272483452782
162.219,0.004195681306598744,0.004195681306598744
162.22,0.0027654585569895154,-0.0027654585569895154
162.221,0.00841177417831949,-0.00841177417831949
162.222,0.012489283441744457,-0.012489283441744457
162.223,0.015120867701424427,-0.015120867701424427
162.22400000000002,0.01648006779548776,-0.01648006779548776
162.225,0.016530449744963174,-0.016530449744963174
162.226,0.014948958101008767,-0.014948958101008767
162.227,0.011266861660907942,-0.011266861660907942
162.228,0.005167214308556334,-0.005167214308556334
162.229,0.003190596690547933,0.003190596690547933
162.23000000000002,0.012965614747565949,0.012965614747565949
162.231,0.022656077215412667,0.022656077215412667
162.232,0.030371988391159257,0.030371988391159257
162.233,0.03429320809363378,0.03429320809363378
162.234,0.033176538248525504,0.033176538248525504
162.235,0.026751421237677438,0.026751421237677438
162.23600000000002,0.01587400929897595,0.01587400929897595
162.237,0.0023824845852461786,0.0023824845852461786
162.238,0.011312458175712428,-0.011312458175712428
162.239,0.022789014183927765,-0.022789014183927765
162.24,0.03017208973249152,-0.03017208973249152
162.241,0.03253757269446089,-0.03253757269446089
162.24200000000002,0.03006226957997462,-0.03006226957997462
162.243,0.023894115314283322,-0.023894115314283322
162.244,0.015794837049416692,-0.015794837049416692
162.245,0.0076644925075197426,-0.0076644925075197426
162.246,0.001079821088797791,-0.001079821088797791
162.247,0.0030367928902271437,0.0030367928902271437
162.24800000000002,0.00454581428571434,0.00454581428571434
162.249,0.0040040850961330695,0.0040040850961330695
162.25,0.002407996089787517,0.002407996089787517
162.251,0.0008511339957041079,0.0008511339957041079
162.252,0.00019624212282580702,0.00019624212282580702
162.25300000000001,0.0008497096156490535,0.0008497096156490535
162.25400000000002,0.0026933991554035502,0.0026933991554035502
162.255,0.005182718023000355,0.005182718023000355
162.256,0.007572938189724783,0.007572938189724783
162.257,0.009199396340481395,0.009199396340481395
162.258,0.009720784194946482,0.009720784194946482
162.25900000000001,0.009243620104267901,0.009243620104267901
162.26000000000002,0.00827973566110748,0.00827973566110748
162.261,0.007540075524874633,0.007540075524874633
162.262,0.007624016007477535,0.007624016007477535
162.263,0.00870690399899432,0.00870690399899432
162.264,0.01034364913161053,0.01034364913161053
162.26500000000001,0.011483340186256895,0.011483340186256895
162.26600000000002,0.010730329146892653,0.010730329146892653
162.267,0.006805165960661627,0.006805165960661627
162.268,0.0009212515619371488,-0.0009212515619371488
162.269,0.011996594777135222,-0.011996594777135222
162.27,0.024731980521696034,-0.024731980521696034
162.27100000000002,0.03643142958912675,-0.03643142958912675
162.27200000000002,0.04400174389981968,-0.04400174389981968
162.273,0.044808827016863485,-0.044808827016863485
162.274,0.037542025150208574,-0.037542025150208574
162.275,0.0228088058058672,-0.0228088058058672
162.276,0.0032307572750613395,-0.0032307572750613395
162.27700000000002,0.017056253950953584,0.017056253950953584
162.27800000000002,0.033414023123524886,0.033414023123524886
162.279,0.041967541916631684,0.041967541916631684
162.28,0.04075649304561247,0.04075649304561247
162.281,0.030405117662555974,0.030405117662555974
162.282,0.014062992149833997,0.014062992149833997
162.28300000000002,0.003419280049431394,-0.003419280049431394
162.28400000000002,0.016874798413647127,-0.016874798413647127
162.285,0.022368219294257863,-0.022368219294257863
162.286,0.018431975209754172,-0.018431975209754172
162.287,0.006587306696361163,-0.006587306696361163
162.288,0.009047469376383718,0.009047469376383718
162.28900000000002,0.02297796291691298,0.02297796291691298
162.29000000000002,0.030032415379110753,0.030032415379110753
162.291,0.02701983870657084,0.02701983870657084
162.292,0.01382299135850323,0.01382299135850323
162.293,0.006435948376797263,-0.006435948376797263
162.294,0.028234998280941802,-0.028234998280941802
162.29500000000002,0.04525832610184707,-0.04525832610184707
162.29600000000002,0.05228224047711744,-0.05228224047711744
162.297,0.046759150884250825,-0.046759150884250825
162.298,0.029606951249804937,-0.029606951249804937
162.299,0.004959244652700424,-0.004959244652700424
162.3,0.02104122373086572,0.02104122373086572
162.30100000000002,0.042023796331529924,0.042023796331529924
162.30200000000002,0.053188707928567884,0.053188707928567884
162.303,0.05257253443448746,0.05257253443448746
162.304,0.041412664372103586,0.041412664372103586
162.305,0.02354082269326762,0.02354082269326762
162.306,0.004047452718341208,0.004047452718341208
162.30700000000002,0.012318802465233066,-0.012318802465233066
162.30800000000002,0.02249078805063327,-0.02249078805063327
162.309,0.025751218043370838,-0.025751218043370838
162.31,0.0235667172294847,-0.0235667172294847
162.311,0.018715553381630133,-0.018715553381630133
162.312,0.014070518673465825,-0.014070518673465825
162.31300000000002,0.011495635237381143,-0.011495635237381143
162.31400000000002,0.011247329138375443,-0.011247329138375443
162.315,0.012067078655187706,-0.012067078655187706
162.316,0.01188995483942432,-0.01188995483942432
162.317,0.008867561704155803,-0.008867561704155803
162.318,0.0022949379579324386,-0.0022949379579324386
162.31900000000002,0.006924353570720908,0.006924353570720908
162.32000000000002,0.016461756330433182,0.016461756330433182
162.321,0.023336804075499915,0.023336804075499915
162.322,0.024998432592840143,0.024998432592840143
162.323,0.020315299560387558,0.020315299560387558
162.324,0.010104414862856112,0.010104414862856112
162.32500000000002,0.003008970414076906,-0.003008970414076906
162.32600000000002,0.01536840194579036,-0.01536840194579036
162.327,0.023440662055544275,-0.023440662055544275
162.328,0.024953022528986665,-0.024953022528986665
162.329,0.019623742673342076,-0.019623742673342076
162.33,0.009238216492557879,-0.009238216492557879
162.33100000000002,0.0029497373462364675,0.0029497373462364675
162.33200000000002,0.013280964288188597,0.013280964288188597
162.333,0.01885420127590011,0.01885420127590011
162.334,0.01840078230571439,0.01840078230571439
162.335,0.012592290310162643,0.012592290310162643
162.336,0.003704889437523888,0.003704889437523888
162.33700000000002,0.005215185841535831,-0.005215185841535831
162.33800000000002,0.01137905227928444,-0.01137905227928444
162.339,0.013121411112240912,-0.013121411112240912
162.34,0.01032837336115656,-0.01032837336115656
162.341,0.004318408970348944,-0.004318408970348944
162.342,0.0027358898720187003,0.0027358898720187003
162.34300000000002,0.008605229283892138,0.008605229283892138
162.344,0.011723705748898264,0.011723705748898264
162.345,0.011588928183315146,0.011588928183315146
162.346,0.008737302009891215,0.008737302009891215
162.347,0.004355330654843158,0.004355330654843158
162.348,0.0002819112142212506,-0.0002819112142212506
162.34900000000002,0.004305930816899522,-0.004305930816899522
162.35,0.007492008226314232,-0.007492008226314232
162.351,0.010166432579731278,-0.010166432579731278
162.352,0.012853097772799372,-0.012853097772799372
162.353,0.015835180857932857,-0.015835180857932857
162.354,0.018838225255114263,-0.018838225255114263
162.35500000000002,0.020985876142981093,-0.020985876142981093
162.356,0.021062913584451774,-0.021062913584451774
162.357,0.017989985469827864,-0.017989985469827864
162.358,0.011322930095782096,-0.011322930095782096
162.359,0.0015730505169503806,-0.0015730505169503806
162.36,0.009790657220443819,0.009790657220443819
162.36100000000002,0.02067638564969749,0.02067638564969749
162.362,0.02893269865064334,0.02893269865064334
162.363,0.03294539002336499,0.03294539002336499
162.364,0.03206260224623799,0.03206260224623799
162.365,0.02671020010906712,0.02671020010906712
162.366,0.01817744105275842,0.01817744105275842
162.36700000000002,0.008174546294228568,0.008174546294228568
162.368,0.0016589897886552939,-0.0016589897886552939
162.369,0.01011314084916763,-0.01011314084916763
162.37,0.016520925378366594,-0.016520925378366594
162.371,0.02062772910292708,-0.02062772910292708
162.372,0.022325730261060044,-0.022325730261060044
162.37300000000002,0.021420517907845018,-0.021420517907845018
162.374,0.017578592533309432,-0.017578592533309432
162.375,0.010515934448840154,-0.010515934448840154
162.376,0.00036505347725046685,-0.00036505347725046685
162.377,0.011947196330225127,0.011947196330225127
162.37800000000001,0.024518893151144267,0.024518893151144267
162.37900000000002,0.03464917443725263,0.03464917443725263
162.38,0.039406167043521075,0.039406167043521075
162.381,0.036463768668851156,0.036463768668851156
162.382,0.024953574947423323,0.024953574947423323
162.383,0.006028876981341374,0.006028876981341374
162.38400000000001,0.017103454869472703,-0.017103454869472703
162.38500000000002,0.03977251645614938,-0.03977251645614938
162.386,0.05694169789286957,-0.05694169789286957
162.387,0.06452317034495271,-0.06452317034495271
162.388,0.06052268377661632,-0.06052268377661632
162.389,0.045659128757992794,-0.045659128757992794
162.39000000000001,0.023251830199301497,-0.023251830199301497
162.39100000000002,0.001611252009663486,0.001611252009663486
162.392,0.02339135086226403,0.02339135086226403
162.393,0.037522617779888315,0.037522617779888315
162.394,0.04153512810692245,0.04153512810692245
162.395,0.035571269375698635,0.035571269375698635
162.39600000000002,0.022181386614961236,0.022181386614961236
162.39700000000002,0.00550193366354985,0.00550193366354985
162.398,0.00990885473916305,-0.00990885473916305
162.399,0.02022873165438918,-0.02022873165438918
162.4,0.023213257327102336,-0.023213257327102336
162.401,0.018541905201069738,-0.018541905201069738
162.40200000000002,0.007656010150113528,-0.007656010150113528
162.40300000000002,0.006778921529496639,0.006778921529496639
162.404,0.021576814269269558,0.021576814269269558
162.405,0.033696657957281044,0.033696657957281044
162.406,0.04073747569626963,0.04073747569626963
162.407,0.04122588842904344,0.04122588842904344
162.40800000000002,0.0347355643504724,0.0347355643504724
162.40900000000002,0.02190428529194121,0.02190428529194121
162.41,0.004388569425775538,0.004388569425775538
162.411,0.015258191132667147,-0.015258191132667147
162.412,0.03384173181983703,-0.03384173181983703
162.413,0.047973759939640585,-0.047973759939640585
162.41400000000002,0.05470838841986883,-0.05470838841986883
162.41500000000002,0.052269432841031825,-0.052269432841031825
162.416,0.04067518304142165,-0.04067518304142165
162.417,0.022025578810198194,-0.022025578810198194
162.418,0.00026368297740950023,-0.00026368297740950023
162.419,0.01963837710618726,0.01963837710618726
162.42000000000002,0.0329259390123875,0.0329259390123875
162.42100000000002,0.036416717416681475,0.036416717416681475
162.422,0.029543925941907072,0.029543925941907072
162.423,0.01470735884101907,0.01470735884101907
162.424,0.0032659375037315695,-0.0032659375037315695
162.425,0.01847300362001662,-0.01847300362001662
162.42600000000002,0.02573652916784504,-0.02573652916784504
162.42700000000002,0.022305594441186804,-0.022305594441186804
162.428,0.008886507591406322,-0.008886507591406322
162.429,0.01038926920320067,0.01038926920320067
162.43,0.029127267153033046,0.029127267153033046
162.431,0.04065486002843009,0.04065486002843009
162.43200000000002,0.04022414945543558,0.04022414945543558
162.43300000000002,0.026715948886590065,0.026715948886590065
162.434,0.003251071833203179,0.003251071833203179
162.435,0.023554447480301548,-0.023554447480301548
162.436,0.045517045090891634,-0.045517045090891634
162.437,0.055423172982496216,-0.055423172982496216
162.43800000000002,0.04937714992091836,-0.04937714992091836
162.43900000000002,0.028190064530152197,-0.028190064530152197
162.44,0.0026731721717956403,0.0026731721717956403
162.441,0.03461661800057403,0.03461661800057403
162.442,0.05845746672675639,0.05845746672675639
162.443,0.06720313371665203,0.06720313371665203
162.44400000000002,0.058184864047839784,0.058184864047839784
162.44500000000002,0.03386868849177667,0.03386868849177667
162.446,0.0010850543281600647,0.0010850543281600647
162.447,0.031074896698022384,-0.031074896698022384
162.448,0.05402243133294005,-0.05402243133294005
162.449,0.062214768186408295,-0.062214768186408295
162.45000000000002,0.05468281683532109,-0.05468281683532109
162.45100000000002,0.03508773487324624,-0.03508773487324624
162.452,0.010334636716141292,-0.010334636716141292
162.453,0.011763422859373351,0.011763422859373351
162.454,0.02498551064726595,0.02498551064726595
162.455,0.02655424577872936,0.02655424577872936
162.45600000000002,0.01776727165006675,0.01776727165006675
162.45700000000002,0.0032600028722593,0.0032600028722593
162.458,0.010791226379144083,-0.010791226379144083
162.459,0.018877320959022215,-0.018877320959022215
162.46,0.018017081877505923,-0.018017081877505923
162.461,0.008659367430287727,-0.008659367430287727
162.46200000000002,0.005636520751443182,0.005636520751443182
162.46300000000002,0.019582042152558182,0.019582042152558182
162.464,0.02808850342829623,0.02808850342829623
162.465,0.028063729692453084,0.028063729692453084
162.466,0.01946584949749742,0.01946584949749742
162.467,0.005277460548925558,0.005277460548925558
162.46800000000002,0.009559287867212652,-0.009559287867212652
162.469,0.019856844106128237,-0.019856844106128237
162.47,0.021951020380098683,-0.021951020380098683
162.471,0.014932266343278603,-0.014932266343278603
162.472,0.0009470656448286738,-0.0009470656448286738
162.473,0.015501932810307619,0.015501932810307619
162.47400000000002,0.02899897138563925,0.02899897138563925
162.475,0.034914926521111354,0.034914926521111354
162.476,0.0308192554517669,0.0308192554517669
162.477,0.01718044185025816,0.01718044185025816
162.478,0.002820807375158461,-0.002820807375158461
162.479,0.024256112529987797,-0.024256112529987797
162.48000000000002,0.041854706526283744,-0.041854706526283744
162.481,0.05141041836554042,-0.05141041836554042
162.482,0.05079480241019322,-0.05079480241019322
162.483,0.04033992099637843,-0.04033992099637843
162.484,0.022564305272771215,-0.022564305272771215
162.485,0.001403156370343988,-0.001403156370343988
162.48600000000002,0.018787078928297604,0.018787078928297604
162.487,0.03417036702129769,0.03417036702129769
162.488,0.042114131988629545,0.042114131988629545
162.489,0.04152505071157171,0.04152505071157171
162.49,0.03285817025511877,0.03285817025511877
162.491,0.01788640198252978,0.01788640198252978
162.49200000000002,0.000669692320630128,-0.000669692320630128
162.493,0.01957849977056717,-0.01957849977056717
162.494,0.03556416785805104,-0.03556416785805104
162.495,0.045787182032478176,-0.045787182032478176
162.496,0.048311317303501085,-0.048311317303501085
162.497,0.04249541302396866,-0.04249541302396866
162.49800000000002,0.029215004087092076,-0.029215004087092076
162.499,0.010814318721937452,-0.010814318721937452
162.5,0.009268887793540641,0.009268887793540641
162.501,0.02717822422451125,0.02717822422451125
162.502,0.03948369956673939,0.03948369956673939
162.50300000000001,0.043987292514706414,0.043987292514706414
162.50400000000002,0.04025841611283055,0.04025841611283055
162.505,0.02972486196054716,0.02972486196054716
162.506,0.015268055142866105,0.015268055142866105
162.507,0.0004242135671321621,0.0004242135671321621
162.508,0.011577122581998125,-0.011577122581998125
162.50900000000001,0.018646815730377506,-0.018646815730377506
162.51000000000002,0.020288768826820455,-0.020288768826820455
162.511,0.01754217558323383,-0.01754217558323383
162.512,0.012453979736510112,-0.012453979736510112
162.513,0.0072786325084449165,-0.0072786325084449165
162.514,0.0036894536862657396,-0.0036894536862657396
162.51500000000001,0.002272244212988556,-0.002272244212988556
162.51600000000002,0.0024621990881673788,-0.0024621990881673788
162.517,0.0029198322390843945,-0.0029198322390843945
162.518,0.0021814470034782424,-0.0021814470034782424
162.519,0.0006763322580881651,0.0006763322580881651
162.52,0.005615338849244221,0.005615338849244221
162.52100000000002,0.01161538617248991,0.01161538617248991
162.52200000000002,0.01705400442261269,0.01705400442261269
162.523,0.02033051097587757,0.02033051097587757
162.524,0.020485212070834487,0.020485212070834487
162.525,0.017568734409189976,0.017568734409189976
162.526,0.012616130902671274,0.012616130902671274
162.52700000000002,0.00723656124129107,0.00723656124129107
162.52800000000002,0.002981140544780387,0.002981140544780387
162.529,0.0007396371326885221,0.0007396371326885221
162.53,0.000406317341626963,0.000406317341626963
162.531,0.0009498807150340338,0.0009498807150340338
162.532,0.0008628128724665585,0.0008628128724665585
162.53300000000002,0.0011860190128175092,-0.0011860190128175092
162.53400000000002,0.005755214024077367,-0.005755214024077367
162.535,0.01233243894682136,-0.01233243894682136
162.536,0.019460573735041217,-0.019460573735041217
162.537,0.025248259917458573,-0.025248259917458573
162.538,0.02807054542304303,-0.02807054542304303
162.53900000000002,0.02718530016204771,-0.02718530016204771
162.54000000000002,0.02301855014722375,-0.02301855014722375
162.541,0.01699841665247865,-0.01699841665247865
162.542,0.01099509974485938,-0.01099509974485938
162.543,0.006583919258441705,-0.006583919258441705
162.544,0.0044256783780623485,-0.0044256783780623485
162.54500000000002,0.0040201092762226906,-0.0040201092762226906
162.54600000000002,0.003945302010530069,-0.003945302010530069
162.547,0.002502028117685063,-0.002502028117685063
162.548,0.001487730958625298,0.001487730958625298
162.549,0.008055048515638407,0.008055048515638407
162.55,0.015906195912096095,0.015906195912096095
162.55100000000002,0.022801790999180546,0.022801790999180546
162.55200000000002,0.026381930640807186,0.026381930640807186
162.553,0.025136184010812128,0.025136184010812128
162.554,0.01913422212779531,0.01913422212779531
162.555,0.01019622530494886,0.01019622530494886
162.556,0.0013768951198191595,0.0013768951198191595
162.55700000000002,0.004103834471867931,-0.004103834471867931
162.55800000000002,0.004121923790788077,-0.004121923790788077
162.559,0.0013673026018586616,0.0013673026018586616
162.56,0.010031234046741343,0.010031234046741343
162.561,0.01773566275033779,0.01773566275033779
162.562,0.01987503159176512,0.01987503159176512
162.56300000000002,0.013050955853037312,0.013050955853037312
162.56400000000002,0.003468842458829587,-0.003468842458829587
162.565,0.027049186725518926,-0.027049186725518926
162.566,0.05206007934177367,-0.05206007934177367
162.567,0.07129423678709716,-0.07129423678709716
162.568,0.07804542600513002,-0.07804542600513002
162.56900000000002,0.068220791622909,-0.068220791622909
162.57000000000002,0.04181677852164232,-0.04181677852164232
162.571,0.0032644843928950466,-0.0032644843928950466
162.572,0.03950749232994202,0.03950749232994202
162.573,0.07704716263606999,0.07704716263606999
162.574,0.10082209184218344,0.10082209184218344
162.57500000000002,0.10542056439227628,0.10542056439227628
162.57600000000002,0.08988249961173052,0.08988249961173052
162.577,0.05780787491723322,0.05780787491723322
162.578,0.016266632403229397,0.016266632403229397
162.579,0.02611408907741569,-0.02611408907741569
162.58,0.061293703115933316,-0.061293703115933316
162.58100000000002,0.08358297118449315,-0.08358297118449315
162.58200000000002,0.09059196608560288,-0.09059196608560288
162.583,0.08321526761974396,-0.08321526761974396
162.584,0.06481435559452614,-0.06481435559452614
162.585,0.03997437665608038,-0.03997437665608038
162.586,0.013277315127777784,-0.013277315127777784
162.58700000000002,0.01155870536059471,0.01155870536059471
162.58800000000002,0.032022112820622915,0.032022112820622915
162.589,0.0466989931329878,0.0466989931329878
162.59,0.05493320817411676,0.05493320817411676
162.591,0.05651403834514007,0.05651403834514007
162.592,0.05156970706077747,0.05156970706077747
162.59300000000002,0.04069300762408745,0.04069300762408745
162.594,0.025174080844957984,0.025174080844957984
162.595,0.007134108900360293,0.007134108900360293
162.596,0.010621131306800128,-0.010621131306800128
162.597,0.025087673917138748,-0.025087673917138748
162.598,0.03378491000171444,-0.03378491000171444
162.59900000000002,0.035472348817253765,-0.035472348817253765
162.6,0.030578900829715556,-0.030578900829715556
162.601,0.02113763191535646,-0.02113763191535646
162.602,0.010190273725903719,-0.010190273725903719
162.603,0.0008288292677057663,-0.0008288292677057663
162.604,0.004804351483817158,0.004804351483817158
162.60500000000002,0.006197097318203331,0.006197097318203331
162.606,0.00456572022984022,0.00456572022984022
162.607,0.0023137952703290326,0.0023137952703290326
162.608,0.002032973277858743,0.002032973277858743
162.609,0.005408882480981322,0.005408882480981322
162.61,0.012446673661344424,0.012446673661344424
162.61100000000002,0.021326613988986064,0.021326613988986064
162.612,0.028973428241504933,0.028973428241504933
162.613,0.032155158801868915,0.032155158801868915
162.614,0.028718362551446986,0.028718362551446986
162.615,0.018497962055440437,0.018497962055440437
162.616,0.0035431410617311914,0.0035431410617311914
162.61700000000002,0.012457388557138583,-0.012457388557138583
162.618,0.025372822582180484,-0.025372822582180484
162.619,0.03203402993961141,-0.03203402993961141
162.62,0.03133609940940606,-0.03133609940940606
162.621,0.024626885818679594,-0.024626885818679594
162.622,0.01521972941045234,-0.01521972941045234
162.62300000000002,0.007186769941009403,-0.007186769941009403
162.624,0.0038584445638900843,-0.0038584445638900843
162.625,0.0065737097569082475,-0.0065737097569082475
162.626,0.014146399960791829,-0.014146399960791829
162.627,0.023260391519229987,-0.023260391519229987
162.62800000000001,0.029669221794184374,-0.029669221794184374
162.62900000000002,0.029777023071988717,-0.029777023071988717
162.63,0.022028052508243964,-0.022028052508243964
162.631,0.007589900488789795,-0.007589900488789795
162.632,0.00993653194009515,0.00993653194009515
162.633,0.025696556169118076,0.025696556169118076
162.63400000000001,0.035240648526381535,0.035240648526381535
162.63500000000002,0.03607089193881158,0.03607089193881158
162.636,0.028514608038038167,0.028514608038038167
162.637,0.015601718260724705,0.015601718260724705
162.638,0.0019806235363780526,0.0019806235363780526
162.639,0.007742484126603125,-0.007742484126603125
162.64000000000001,0.010642298729974622,-0.010642298729974622
162.64100000000002,0.0064952340047153365,-0.0064952340047153365
162.642,0.0021926708755474833,0.0021926708755474833
162.643,0.011165463911157077,0.011165463911157077
162.644,0.016049770799221114,0.016049770799221114
162.645,0.014041950901342347,0.014041950901342347
162.64600000000002,0.005025453148671278,0.005025453148671278
162.64700000000002,0.00830337185178758,-0.00830337185178758
162.648,0.0213626482364838,-0.0213626482364838
162.649,0.029339919967044426,-0.029339919967044426
162.65,0.028976282760640924,-0.028976282760640924
162.651,0.01982443412022792,-0.01982443412022792
162.65200000000002,0.004507897219971027,-0.004507897219971027
162.65300000000002,0.012133139230059662,0.012133139230059662
162.654,0.024718748422090462,0.024718748422090462
162.655,0.029233484498843772,0.029233484498843772
162.656,0.02447027391655407,0.02447027391655407
162.657,0.012483121487261975,0.012483121487261975
162.65800000000002,0.0021305004631716135,-0.0021305004631716135
162.65900000000002,0.013875344215142853,-0.013875344215142853
162.66,0.018350781373093948,-0.018350781373093948
162.661,0.01387518837176614,-0.01387518837176614
162.662,0.0021504263114757284,-0.0021504263114757284
162.663,0.012288178966328145,0.012288178966328145
162.66400000000002,0.023658429105670512,0.023658429105670512
162.66500000000002,0.02700313481985578,0.02700313481985578
162.666,0.0200159709534581,0.0200159709534581
162.667,0.003968932895891721,0.003968932895891721
162.668,0.01659969155702731,-0.01659969155702731
162.669,0.03534391325833808,-0.03534391325833808
162.67000000000002,0.04621908966749647,-0.04621908966749647
162.67100000000002,0.045515647177993813,-0.045515647177993813
162.672,0.03311652783518468,-0.03311652783518468
162.673,0.012547412997503728,-0.012547412997503728
162.674,0.010192039108030133,0.010192039108030133
162.675,0.02860741458970728,0.02860741458970728
162.67600000000002,0.03781657879475314,0.03781657879475314
162.67700000000002,0.03606824233535786,0.03606824233535786
162.678,0.025171124104122446,0.025171124104122446
162.679,0.009717863003433027,0.009717863003433027
162.68,0.004595070057267442,-0.004595070057267442
162.681,0.012947624112625749,-0.012947624112625749
162.68200000000002,0.012987976090564221,-0.012987976090564221
162.68300000000002,0.005504610517037094,-0.005504610517037094
162.684,0.006014910778026882,0.006014910778026882
162.685,0.01673789843765628,0.01673789843765628
162.686,0.02224255625078774,0.02224255625078774
162.687,0.020046253145258913,0.020046253145258913
162.68800000000002,0.010383676500376958,0.010383676500376958
162.68900000000002,0.00399960129297575,-0.00399960129297575
162.69,0.01891348380501625,-0.01891348380501625
162.691,0.030225828993600906,-0.030225828993600906
162.692,0.03524327650992901,-0.03524327650992901
162.693,0.03348582186210844,-0.03348582186210844
162.69400000000002,0.026616139976060053,-0.026616139976060053
162.69500000000002,0.017606314538842295,-0.017606314538842295
162.696,0.009501310091079416,-0.009501310091079416
162.697,0.004269717576502064,-0.004269717576502064
162.698,0.0021744806889984476,-0.0021744806889984476
162.699,0.0018775049858336674,-0.0018775049858336674
162.70000000000002,0.001199642869268078,-0.001199642869268078
162.70100000000002,0.0017957088271966966,0.0017957088271966966
162.702,0.007845844875648163,0.007845844875648163
162.703,0.01605074161394635,0.01605074161394635
162.704,0.024135264992765127,0.024135264992765127
162.705,0.029313350912048088,0.029313350912048088
162.70600000000002,0.029415134830336174,0.029415134830336174
162.70700000000002,0.02382876323942123,0.02382876323942123
162.708,0.013873059704197952,0.013873059704197952
162.709,0.00243137935380053,0.00243137935380053
162.71,0.0070399861515319725,-0.0070399861515319725
162.711,0.011770836319204735,-0.011770836319204735
162.71200000000002,0.01073256017470951,-0.01073256017470951
162.71300000000002,0.005082317202222873,-0.005082317202222873
162.714,0.0021938610131490045,0.0021938610131490045
162.715,0.007335188965792809,0.007335188965792809
162.716,0.007192429332305087,0.007192429332305087
162.717,0.00044956221715222153,0.00044956221715222153
162.71800000000002,0.011768316713752938,-0.011768316713752938
162.719,0.026138242435041825,-0.026138242435041825
162.72,0.038170637845191584,-0.038170637845191584
162.721,0.043684119572785084,-0.043684119572785084
162.722,0.040218501514439016,-0.040218501514439016
162.723,0.02789811825714736,-0.02789811825714736
162.72400000000002,0.009447196442866356,-0.009447196442866356
162.725,0.010647098807460474,0.010647098807460474
162.726,0.027534794522963906,0.027534794522963906
162.727,0.03748777617288044,0.03748777617288044
162.728,0.03897039907394832,0.03897039907394832
162.729,0.03295146335110406,0.03295146335110406
162.73000000000002,0.02238352517584189,0.02238352517584189
162.731,0.011064856347784783,0.011064856347784783
162.732,0.00230499246666154,0.00230499246666154
162.733,0.0021338120254500346,-0.0021338120254500346
162.734,0.0024638087363899577,-0.0024638087363899577
162.735,0.0005511687047647564,-0.0005511687047647564
162.73600000000002,0.000996611356764742,0.000996611356764742
162.737,2.7890878305525927e-05,-2.7890878305525927e-05
162.738,0.004495073658890042,-0.004495073658890042
162.739,0.011550525147733182,-0.011550525147733182
162.74,0.01891023463800679,-0.01891023463800679
162.741,0.023718695007426495,-0.023718695007426495
162.74200000000002,0.02364546360633685,-0.02364546360633685
162.743,0.017813428359751738,-0.017813428359751738
162.744,0.007218339711189458,-0.007218339711189458
162.745,0.005513347820434374,0.005513347820434374
162.746,0.016942817549349586,0.016942817549349586
162.747,0.023924966125011167,0.023924966125011167
162.74800000000002,0.024617650520689118,0.024617650520689118
162.749,0.019051304451719046,0.019051304451719046
162.75,0.009076712420636112,0.009076712420636112
162.751,0.0022724761015469035,-0.0022724761015469035
162.752,0.011767981497917766,-0.011767981497917766
162.75300000000001,0.016982890025905598,-0.016982890025905598
162.75400000000002,0.016967429264437575,-0.016967429264437575
162.755,0.012403808837351852,-0.012403808837351852
162.756,0.005228487818721487,-0.005228487818721487
162.757,0.0021086826804704957,0.0021086826804704957
162.758,0.007469063025400162,0.007469063025400162
162.75900000000001,0.009649605864106523,0.009649605864106523
162.76000000000002,0.008618229368613423,0.008618229368613423
162.761,0.0053252708812763444,0.0053252708812763444
162.762,0.0012090429376484847,0.0012090429376484847
162.763,0.0023897833934188087,-0.0023897833934188087
162.764,0.004680672997873584,-0.004680672997873584
162.76500000000001,0.005592440567643955,-0.005592440567643955
162.76600000000002,0.005632494074594026,-0.005632494074594026
162.767,0.005531683793531844,-0.005531683793531844
162.768,0.005844776201236082,-0.005844776201236082
162.769,0.006678016812251419,-0.006678016812251419
162.77,0.007648390641929778,-0.007648390641929778
162.77100000000002,0.008075132888420341,-0.008075132888420341
162.77200000000002,0.007306758868805307,-0.007306758868805307
162.773,0.005035284718504444,-0.005035284718504444
162.774,0.001462056505904462,-0.001462056505904462
162.775,0.0027515186960649788,0.0027515186960649788
162.776,0.006720841667140991,0.006720841667140991
162.77700000000002,0.009655770704591194,0.009655770704591194
162.77800000000002,0.011120801266515589,0.011120801266515589
162.779,0.011128411369953087,0.011128411369953087
162.78,0.01003243050692396,0.01003243050692396
162.781,0.008278985658779986,0.008278985658779986
162.782,0.006138611291416815,0.006138611291416815
162.78300000000002,0.0035552558109198896,0.0035552558109198896
162.78400000000002,0.00019912833179691963,0.00019912833179691963
162.785,0.004280864960098082,-0.004280864960098082
162.786,0.009905776708254412,-0.009905776708254412
162.787,0.016077550483855424,-0.016077550483855424
162.788,0.021509487442737618,-0.021509487442737618
162.78900000000002,0.024461436416795712,-0.024461436416795712
162.79000000000002,0.023248424675281848,-0.023248424675281848
162.791,0.01687370969110227,-0.01687370969110227
162.792,0.00556480231314868,-0.00556480231314868
162.793,0.009004014431523804,0.009004014431523804
162.794,0.023932191589724084,0.023932191589724084
162.79500000000002,0.03574304375384497,0.03574304375384497
162.79600000000002,0.041299482847434274,0.041299482847434274
162.797,0.0387166505091015,0.0387166505091015
162.798,0.027983566273114026,0.027983566273114026
162.799,0.011082994374578617,0.011082994374578617
162.8,0.00845065775162896,-0.00845065775162896
162.80100000000002,0.026420388981272,-0.026420388981272
162.80200000000002,0.03904612939583669,-0.03904612939583669
162.803,0.04391807216265956,-0.04391807216265956
162.804,0.04054831199101044,-0.04054831199101044
162.805,0.030373613276068637,-0.030373613276068637
162.806,0.016234206483690374,-0.016234206483690374
162.80700000000002,0.0015119940306397453,-0.0015119940306397453
162.80800000000002,0.01079496397470399,0.01079496397470399
162.809,0.018784337965985703,0.018784337965985703
162.81,0.021958719369011115,0.021958719369011115
162.811,0.021086086708054945,0.021086086708054945
162.812,0.017712465717027382,0.017712465717027382
162.81300000000002,0.01352904152281185,0.01352904152281185
162.81400000000002,0.009820647689493573,0.009820647689493573
162.815,0.007167811407442843,0.007167811407442843
162.816,0.0054654449775093095,0.0054654449775093095
162.817,0.004200386471986334,0.004200386471986334
162.818,0.002841281823246434,0.002841281823246434
162.81900000000002,0.001167394910882303,0.001167394910882303
162.82000000000002,0.0005967376530758167,-0.0005967376530758167
162.821,0.0018857329724956155,-0.0018857329724956155
162.822,0.002081676316936725,-0.002081676316936725
162.823,0.0008574151438157648,-0.0008574151438157648
162.824,0.0015747213488055886,0.0015747213488055886
162.82500000000002,0.004420196718288469,0.004420196718288469
162.82600000000002,0.006496436703884812,0.006496436703884812
162.827,0.0066033849786319675,0.0066033849786319675
162.828,0.003941993913783592,0.003941993913783592
162.829,0.0015677930052990273,-0.0015677930052990273
162.83,0.009183990981461488,-0.009183990981461488
162.83100000000002,0.01749463213416548,-0.01749463213416548
162.83200000000002,0.02477837041283012,-0.02477837041283012
162.833,0.029458848415860824,-0.029458848415860824
162.834,0.030511275104680536,-0.030511275104680536
162.835,0.027701437723160763,-0.027701437723160763
162.836,0.021597308926093295,-0.021597308926093295
162.83700000000002,0.013368489940931774,-0.013368489940931774
162.83800000000002,0.004452367921531871,-0.004452367921531871
162.839,0.003802347841144813,0.003802347841144813
162.84,0.010411569390261189,0.010411569390261189
162.841,0.014887934005049517,0.014887934005049517
162.842,0.017220292309843472,0.017220292309843472
162.84300000000002,0.01774036696253031,0.01774036696253031
162.844,0.01694302944372922,0.01694302944372922
162.845,0.015325594222374544,0.015325594222374544
162.846,0.013288027170750807,0.013288027170750807
162.847,0.011102921045431018,0.011102921045431018
162.848,0.008936044500918096,0.008936044500918096
162.84900000000002,0.0068853715530469125,0.0068853715530469125
162.85,0.005010930861756238,0.005010930861756238
162.851,0.0033439233181267146,0.0033439233181267146
162.852,0.001881301967105023,0.001881301967105023
162.853,0.0005820130455536916,0.0005820130455536916
162.854,0.0006210280509717121,-0.0006210280509717121
162.85500000000002,0.0017910854553076744,-0.0017910854553076744
162.856,0.0029519830548102232,-0.0029519830548102232
162.857,0.004066694101879233,-0.004066694101879233
162.858,0.005046241742323901,-0.005046241742323901
162.859,0.005790254813747743,-0.005790254813747743
162.86,0.006241894626927013,-0.006241894626927013
162.86100000000002,0.00642735954568508,-0.00642735954568508
162.862,0.006451890232065153,-0.006451890232065153
162.863,0.006441994029839733,-0.006441994029839733
162.864,0.006451328246144494,-0.006451328246144494
162.865,0.006373067011138127,-0.006373067011138127
162.866,0.005911282801430522,-0.005911282801430522
162.86700000000002,0.0046496531185007154,-0.0046496531185007154
162.868,0.0022191513875971527,-0.0022191513875971527
162.869,0.0014805789726071092,0.0014805789726071092
162.87,0.00608970075095313,0.00608970075095313
162.871,0.010720831366550741,0.010720831366550741
162.872,0.014083217785156149,0.014083217785156149
162.87300000000002,0.014804792941704382,0.014804792941704382
162.874,0.011881765081551844,0.011881765081551844
162.875,0.005120606266353825,0.005120606266353825
162.876,0.004588334826818003,-0.004588334826818003
162.877,0.015296738640008103,-0.015296738640008103
162.87800000000001,0.024372560286632396,-0.024372560286632396
162.87900000000002,0.029158999634894312,-0.029158999634894312
162.88,0.027748441714052482,-0.027748441714052482
162.881,0.01964009242855179,-0.01964009242855179
162.882,0.006059618076459791,-0.006059618076459791
162.883,0.010196176057364663,0.010196176057364663
162.88400000000001,0.025388486802263403,0.025388486802263403
162.88500000000002,0.03578878181530904,0.03578878181530904
162.886,0.0386914341666124,0.0386914341666124
162.887,0.033188826191597146,0.033188826191597146
162.888,0.02046872371638879,0.02046872371638879
162.889,0.0035299789665150516,0.0035299789665150516
162.89000000000001,0.01361350142935213,-0.01361350142935213
162.89100000000002,0.02701389267638613,-0.02701389267638613
162.892,0.03384025804740634,-0.03384025804740634
162.893,0.03309222381547177,-0.03309222381547177
162.894,0.025773920459997574,-0.025773920459997574
162.895,0.014492277277089505,-0.014492277277089505
162.89600000000002,0.0026194196325163704,-0.0026194196325163704
162.89700000000002,0.00671267428991348,0.00671267428991348
162.898,0.011476203626859638,0.011476203626859638
162.899,0.011218868615187826,0.011218868615187826
162.9,0.007025863055878813,0.007025863055878813
162.901,0.0010215717269161356,0.0010215717269161356
162.90200000000002,0.004398429005061733,-0.004398429005061733
162.90300000000002,0.007342121025352173,-0.007342121025352173
162.904,0.006956832080026113,-0.006956832080026113
162.905,0.0035767440711979913,-0.0035767440711979913
162.906,0.0015281737376656875,0.0015281737376656875
162.907,0.006679613762773339,0.006679613762773339
162.90800000000002,0.01039100897538274,0.01039100897538274
162.90900000000002,0.011830397794906087,0.011830397794906087
162.91,0.011002697446662796,0.011002697446662796
162.911,0.008619004274350433,0.008619004274350433
162.912,0.005734010895423661,0.005734010895423661
162.913,0.0033080964762342304,0.0033080964762342304
162.91400000000002,0.0018635799663213456,0.0018635799663213456
162.91500000000002,0.0013544914955212549,0.0013544914955212549
162.916,0.0012785004110124898,0.0012785004110124898
162.917,0.0009645395211794838,0.0009645395211794838
162.918,9.385975374925841e-05,-9.385975374925841e-05
162.919,0.001999075886248458,-0.001999075886248458
162.92000000000002,0.004397921505226305,-0.004397921505226305
162.92100000000002,0.006631978368423294,-0.006631978368423294
162.922,0.008020800944997417,-0.008020800944997417
162.923,0.008156448212121973,-0.008156448212121973
162.924,0.007085275014626835,-0.007085275014626835
162.925,0.005300446958126959,-0.005300446958126959
162.92600000000002,0.0035466614449797674,-0.0035466614449797674
162.92700000000002,0.002515775113164064,-0.002515775113164064
162.928,0.0025577032238290093,-0.0025577032238290093
162.929,0.0035267882615060567,-0.0035267882615060567
162.93,0.004831098720989757,-0.004831098720989757
162.931,0.005671171243653184,-0.005671171243653184
162.93200000000002,0.005377198701022284,-0.005377198701022284
162.93300000000002,0.0037103619352442307,-0.0037103619352442307
162.934,0.0010028684602498155,-0.0010028684602498155
162.935,0.0019296775005340652,0.0019296775005340652
162.936,0.004082208849290967,0.004082208849290967
162.937,0.004655849398247036,0.004655849398247036
162.93800000000002,0.00340445935789561,0.00340445935789561
162.93900000000002,0.0007913000399567095,0.0007913000399567095
162.94,0.0021200793018755367,-0.0021200793018755367
162.941,0.004019243931542585,-0.004019243931542585
162.942,0.003830549260539817,-0.003830549260539817
162.943,0.0011510151562158922,-0.0011510151562158922
162.94400000000002,0.0035226246665712745,0.0035226246665712745
162.94500000000002,0.00887764562757273,0.00887764562757273
162.946,0.013172480924898233,0.013172480924898233
162.947,0.01480970181344824,0.01480970181344824
162.948,0.01290371116866398,0.01290371116866398
162.949,0.007643098191141226,0.007643098191141226
162.95000000000002,0.0003090142889307297,0.0003090142889307297
162.95100000000002,0.007076305733904683,-0.007076305733904683
162.952,0.012370292499259816,-0.012370292499259816
162.953,0.01400284819793635,-0.01400284819793635
162.954,0.011511528633887174,-0.011511528633887174
162.955,0.005734123854101094,-0.005734123854101094
162.95600000000002,0.0014176555113239717,0.0014176555113239717
162.95700000000002,0.007542323557142961,0.007542323557142961
162.958,0.010509202384693708,0.010509202384693708
162.959,0.009151433711807737,0.009151433711807737
162.96,0.0036643837272915124,0.0036643837272915124
162.961,0.00442549754551649,-0.00442549754551649
162.96200000000002,0.01271858960593022,-0.01271858960593022
162.96300000000002,0.01868553623234492,-0.01868553623234492
162.964,0.020461077107298865,-0.020461077107298865
162.965,0.0174348054672702,-0.0174348054672702
162.966,0.010448871268648612,-0.010448871268648612
162.967,0.0015376489924832822,-0.0015376489924832822
162.96800000000002,0.00670936295593446,0.00670936295593446
162.969,0.011959696123763738,0.011959696123763738
162.97,0.012867357522839453,0.012867357522839453
162.971,0.009487961348519841,0.009487961348519841
162.972,0.0032477636870165455,0.0032477636870165455
162.973,0.003523620289265527,-0.003523620289265527
162.97400000000002,0.008348697667245303,-0.008348697667245303
162.975,0.00940620888218282,-0.00940620888218282
162.976,0.006128385634098938,-0.006128385634098938
162.977,0.0005996968119098579,0.0005996968119098579
162.978,0.008705236495198308,0.008705236495198308
162.979,0.015578149073734135,0.015578149073734135
162.98000000000002,0.01890601004754136,0.01890601004754136
162.981,0.01743266942759869,0.01743266942759869
162.982,0.011400066254498584,0.011400066254498584
162.983,0.0025275640018632335,0.0025275640018632335
162.984,0.0064761872202610225,-0.0064761872202610225
162.985,0.012729776028697067,-0.012729776028697067
162.98600000000002,0.014081044034190958,-0.014081044034190958
162.987,0.009819928435587613,-0.009819928435587613
162.988,0.0009781976095266486,-0.0009781976095266486
162.989,0.00988871997938677,0.00988871997938677
162.99,0.019389630228370158,0.019389630228370158
162.991,0.024265195833143693,0.024265195833143693
162.99200000000002,0.02235698342321191,0.02235698342321191
162.993,0.0132920055805836,0.0132920055805836
162.994,0.0013262958334577168,-0.0013262958334577168
162.995,0.018289347001709994,-0.018289347001709994
162.996,0.03362215456225241,-0.03362215456225241
162.997,0.04365564250541914,-0.04365564250541914
162.99800000000002,0.04602623534707258,-0.04602623534707258
162.999,0.040313003564610955,-0.040313003564610955
163.0,0.02812556999302389,-0.02812556999302389
163.001,0.012616115665810427,-0.012616115665810427
163.002,0.002440631299078338,0.002440631299078338
163.00300000000001,0.013725791925361748,0.013725791925361748
163.00400000000002,0.01929071442545298,0.01929071442545298
163.005,0.019033695242295902,0.019033695242295902
163.006,0.014598782047183567,0.014598782047183567
163.007,0.00873496632405591,0.00873496632405591
163.008,0.0043232231146660745,0.0043232231146660745
163.00900000000001,0.003385304734648483,0.003385304734648483
163.01000000000002,0.006396780070682266,0.006396780070682266
163.011,0.012132271674292927,0.012132271674292927
163.012,0.018100623883807586,0.018100623883807586
163.013,0.021434471335083537,0.021434471335083537
163.014,0.019944272554822,0.019944272554822
163.01500000000001,0.0129828954581113,0.0129828954581113
163.01600000000002,0.0018173961608170162,0.0018173961608170162
163.017,0.010642599547046308,-0.010642599547046308
163.018,0.02070175489801371,-0.02070175489801371
163.019,0.02506467976642962,-0.02506467976642962
163.02,0.021971853228078958,-0.021971853228078958
163.02100000000002,0.011904784955872246,-0.011904784955872246
163.02200000000002,0.002397605754080485,0.002397605754080485
163.023,0.01665601888106492,0.01665601888106492
163.024,0.026308282253759533,0.026308282253759533
163.025,0.027929514982271746,0.027929514982271746
163.026,0.020367427574827398,0.020367427574827398
163.02700000000002,0.005217923024975238,0.005217923024975238
163.02800000000002,0.013537199394191764,-0.013537199394191764
163.029,0.030647602911508226,-0.030647602911508226
163.03,0.04114109318646206,-0.04114109318646206
163.031,0.04182824083266579,-0.04182824083266579
163.032,0.03229492552850108,-0.03229492552850108
163.03300000000002,0.015064339894989892,-0.015064339894989892
163.03400000000002,0.005133794697694185,0.005133794697694185
163.035,0.02276870974964802,0.02276870974964802
163.036,0.03315611356649448,0.03315611356649448
163.037,0.033836332746222164,0.033836332746222164
163.038,0.02525555494188884,0.02525555494188884
163.03900000000002,0.010543545140266399,0.010543545140266399
163.04000000000002,0.005531453681348398,-0.005531453681348398
163.041,0.018088850904296648,-0.018088850904296648
163.042,0.023650938209986667,-0.023650938209986667
163.043,0.02116479664334668,-0.02116479664334668
163.044,0.012214188384318134,-0.012214188384318134
163.04500000000002,0.0003720217306852061,-0.0003720217306852061
163.04600000000002,0.010075184478838808,0.010075184478838808
163.047,0.015597296196224774,0.015597296196224774
163.048,0.014594114388637867,0.014594114388637867
163.049,0.00788688257524823,0.00788688257524823
163.05,0.0016259016194082466,-0.0016259016194082466
163.05100000000002,0.010021299074187001,-0.010021299074187001
163.05200000000002,0.013750405808017424,-0.013750405808017424
163.053,0.010906609913695233,-0.010906609913695233
163.054,0.0019344613662268684,-0.0019344613662268684
163.055,0.01046042159968089,0.01046042159968089
163.056,0.02217177257498141,0.02217177257498141
163.05700000000002,0.02903788553863893,0.02903788553863893
163.05800000000002,0.028225858202804734,0.028225858202804734
163.059,0.01919793326796239,0.01919793326796239
163.06,0.003943033175587636,0.003943033175587636
163.061,0.013600306779900772,-0.013600306779900772
163.062,0.028738977231279703,-0.028738977231279703
163.06300000000002,0.03744957091633287,-0.03744957091633287
163.06400000000002,0.037575564192656875,-0.037575564192656875
163.065,0.029423708584279066,-0.029423708584279066
163.066,0.015588321928447543,-0.015588321928447543
163.067,8.479261647444828e-05,-8.479261647444828e-05
163.068,0.012907995675549089,0.012907995675549089
163.06900000000002,0.020283300893090404,0.020283300893090404
163.07000000000002,0.02083286254013329,0.02083286254013329
163.071,0.015427786101687208,0.015427786101687208
163.072,0.006539672899539283,0.006539672899539283
163.073,0.00269641412792872,-0.00269641412792872
163.074,0.009537497494315737,-0.009537497494315737
163.07500000000002,0.012449806125765406,-0.012449806125765406
163.07600000000002,0.011434437492600157,-0.011434437492600157
163.077,0.007792815056019789,-0.007792815056019789
163.078,0.0034611550812159836,-0.0034611550812159836
163.079,0.00018593552113345518,-0.00018593552113345518
163.08,0.001147276421646598,0.001147276421646598
163.08100000000002,0.0007913364508999738,0.0007913364508999738
163.08200000000002,6.397044471562904e-05,-6.397044471562904e-05
163.083,0.00012249549292228242,0.00012249549292228242
163.084,0.002509295620909244,0.002509295620909244
163.085,0.0072779888328725105,0.0072779888328725105
163.086,0.013412800150721483,0.013412800150721483
163.08700000000002,0.018950977958386798,0.018950977958386798
163.08800000000002,0.021627909359957096,0.021627909359957096
163.089,0.019695483035048835,0.019695483035048835
163.09,0.012624716483110424,0.012624716483110424
163.091,0.0014375450757573302,0.0014375450757573302
163.092,0.011464316568826509,-0.011464316568826509
163.09300000000002,0.022936213746083796,-0.022936213746083796
163.094,0.02999839606972531,-0.02999839606972531
163.095,0.030727834055677264,-0.030727834055677264
163.096,0.024850136701738784,-0.024850136701738784
163.097,0.013844042806477079,-0.013844042806477079
163.098,0.0005270729177607354,-0.0005270729177607354
163.09900000000002,0.011745624060512494,0.011745624060512494
163.1,0.02001977615574311,0.02001977615574311
163.101,0.022533496997742722,0.022533496997742722
163.102,0.019133243998554865,0.019133243998554865
163.103,0.011210462876424116,0.011210462876424116
163.104,0.0012058901814826087,0.0012058901814826087
163.10500000000002,0.008144039770254175,-0.008144039770254175
163.106,0.014578911966460353,-0.014578911966460353
163.107,0.016877674315614582,-0.016877674315614582
163.108,0.01506904385347698,-0.01506904385347698
163.109,0.010263741157128844,-0.010263741157128844
163.11,0.004199263541776329,-0.004199263541776329
163.11100000000002,0.0013357181146330885,0.0013357181146330885
163.112,0.005013556651950633,0.005013556651950633
163.113,0.006274480641479747,0.006274480641479747
163.114,0.005366582442591898,0.005366582442591898
163.115,0.003146174950119444,0.003146174950119444
163.116,0.0007334984972041238,0.0007334984972041238
163.11700000000002,0.00085317252601492,-0.00085317252601492
163.118,0.0009765830577185095,-0.0009765830577185095
163.119,0.0004901363078450858,0.0004901363078450858
163.12,0.0031903998048991218,0.0031903998048991218
163.121,0.0064277176322403585,0.0064277176322403585
163.122,0.009363285135896404,0.009363285135896404
163.12300000000002,0.011207954650067475,0.011207954650067475
163.124,0.011370029354208394,0.011370029354208394
163.125,0.009546475248145508,0.009546475248145508
163.126,0.005764081486556843,0.005764081486556843
163.127,0.00038250050524346775,0.00038250050524346775
163.12800000000001,0.005935356765097169,-0.005935356765097169
163.12900000000002,0.012290484370249178,-0.012290484370249178
163.13,0.017662060489841046,-0.017662060489841046
163.131,0.021071000965242177,-0.021071000965242177
163.132,0.021776051141409437,-0.021776051141409437
163.133,0.019462896226031878,-0.019462896226031878
163.13400000000001,0.01437160546905439,-0.01437160546905439
163.13500000000002,0.007310362752707162,-0.007310362752707162
163.136,0.00047231126220227297,0.00047231126220227297
163.137,0.0075439596933582044,0.0075439596933582044
163.138,0.012616324565914992,0.012616324565914992
163.139,0.01485744831542502,0.01485744831542502
163.14000000000001,0.014095599378926823,0.014095599378926823
163.14100000000002,0.010849638892749255,0.010849638892749255
163.142,0.00617158259609946,0.00617158259609946
163.143,0.0013461828812658878,0.0013461828812658878
163.144,0.002461165939564187,-0.002461165939564187
163.145,0.00450008321286978,-0.00450008321286978
163.14600000000002,0.004586143409629662,-0.004586143409629662
163.14700000000002,0.003069120243079443,-0.003069120243079443
163.148,0.0006436777405512169,-0.0006436777405512169
163.149,0.0019192098134735139,0.0019192098134735139
163.15,0.004018284718503103,0.004018284718503103
163.151,0.005358569510559526,0.005358569510559526
163.15200000000002,0.005939347494753433,0.005939347494753433
163.15300000000002,0.005916773492207062,0.005916773492207062
163.154,0.005416767764893595,0.005416767764893595
163.155,0.004395105048530156,0.004395105048530156
163.156,0.0026219726459252887,0.0026219726459252887
163.157,0.00018608786996715193,-0.00018608786996715193
163.15800000000002,0.004132576497645681,-0.004132576497645681
163.15900000000002,0.008906913648916017,-0.008906913648916017
163.16,0.013668976932273473,-0.013668976932273473
163.161,0.01714090652748985,-0.01714090652748985
163.162,0.017922710694179275,-0.017922710694179275
163.163,0.014958618731842682,-0.014958618731842682
163.16400000000002,0.008007114518514014,-0.008007114518514014
163.16500000000002,0.002060539165196099,0.002060539165196099
163.166,0.013274744608249622,0.013274744608249622
163.167,0.022946334364523358,0.022946334364523358
163.168,0.028341133924494548,0.028341133924494548
163.169,0.02747185428614099,0.02747185428614099
163.17000000000002,0.019768361080944947,0.019768361080944947
163.17100000000002,0.006401643823976202,0.006401643823976202
163.172,0.009872904183092123,-0.009872904183092123
163.173,0.025345727964008965,-0.025345727964008965
163.174,0.03630057296352556,-0.03630057296352556
163.175,0.040014851231018354,-0.040014851231018354
163.17600000000002,0.03551911383013491,-0.03551911383013491
163.17700000000002,0.02388390520778045,-0.02388390520778045
163.178,0.007939255185518057,-0.007939255185518057
163.179,0.008497785107411096,0.008497785107411096
163.18,0.021662485592571803,0.021662485592571803
163.181,0.028842459959006007,0.028842459959006007
163.18200000000002,0.029046119681449857,0.029046119681449857
163.18300000000002,0.023152257947548133,0.023152257947548133
163.184,0.013515806898298108,0.013515806898298108
163.185,0.0031723251809163363,0.0031723251809163363
163.186,0.00509723472574144,-0.00509723472574144
163.187,0.009546922088450059,-0.009546922088450059
163.18800000000002,0.009858734705539733,-0.009858734705539733
163.18900000000002,0.007050153004770732,-0.007050153004770732
163.19,0.002959885071763749,-0.002959885071763749
163.191,0.0004897991965243741,0.0004897991965243741
163.192,0.0019916072912308383,0.0019916072912308383
163.193,0.0012758427081395306,0.0012758427081395306
163.19400000000002,0.0008752216732902789,-0.0008752216732902789
163.19500000000002,0.003007684732562659,-0.003007684732562659
163.196,0.0036207252294004873,-0.0036207252294004873
163.197,0.001803783557628913,-0.001803783557628913
163.198,0.0023454633131352056,0.0023454633131352056
163.199,0.007673875073713607,0.007673875073713607
163.20000000000002,0.012316802147297983,0.012316802147297983
163.20100000000002,0.014317271671682666,0.014317271671682666
163.202,0.012309376605797845,0.012309376605797845
163.203,0.006032683730084678,0.006032683730084678
163.204,0.003498488809744566,-0.003498488809744566
163.205,0.014231492585153336,-0.014231492585153336
163.20600000000002,0.02364383889081521,-0.02364383889081521
163.20700000000002,0.029462547481558347,-0.029462547481558347
163.208,0.030307308737572848,-0.030307308737572848
163.209,0.026059796843227824,-0.026059796843227824
163.21,0.01785402732987272,-0.01785402732987272
163.211,0.007705725836703387,-0.007705725836703387
163.21200000000002,0.0020892773677807725,0.0020892773677807725
163.21300000000002,0.009592719634387023,0.009592719634387023
163.214,0.013703807515352797,0.013703807515352797
163.215,0.014350501129839098,0.014350501129839098
163.216,0.012361837926283065,0.012361837926283065
163.217,0.00909349781979755,0.00909349781979755
163.21800000000002,0.005949489079962693,0.005949489079962693
163.219,0.0039607217932817506,0.0039607217932817506
163.22,0.0035447344493451617,0.0035447344493451617
163.221,0.0044969672612634685,0.0044969672612634685
163.222,0.006181229992605801,0.006181229992605801
163.223,0.007824644189024522,0.007824644189024522
163.22400000000002,0.008800028111758855,0.008800028111758855
163.225,0.008800258184717809,0.008800258184717809
163.226,0.007862335770469147,0.007862335770469147
163.227,0.006261004734801374,0.006261004734801374
163.228,0.004338714481467969,0.004338714481467969
163.229,0.002354079565168966,0.002354079565168966
163.23000000000002,0.0004116636840730275,0.0004116636840730275
163.231,0.001507480937032975,-0.001507480937032975
163.232,0.003443119122953198,-0.003443119122953198
163.233,0.00534200412587017,-0.00534200412587017
163.234,0.006997715987483988,-0.006997715987483988
163.235,0.008083244061073488,-0.008083244061073488
163.23600000000002,0.008271517468167268,-0.008271517468167268
163.237,0.007395883232492141,-0.007395883232492141
163.238,0.005578636953336995,-0.005578636953336995
163.239,0.0032620560474057527,-0.0032620560474057527
163.24,0.0011117023381263867,-0.0011117023381263867
163.241,0.00018712717813864984,0.00018712717813864984
163.24200000000002,0.0001721207834415865,0.0001721207834415865
163.243,0.0012050692480070565,-0.0012050692480070565
163.244,0.003519359025572035,-0.003519359025572035
163.245,0.005980685958109872,-0.005980685958109872
163.246,0.007685985680462043,-0.007685985680462043
163.247,0.00793424493260785,-0.00793424493260785
163.24800000000002,0.006494372482155082,-0.006494372482155082
163.249,0.003724725921581502,-0.003724725921581502
163.25,0.0004899250477060446,-0.0004899250477060446
163.251,0.0021100602183489986,0.0021100602183489986
163.252,0.0031156288770096585,0.0031156288770096585
163.25300000000001,0.002063073237683947,0.002063073237683947
163.25400000000002,0.0008052648388562234,-0.0008052648388562234
163.255,0.004557906317476759,-0.004557906317476759
163.256,0.007826367099403042,-0.007826367099403042
163.257,0.009221464473619191,-0.009221464473619191
163.258,0.0077848635565058765,-0.0077848635565058765
163.25900000000001,0.003330510932526835,-0.003330510932526835
163.26000000000002,0.0034380059737502623,0.0034380059737502623
163.261,0.011078702184080205,0.011078702184080205
163.262,0.017790712186364837,0.017790712186364837
163.263,0.021909284803570055,0.021909284803570055
163.264,0.022367013613580965,0.022367013613580965
163.26500000000001,0.01898320582852906,0.01898320582852906
163.26600000000002,0.01249784331557524,0.01249784331557524
163.267,0.0043462676182322215,0.0043462676182322215
163.268,0.0037504939790171284,-0.0037504939790171284
163.269,0.010251944574871469,-0.010251944574871469
163.27,0.01418184666746813,-0.01418184666746813
163.27100000000002,0.015322690789055725,-0.015322690789055725
163.27200000000002,0.014177616857579185,-0.014177616857579185
163.273,0.011729592026983291,-0.011729592026983291
163.274,0.00908683302969722,-0.00908683302969722
163.275,0.0071310693906897525,-0.0071310693906897525
163.276,0.006274809356718285,-0.006274809356718285
163.27700000000002,0.006391377145808728,-0.006391377145808728
163.27800000000002,0.006922917050137392,-0.006922917050137392
163.279,0.007116456029406083,-0.007116456029406083
163.28,0.006303362743967,-0.006303362743967
163.281,0.004132068845077014,-0.004132068845077014
163.282,0.0006865831847985741,-0.0006865831847985741
163.28300000000002,0.0035357283692711307,0.0035357283692711307
163.28400000000002,0.007768920305816602,0.007768920305816602
163.285,0.011193193834083136,0.011193193834083136
163.286,0.013151981004202506,0.013151981004202506
163.287,0.01331030837238608,0.01331030837238608
163.288,0.011716630392130941,0.011716630392130941
163.28900000000002,0.008761287729736755,0.008761287729736755
163.29000000000002,0.005053495543998272,0.005053495543998272
163.291,0.0012576800850595913,0.0012576800850595913
163.292,0.0020644432988442245,-0.0020644432988442245
163.293,0.00456664605139529,-0.00456664605139529
163.294,0.006162111427192252,-0.006162111427192252
163.29500000000002,0.006994104660320239,-0.006994104660320239
163.29600000000002,0.007347145584643556,-0.007347145584643556
163.297,0.007526013941712672,-0.007526013941712672
163.298,0.007736889296733185,-0.007736889296733185
163.299,0.008004411193884122,-0.008004411193884122
163.3,0.008150389227324781,-0.008150389227324781
163.30100000000002,0.007845137238792562,-0.007845137238792562
163.30200000000002,0.006723074753162447,-0.006723074753162447
163.303,0.0045341071003565615,-0.0045341071003565615
163.304,0.001286623274523179,-0.001286623274523179
163.305,0.0026675718324070045,0.0026675718324070045
163.306,0.006647198037017956,0.006647198037017956
163.30700000000002,0.009771157366571174,0.009771157366571174
163.30800000000002,0.01118602162330822,0.01118602162330822
163.309,0.010337182205319354,0.010337182205319354
163.31,0.007203686222590125,0.007203686222590125
163.311,0.0024125338164790065,0.0024125338164790065
163.312,0.0028286058257001416,-0.0028286058257001416
163.31300000000002,0.006993266190719793,-0.006993266190719793
163.31400000000002,0.008644519313764577,-0.008644519313764577
163.315,0.00688584538323765,-0.00688584538323765
163.316,0.0017198049141546518,-0.0017198049141546518
163.317,0.00581178246467492,0.00581178246467492
163.318,0.013781780869413925,0.013781780869413925
163.31900000000002,0.019819380636589216,0.019819380636589216
163.32000000000002,0.02174237638262555,0.02174237638262555
163.321,0.018212218471361813,0.018212218471361813
163.322,0.009218136136056362,0.009218136136056362
163.323,0.003771238277550948,-0.003771238277550948
163.324,0.018064834159763787,-0.018064834159763787
163.32500000000002,0.03037429058972678,-0.03037429058972678
163.32600000000002,0.03765354897154118,-0.03765354897154118
163.327,0.03792473178176174,-0.03792473178176174
163.328,0.030852426912635133,-0.030852426912635133
163.329,0.017890307739136652,-0.017890307739136652
163.33,0.0019419594086448886,-0.0019419594086448886
163.33100000000002,0.013381967560091173,0.013381967560091173
163.33200000000002,0.02470782687193766,0.02470782687193766
163.333,0.029778911703118353,0.029778911703118353
163.334,0.02802109414036443,0.02802109414036443
163.335,0.020634161929998607,0.020634161929998607
163.336,0.010187466522623105,0.010187466522623105
163.33700000000002,0.00015626655985619955,-0.00015626655985619955
163.33800000000002,0.007557445753126534,-0.007557445753126534
163.339,0.01028745134244102,-0.01028745134244102
163.34,0.008162359684269913,-0.008162359684269913
163.341,0.0025073691543742913,-0.0025073691543742913
163.342,0.004320987539418333,0.004320987539418333
163.34300000000002,0.00969743526528769,0.00969743526528769
163.344,0.011538843243225917,0.011538843243225917
163.345,0.008921457330051258,0.008921457330051258
163.346,0.00232980280715308,0.00232980280715308
163.347,0.006520693440318419,-0.006520693440318419
163.348,0.015216630423767667,-0.015216630423767667
163.34900000000002,0.021363174398249807,-0.021363174398249807
163.35,0.023267566521993254,-0.023267566521993254
163.351,0.020394859565382555,-0.020394859565382555
163.352,0.013478877292305527,-0.013478877292305527
163.353,0.0042779009152312765,-0.0042779009152312765
163.354,0.004933888539360293,0.004933888539360293
163.35500000000002,0.011981178321106926,0.011981178321106926
163.356,0.01533451761902932,0.01533451761902932
163.357,0.014450276858600427,0.014450276858600427
163.358,0.009834227166887831,0.009834227166887831
163.359,0.0028403133789276463,0.0028403133789276463
163.36,0.0047162914632236305,-0.0047162914632236305
163.36100000000002,0.011015743253630148,-0.011015743253630148
163.362,0.01464261579368955,-0.01464261579368955
163.363,0.014859613389769561,-0.014859613389769561
163.364,0.011703760094338508,-0.011703760094338508
163.365,0.005909739751856184,-0.005909739751856184
163.366,0.0012992658164399835,0.0012992658164399835
163.36700000000002,0.008494160028903495,0.008494160028903495
163.368,0.014334293005734336,0.014334293005734336
163.369,0.0178205441538733,0.0178205441538733
163.37,0.01846789683165365,0.01846789683165365
163.371,0.01637334095027592,0.01637334095027592
163.372,0.01217017496225652,0.01217017496225652
163.37300000000002,0.006876113418157837,0.006876113418157837
163.374,0.00166077670782066,0.00166077670782066
163.375,0.002423410714898696,-0.002423410714898696
163.376,0.004688746478612748,-0.004688746478612748
163.377,0.004976580618956301,-0.004976580618956301
163.37800000000001,0.0036893776647027306,-0.0036893776647027306
163.37900000000002,0.0016709903228997768,-0.0016709903228997768
163.38,4.3168749630178465e-05,4.3168749630178465e-05
163.381,0.0005428169584682738,0.0005428169584682738
163.382,0.0006646588137256594,-0.0006646588137256594
163.383,0.0034788644255114255,-0.0034788644255114255
163.38400000000001,0.007212892265701967,-0.007212892265701967
163.38500000000002,0.01079292365802407,-0.01079292365802407
163.386,0.013099210953004994,-0.013099210953004994
163.387,0.01334477465911651,-0.01334477465911651
163.388,0.011366544322605997,-0.011366544322605997
163.389,0.0077230160257643074,-0.0077230160257643074
163.39000000000001,0.003550017417722886,-0.003550017417722886
163.39100000000002,0.00020534937049599653,-0.00020534937049599653
163.392,0.001191721483352531,0.001191721483352531
163.393,0.00017535516897634974,0.00017535516897634974
163.394,0.0028447552720643195,-0.0028447552720643195
163.395,0.0066467478041439725,-0.0066467478041439725
163.39600000000002,0.009547693271387984,-0.009547693271387984
163.39700000000002,0.009946792532128495,-0.009946792532128495
163.398,0.006892553610566096,-0.006892553610566096
163.399,0.0004851299791047452,-0.0004851299791047452
163.4,0.008033639685170105,0.008033639685170105
163.401,0.016556682962974044,0.016556682962974044
163.40200000000002,0.022691869957170315,0.022691869957170315
163.40300000000002,0.024480101363109973,0.024480101363109973
163.404,0.021031114125453224,0.021031114125453224
163.405,0.01287122827677759,0.01287122827677759
163.406,0.0018787131313110703,0.0018787131313110703
163.407,0.009192896394175646,-0.009192896394175646
163.40800000000002,0.017474086991548492,-0.017474086991548492
163.40900000000002,0.02079954469018476,-0.02079954469018476
163.41,0.018342523364104656,-0.018342523364104656
163.411,0.010868407671377008,-0.010868407671377008
163.412,0.0005258469156632306,-0.0005258469156632306
163.413,0.009766042707134383,0.009766042707134383
163.41400000000002,0.01715280856440495,0.01715280856440495
163.41500000000002,0.019653063068146015,0.019653063068146015
163.416,0.01670036917193099,0.01670036917193099
163.417,0.009261693584490182,0.009261693584490182
163.418,0.0004943064611098168,-0.0004943064611098168
163.419,0.00986932044935465,-0.00986932044935465
163.42000000000002,0.016437371282154525,-0.016437371282154525
163.42100000000002,0.018732416124822952,-0.018732416124822952
163.422,0.016619013069403315,-0.016619013069403315
163.423,0.01124637741102534,-0.01124637741102534
163.424,0.004616725326885272,-0.004616725326885272
163.425,0.0010841025056276584,0.0010841025056276584
163.42600000000002,0.004177998793379193,0.004177998793379193
163.42700000000002,0.0039932731310440405,0.0039932731310440405
163.428,0.00102340675447758,0.00102340675447758
163.429,0.003290682786305907,-0.003290682786305907
163.43,0.007073144123310377,-0.007073144123310377
163.431,0.008649708649912184,-0.008649708649912184
163.43200000000002,0.0071042162001626,-0.0071042162001626
163.43300000000002,0.002582045819170655,-0.002582045819170655
163.434,0.0037492777206211757,0.0037492777206211757
163.435,0.010063555036890165,0.010063555036890165
163.436,0.014445196821942383,0.014445196821942383
163.437,0.015485573763039141,0.015485573763039141
163.43800000000002,0.012723327802450191,0.012723327802450191
163.43900000000002,0.006796777739554559,0.006796777739554559
163.44,0.0007338955863660684,-0.0007338955863660684
163.441,0.007837257431015264,-0.007837257431015264
163.442,0.01259676341163445,-0.01259676341163445
163.443,0.013758291839100956,-0.013758291839100956
163.44400000000002,0.011080392356554088,-0.011080392356554088
163.44500000000002,0.005390051713533482,-0.005390051713533482
163.446,0.0016653709426799155,0.0016653709426799155
163.447,0.008091706062900871,0.008091706062900871
163.448,0.012106628002683528,0.012106628002683528
163.449,0.012623509816329774,0.012623509816329774
163.45000000000002,0.009527634014699247,0.009527634014699247
163.45100000000002,0.0036758265921367065,0.0036758265921367065
163.452,0.0033685608819268922,-0.0033685608819268922
163.453,0.009779571645234766,-0.009779571645234766
163.454,0.013959850175630353,-0.013959850175630353
163.455,0.01494152730272008,-0.01494152730272008
163.45600000000002,0.012592857444696261,-0.012592857444696261
163.45700000000002,0.007588238069035878,-0.007588238069035878
163.458,0.001169201662920422,-0.001169201662920422
163.459,0.005218751251678397,0.005218751251678397
163.46,0.010300341416961211,0.010300341416961211
163.461,0.013250126878172638,0.013250126878172638
163.46200000000002,0.013810809710389617,0.013810809710389617
163.46300000000002,0.012239645737661065,0.012239645737661065
163.464,0.00912693064943567,0.00912693064943567
163.465,0.005165940957065387,0.005165940957065387
163.466,0.0009593606546922373,0.0009593606546922373
163.467,0.0030771438647148428,-0.0030771438647148428
163.46800000000002,0.006697928130184966,-0.006697928130184966
163.469,0.009728324149857422,-0.009728324149857422
163.47,0.011948096448788588,-0.011948096448788588
163.471,0.013028225757419696,-0.013028225757419696
163.472,0.012568555900355246,-0.012568555900355246
163.473,0.010239286928742526,-0.010239286928742526
163.47400000000002,0.0059800797278013774,-0.0059800797278013774
163.475,0.0001758066608940865,-0.0001758066608940865
163.476,0.006277460493629289,0.006277460493629289
163.477,0.012074021559861751,0.012074021559861751
163.478,0.015770431422679625,0.015770431422679625
163.479,0.016167016656246612,0.016167016656246612
163.48000000000002,0.012689121155761127,0.012689121155761127
163.481,0.005642451760177307,0.005642451760177307
163.482,0.0037565177734669958,-0.0037565177734669958
163.483,0.013610774789316073,-0.013610774789316073
163.484,0.02178811826038221,-0.02178811826038221
163.485,0.026463557449379102,-0.026463557449379102
163.48600000000002,0.02660198634665192,-0.02660198634665192
163.487,0.022234629955692604,-0.022234629955692604
163.488,0.014441157915924843,-0.014441157915924843
163.489,0.005038605711316666,-0.005038605711316666
163.49,0.0039301892059285725,0.0039301892059285725
163.491,0.0107524300600431,0.0107524300600431
163.49200000000002,0.01447569377439348,0.01447569377439348
163.493,0.015084782636057592,0.015084782636057592
163.494,0.01338106716874696,0.01338106716874696
163.495,0.010618431770180285,0.010618431770180285
163.496,0.008029017009808365,0.008029017009808365
163.497,0.006404869798582684,0.006404869798582684
163.49800000000002,0.005876985830387789,0.005876985830387789
163.499,0.005959668311736144,0.005959668311736144
163.5,0.005831514093246505,0.005831514093246505
163.501,0.004738920119941348,0.004738920119941348
163.502,0.0023643352119968393,0.0023643352119968393
163.50300000000001,0.0009845394307980062,-0.0009845394307980062
163.50400000000002,0.004441454788388975,-0.004441454788388975
163.505,0.006885059458786062,-0.006885059458786062
163.506,0.007369603508148158,-0.007369603508148158
163.507,0.005522044979719261,-0.005522044979719261
163.508,0.0017518896153252425,-0.0017518896153252425
163.50900000000001,0.0028155682956486263,0.0028155682956486263
163.51000000000002,0.006672777915845358,0.006672777915845358
163.511,0.008421965538063247,0.008421965538063247
163.512,0.0072557149967936475,0.0072557149967936475
163.513,0.0032546382140531066,0.0032546382140531066
163.514,0.0026086608378279195,-0.0026086608378279195
163.51500000000001,0.00876794273491536,-0.00876794273491536
163.51600000000002,0.013565122330714512,-0.013565122330714512
163.517,0.015782672490298962,-0.015782672490298962
163.518,0.015020905405807826,-0.015020905405807826
163.519,0.011788254046720441,-0.011788254046720441
163.52,0.007274862234693729,-0.007274862234693729
163.52100000000002,0.0028939083827989763,-0.0028939083827989763
163.52200000000002,0.00024026324566288036,0.00024026324566288036
163.523,0.0017043218704194452,0.0017043218704194452
163.524,0.001882282190208571,0.001882282190208571
163.525,0.0017611393356876638,0.0017611393356876638
163.526,0.002480602773003323,0.002480602773003323
163.52700000000002,0.004806027632225098,0.004806027632225098
163.52800000000002,0.00872731955040632,0.00872731955040632
163.529,0.01334583137588268,0.01334583137588268
163.53,0.01710922240820234,0.01710922240820234
163.531,0.0183267685664335,0.0183267685664335
163.532,0.015790653678393014,0.015790653678393014
163.53300000000002,0.009281877212827767,0.009281877212827767
163.53400000000002,0.00022878992392775583,-0.00022878992392775583
163.535,0.01077332242696282,-0.01077332242696282
163.536,0.01992526324367717,-0.01992526324367717
163.537,0.025515083079213213,-0.025515083079213213
163.538,0.026286663402292014,-0.026286663402292014
163.53900000000002,0.022275001094786816,-0.022275001094786816
163.54000000000002,0.014777506718057557,-0.014777506718057557
163.541,0.005928588031144527,-0.005928588031144527
163.542,0.001978360639652527,0.001978360639652527
163.543,0.007193048803738116,0.007193048803738116
163.544,0.009001111619926205,0.009001111619926205
163.54500000000002,0.007850370243852526,0.007850370243852526
163.54600000000002,0.005082835622205142,0.005082835622205142
163.547,0.0023816926358189907,0.0023816926358189907
163.548,0.0011382892692035624,0.0011382892692035624
163.549,0.001965429588968439,0.001965429588968439
163.55,0.004523655629195566,0.004523655629195566
163.55100000000002,0.007709422973976747,0.007709422973976747
163.55200000000002,0.010121517702417138,0.010121517702417138
163.553,0.010622919826657737,0.010622919826657737
163.554,0.008785065268675276,0.008785065268675276
163.555,0.005050064230545552,0.005050064230545552
163.556,0.0005549447949121606,0.0005549447949121606
163.55700000000002,0.003310307946112867,-0.003310307946112867
163.55800000000002,0.005439650428879537,-0.005439650428879537
163.559,0.005436888563152403,-0.005436888563152403
163.56,0.003767296431907309,-0.003767296431907309
163.561,0.0015753828354583912,-0.0015753828354583912
163.562,0.00023534297073234443,-0.00023534297073234443
163.56300000000002,0.0008022638000677484,-0.0008022638000677484
163.56400000000002,0.003571327690366514,-0.003571327690366514
163.565,0.0079143669210267,-0.0079143669210267
163.566,0.012461921960862663,-0.012461921960862663
163.567,0.015571590199148881,-0.015571590199148881
163.568,0.015916756684072428,-0.015916756684072428
163.56900000000002,0.01298308522578327,-0.01298308522578327
163.57000000000002,0.007290778241513428,-0.007290778241513428
163.571,0.00025766400861706404,-0.00025766400861706404
163.572,0.006253517486176167,0.006253517486176167
163.573,0.010547172510837302,0.010547172510837302
163.574,0.011652767635067628,0.011652767635067628
163.57500000000002,0.009634481676538771,0.009634481676538771
163.57600000000002,0.005546846487170223,0.005546846487170223
163.577,0.0010557634057989933,0.0010557634057989933
163.578,0.002138955104872366,-0.002138955104872366
163.579,0.0028765333363364497,-0.0028765333363364497
163.58,0.0009067579857745884,-0.0009067579857745884
163.58100000000002,0.00306145796835588,0.00306145796835588
163.58200000000002,0.007639770487990547,0.007639770487990547
163.583,0.011259016636811942,0.011259016636811942
163.584,0.012705200048990162,0.012705200048990162
163.585,0.011505979789500378,0.011505979789500378
163.586,0.008041933168478548,0.008041933168478548
163.58700000000002,0.0033600514576452535,0.0033600514576452535
163.58800000000002,0.001226658376972931,-0.001226658376972931
163.589,0.004598541055976494,-0.004598541055976494
163.59,0.00618122846423828,-0.00618122846423828
163.591,0.0060732574648176794,-0.0060732574648176794
163.592,0.004921884361425802,-0.004921884361425802
163.59300000000002,0.0036139056606315466,-0.0036139056606315466
163.594,0.002912163071639183,-0.002912163071639183
163.595,0.003179443345845905,-0.003179443345845905
163.596,0.004288151896821043,-0.004288151896821043
163.597,0.005735614603866821,-0.005735614603866821
163.598,0.006902978583319403,-0.006902978583319403
163.59900000000002,0.0073423087840531415,-0.0073423087840531415
163.6,0.006971245872825987,-0.006971245872825987
163.601,0.006097686288338958,-0.006097686288338958
163.602,0.005269608752404948,-0.005269608752404948
163.603,0.005017555704894148,-0.005017555704894148
163.604,0.005600445742174714,-0.005600445742174714
163.60500000000002,0.006862700774576613,-0.006862700774576613
163.606,0.00826409769858579,-0.00826409769858579
163.607,0.009072769939572754,-0.009072769939572754
163.608,0.008645319797398372,-0.008645319797398372
163.609,0.006682771927228375,-0.006682771927228375
163.61,0.0033609440973063212,-0.0033609440973063212
163.61100000000002,0.0007157048661297578,0.0007157048661297578
163.612,0.004717336101649739,0.004717336101649739
163.613,0.00786806598375149,0.00786806598375149
163.614,0.009692281097485211,0.009692281097485211
163.615,0.010135335091463374,0.010135335091463374
163.616,0.009519798310712575,0.009519798310712575
163.61700000000002,0.008366888386173721,0.008366888386173721
163.618,0.007167220997377592,0.007167220997377592
163.619,0.006202707960566976,0.006202707960566976
163.62,0.0054947582511671615,0.0054947582511671615
163.621,0.004894107369112661,0.004894107369112661
163.622,0.0042602417174706034,0.0042602417174706034
163.62300000000002,0.0036331290511785607,0.0036331290511785607
163.624,0.0032980194222684135,0.0032980194222684135
163.625,0.003688853357947828,0.003688853357947828
163.626,0.005150583111158434,0.005150583111158434
163.627,0.007654577130371847,0.007654577130371847
163.62800000000001,0.010601329370509926,0.010601329370509926
163.62900000000002,0.012829728931354391,0.012829728931354391
163.63,0.012882386585814715,0.012882386585814715
163.631,0.00947518278028513,0.00947518278028513
163.632,0.0020248102781143334,0.0020248102781143334
163.633,0.008959977952919479,-0.008959977952919479
163.63400000000001,0.021794952042696082,-0.021794952042696082
163.63500000000002,0.03392414715820016,-0.03392414715820016
163.636,0.042557127009322536,-0.042557127009322536
163.637,0.04545933832186871,-0.04545933832186871
163.638,0.04164285159767185,-0.04164285159767185
163.639,0.031718369368827375,-0.031718369368827375
163.64000000000001,0.017770115383556398,-0.017770115383556398
163.64100000000002,0.0027719634422715468,-0.0027719634422715468
163.642,0.010277844726847297,0.010277844726847297
163.643,0.019222366582729696,0.019222366582729696
163.644,0.023322753994036168,0.023322753994036168
163.645,0.023351123465822375,0.023351123465822375
163.64600000000002,0.021170871263944655,0.021170871263944655
163.64700000000002,0.01895663550089375,0.01895663550089375
163.648,0.018336192683444812,0.018336192683444812
163.649,0.01976716360249881,0.01976716360249881
163.65,0.0223786847530072,0.0223786847530072
163.651,0.02433955761360432,0.02433955761360432
163.65200000000002,0.02361959744067956,0.02361959744067956
163.65300000000002,0.018861076711456128,0.018861076711456128
163.654,0.010028821081734748,0.010028821081734748
163.655,0.0014187070633537668,-0.0014187070633537668
163.656,0.012923055707673454,-0.012923055707673454
163.657,0.021660716662289057,-0.021660716662289057
163.65800000000002,0.0255260165967931,-0.0255260165967931
163.65900000000002,0.023902234394810148,-0.023902234394810148
163.66,0.017926127635866075,-0.017926127635866075
163.661,0.010127420833866136,-0.010127420833866136
163.662,0.0035510381039176174,-0.0035510381039176174
163.663,0.0006641368145446681,-0.0006641368145446681
163.66400000000002,0.0024398293897564304,-0.0024398293897564304
163.66500000000002,0.007958623082147936,-0.007958623082147936
163.666,0.014691366941416041,-0.014691366941416041
163.667,0.019384850395643877,-0.019384850395643877
163.668,0.019249719098964328,-0.019249719098964328
163.669,0.013031246726256714,-0.013031246726256714
163.67000000000002,0.0015727707386776093,-0.0015727707386776093
163.67100000000002,0.012347456338749495,0.012347456338749495
163.672,0.02487090603562961,0.02487090603562961
163.673,0.03232188302576599,0.03232188302576599
163.674,0.03244402414285973,0.03244402414285973
163.675,0.025175584795964105,0.025175584795964105
163.67600000000002,0.012684671336684848,0.012684671336684848
163.67700000000002,0.0013565376362661662,-0.0013565376362661662
163.678,0.013010363949618783,-0.013010363949618783
163.679,0.019392651860394693,-0.019392651860394693
163.68,0.019607984668009903,-0.019607984668009903
163.681,0.014970510334025676,-0.014970510334025676
163.68200000000002,0.008433036339654719,-0.008433036339654719
163.68300000000002,0.0034303132273458847,-0.0034303132273458847
163.684,0.0025542980150434244,-0.0025542980150434244
163.685,0.006542808310051867,-0.006542808310051867
163.686,0.01395395804509795,-0.01395395804509795
163.687,0.021654526706780072,-0.021654526706780072
163.68800000000002,0.02595734763671237,-0.02595734763671237
163.68900000000002,0.02400568320218382,-0.02400568320218382
163.69,0.01490706917306585,-0.01490706917306585
163.691,0.00020092445618379696,-0.00020092445618379696
163.692,0.01652420855014098,0.01652420855014098
163.693,0.030747952292950208,0.030747952292950208
