Czas,AbsSum,Sum
25.610000000000003,0.02659359076618504,0.02659359076618504
25.611,0.03892115939197935,0.03892115939197935
25.612000000000002,0.04760055007334476,0.04760055007334476
25.613000000000003,0.050396202114759314,0.050396202114759314
25.614,0.046129865972298116,0.046129865972298116
25.615000000000002,0.03490804167006858,0.03490804167006858
25.616000000000003,0.01809380166995689,0.01809380166995689
25.617,0.0019442505501557762,-0.0019442505501557762
25.618000000000002,0.022240159004252587,-0.022240159004252587
25.619000000000003,0.03971752706502192,-0.03971752706502192
25.62,0.05167931887568381,-0.05167931887568381
25.621000000000002,0.056234848978844565,-0.056234848978844565
25.622000000000003,0.05260994846464545,-0.05260994846464545
25.623,0.04129769573892647,-0.04129769573892647
25.624000000000002,0.024020549771865764,-0.024020549771865764
25.625,0.0034943463219547083,-0.0034943463219547083
25.626,0.016987172190733094,0.016987172190733094
25.627000000000002,0.03409396538390509,0.03409396538390509
25.628,0.045040451728064236,0.045040451728064236
25.629,0.04809659108599431,0.04809659108599431
25.630000000000003,0.04292074768182743,0.04292074768182743
25.631,0.030633425849812185,0.030633425849812185
25.632,0.013603062579067496,0.013603062579067496
25.633000000000003,0.005019822377993311,-0.005019822377993311
25.634,0.021922810466635353,-0.021922810466635353
25.635,0.03426954080842756,-0.03426954080842756
25.636000000000003,0.04021372076043386,-0.04021372076043386
25.637,0.039179087425462306,-0.039179087425462306
25.638,0.031855321492059,-0.031855321492059
25.639000000000003,0.019931598255809604,-0.019931598255809604
25.64,0.005652413961333238,-0.005652413961333238
25.641000000000002,0.008682792353908503,0.008682792353908503
25.642000000000003,0.021152916354785646,0.021152916354785646
25.643,0.030489542522034837,0.030489542522034837
25.644000000000002,0.036153670307074115,0.036153670307074115
25.645000000000003,0.03823360342969144,0.03823360342969144
25.646,0.03722755087232718,0.03722755087232718
25.647000000000002,0.033794884379265734,0.033794884379265734
25.648000000000003,0.028553068119511155,0.028553068119511155
25.649,0.021968789002042823,0.021968789002042823
25.650000000000002,0.014353472759205083,0.014353472759205083
25.651000000000003,0.005938346560902231,0.005938346560902231
25.652,0.003017282275313857,-0.003017282275313857
25.653000000000002,0.012134446489963169,-0.012134446489963169
25.654000000000003,0.02087720134010644,-0.02087720134010644
25.655,0.028585414391369277,-0.028585414391369277
25.656000000000002,0.03457054467731609,-0.03457054467731609
25.657,0.038249732879089185,-0.038249732879089185
25.658,0.03928468194628653,-0.03928468194628653
25.659000000000002,0.03769150778225789,-0.03769150778225789
25.66,0.03389360572610583,-0.03389360572610583
25.661,0.028698921389912712,-0.028698921389912712
25.662000000000003,0.023194286903306268,-0.023194286903306268
25.663,0.018562576197174403,-0.018562576197174403
25.664,0.015843722590282598,-0.015843722590282598
25.665000000000003,0.015677386505517314,-0.015677386505517314
25.666,0.018080132761563124,-0.018080132761563124
25.667,0.02231785453330772,-0.02231785453330772
25.668000000000003,0.026928579659226223,-0.026928579659226223
25.669,0.02992751185608837,-0.02992751185608837
25.67,0.02918601379813369,-0.02918601379813369
25.671000000000003,0.02292669632389876,-0.02292669632389876
25.672,0.010231165863140771,-0.010231165863140771
25.673000000000002,0.008568946491224283,0.008568946491224283
25.674000000000003,0.03174036649285513,0.03174036649285513
25.675,0.056314580242505526,0.056314580242505526
25.676000000000002,0.07857609610010423,0.07857609610010423
25.677000000000003,0.09478887673276463,0.09478887673276463
25.678,0.10200187617882739,0.10200187617882739
25.679000000000002,0.09873589352451936,0.09873589352451936
25.680000000000003,0.08536783070868569,0.08536783070868569
25.681,0.06409609034928405,0.06409609034928405
25.682000000000002,0.03847677872770647,0.03847677872770647
25.683000000000003,0.012635919343530658,0.012635919343530658
25.684,0.00964567851187311,-0.00964567851187311
25.685000000000002,0.025739278163310255,-0.025739278163310255
25.686000000000003,0.03465837860994239,-0.03465837860994239
25.687,0.03711110250991404,-0.03711110250991404
25.688000000000002,0.03511655306471947,-0.03511655306471947
25.689,0.031309027039225334,-0.031309027039225334
25.69,0.028138866515285264,-0.028138866515285264
25.691000000000003,0.02720091894576168,-0.02720091894576168
25.692,0.028874871244137516,-0.028874871244137516
25.693,0.032361309893271385,-0.032361309893271385
25.694000000000003,0.0360750053306999,-0.0360750053306999
25.695,0.03825084442421969,-0.03825084442421969
25.696,0.037560493596523484,-0.037560493596523484
25.697000000000003,0.03354566543614304,-0.03354566543614304
25.698,0.026742129615444966,-0.026742129615444966
25.699,0.018473551662039428,-0.018473551662039428
25.700000000000003,0.01040101647888838,-0.01040101647888838
25.701,0.00398837253949478,-0.00398837253949478
25.702,6.26536319939825e-05,-6.26536319939825e-05
25.703000000000003,0.0013911570636179088,0.0013911570636179088
25.704,0.0011454006265967176,0.0011454006265967176
25.705000000000002,0.0003975737308254502,0.0003975737308254502
25.706000000000003,0.0003130895694180233,0.0003130895694180233
25.707,0.001601442346699814,0.001601442346699814
25.708000000000002,0.004266599356737497,0.004266599356737497
25.709000000000003,0.007609199432302288,0.007609199432302288
25.71,0.01047215367124731,0.01047215367124731
25.711000000000002,0.011641852558676974,0.011641852558676974
25.712000000000003,0.010270133709311062,0.010270133709311062
25.713,0.006181223201403662,0.006181223201403662
25.714000000000002,2.9178109603645493e-05,-2.9178109603645493e-05
25.715000000000003,0.007125238614908304,-0.007125238614908304
25.716,0.013542440467562469,-0.013542440467562469
25.717000000000002,0.0177771790879755,-0.0177771790879755
25.718000000000004,0.018737469642207138,-0.018737469642207138
25.719,0.015961048952988503,-0.015961048952988503
25.720000000000002,0.00965781530034524,-0.00965781530034524
25.721,0.000592081026081604,-0.000592081026081604
25.722,0.01013391972401643,0.01013391972401643
25.723000000000003,0.02131468030992797,0.02131468030992797
25.724,0.031824843267434205,0.031824843267434205
25.725,0.040715921632843856,0.040715921632843856
25.726000000000003,0.047232258378013925,0.047232258378013925
25.727,0.05078440785158313,0.05078440785158313
25.728,0.05092936854755893,0.05092936854755893
25.729000000000003,0.04739449488252445,0.04739449488252445
25.73,0.04015221001328087,0.04015221001328087
25.731,0.029519146252786573,0.029519146252786573
25.732000000000003,0.016230560062790847,0.016230560062790847
25.733,0.0014388445705601333,0.0014388445705601333
25.734,0.013394552423801165,-0.013394552423801165
25.735000000000003,0.026708644174768238,-0.026708644174768238
25.736,0.037110754085796144,-0.037110754085796144
25.737000000000002,0.043633964282268616,-0.043633964282268616
25.738000000000003,0.045912208052591226,-0.045912208052591226
25.739,0.044222286886449275,-0.044222286886449275
25.740000000000002,0.03938099112345829,-0.03938099112345829
25.741000000000003,0.03252887762091479,-0.03252887762091479
25.742,0.02486528584438233,-0.02486528584438233
25.743000000000002,0.01741069741646299,-0.01741069741646299
25.744000000000003,0.010859000897509236,-0.010859000897509236
25.745,0.005548816896233569,-0.005548816896233569
25.746000000000002,0.0015417748920354129,-0.0015417748920354129
25.747000000000003,0.0012390205612467168,0.0012390205612467168
25.748,0.0028733465004093335,0.0028733465004093335
25.749000000000002,0.003366869420267159,0.003366869420267159
25.75,0.002661371083380346,0.002661371083380346
25.751,0.0007237975436725026,0.0007237975436725026
25.752000000000002,0.0023273296352298864,-0.0023273296352298864
25.753,0.006116811514524406,-0.006116811514524406
25.754,0.00998285344998077,-0.00998285344998077
25.755000000000003,0.013051108790430206,-0.013051108790430206
25.756,0.014404908905673862,-0.014404908905673862
25.757,0.013308668915679127,-0.013308668915679127
25.758000000000003,0.009419774345419104,-0.009419774345419104
25.759,0.002923611715916807,-0.002923611715916807
25.76,0.005452912988770113,0.005452912988770113
25.761000000000003,0.014558896548611748,0.014558896548611748
25.762,0.023039508666141274,0.023039508666141274
25.763,0.029601438527145786,0.029601438527145786
25.764000000000003,0.03325602850998977,0.03325602850998977
25.765,0.033482628620106675,0.033482628620106675
25.766000000000002,0.030281375914262738,0.030281375914262738
25.767000000000003,0.024118248196130097,0.024118248196130097
25.768,0.015794572743022994,0.015794572743022994
25.769000000000002,0.006288940962766753,0.006288940962766753
25.770000000000003,0.003382484281293048,-0.003382484281293048
25.771,0.012258852180492157,-0.012258852180492157
25.772000000000002,0.01947796631345924,-0.01947796631345924
25.773000000000003,0.024291027538260512,-0.024291027538260512
25.774,0.026082197393762593,-0.026082197393762593
25.775000000000002,0.02442265490109174,-0.02442265490109174
25.776000000000003,0.019169771183454778,-0.019169771183454778
25.777,0.010594354314113787,-0.010594354314113787
25.778000000000002,0.0005070791814841283,0.0005070791814841283
25.779000000000003,0.012771836757709038,0.012771836757709038
25.78,0.024353605255027257,0.024353605255027257
25.781000000000002,0.033153029984649224,0.033153029984649224
25.782,0.0371801179493994,0.0371801179493994
25.783,0.034987288414333705,0.034987288414333705
25.784000000000002,0.02607687013697386,0.02607687013697386
25.785,0.011174014388053377,0.011174014388053377
25.786,0.007727724618963793,-0.007727724618963793
25.787000000000003,0.02759641422565201,-0.02759641422565201
25.788,0.04485213404931587,-0.04485213404931587
25.789,0.05603539625703996,-0.05603539625703996
25.790000000000003,0.05851842610608778,-0.05851842610608778
25.791,0.05110098553593866,-0.05110098553593866
25.792,0.03434746541554518,-0.03434746541554518
25.793000000000003,0.010573963515082276,-0.010573963515082276
25.794,0.016528267488702727,0.016528267488702727
25.795,0.04256206572908375,0.04256206572908375
25.796000000000003,0.06324546582509379,0.06324546582509379
25.797,0.07520706850442962,0.07520706850442962
25.798000000000002,0.07658463400391527,0.07658463400391527
25.799000000000003,0.06730448781921855,0.06730448781921855
25.8,0.04899735847725049,0.04899735847725049
25.801000000000002,0.024592898265388352,0.024592898265388352
25.802000000000003,0.002292796266894535,-0.002292796266894535
25.803,0.028023743190682023,-0.028023743190682023
25.804000000000002,0.04951574412365351,-0.04951574412365351
25.805000000000003,0.06460728438149864,-0.06460728438149864
25.806,0.07219114269488451,-0.07219114269488451
25.807000000000002,0.07213809860440797,-0.07213809860440797
25.808000000000003,0.06509486500345295,-0.06509486500345295
25.809,0.05225514737333249,-0.05225514737333249
25.810000000000002,0.03518247346204424,-0.03518247346204424
25.811000000000003,0.01571583108306592,-0.01571583108306592
25.812,0.004066591452891312,0.004066591452891312
25.813000000000002,0.021891949754277867,0.021891949754277867
25.814,0.03542217139353633,0.03542217139353633
25.815,0.04251739834561468,0.04251739834561468
25.816000000000003,0.04162520509278445,0.04162520509278445
25.817,0.03221986571657467,0.03221986571657467
25.818,0.015163808797830863,0.015163808797830863
25.819000000000003,0.007150930904074736,-0.007150930904074736
25.82,0.030988782826766256,-0.030988782826766256
25.821,0.051813023911165955,-0.051813023911165955
25.822000000000003,0.06511123562914063,-0.06511123562914063
25.823,0.06733605853762192,-0.06733605853762192
25.824,0.05673770020592635,-0.05673770020592635
25.825000000000003,0.03386906393032496,-0.03386906393032496
25.826,0.0016128020732512564,-0.0016128020732512564
25.827,0.03530400329644378,0.03530400329644378
25.828000000000003,0.07120938351023755,0.07120938351023755
25.829,0.10059197442600898,0.10059197442600898
25.830000000000002,0.1191493220706349,0.1191493220706349
25.831000000000003,0.12453327808125592,0.12453327808125592
25.832,0.11663176980646953,0.11663176980646953
25.833000000000002,0.09735361799956231,0.09735361799956231
25.834000000000003,0.07001477923519872,0.07001477923519872
25.835,0.038521434808791534,0.038521434808791534
25.836000000000002,0.0065801421606410445,0.0065801421606410445
25.837000000000003,0.022869750426514346,-0.022869750426514346
25.838,0.047896446566617686,-0.047896446566617686
25.839000000000002,0.06749759506424087,-0.06749759506424087
25.840000000000003,0.0813118125310095,-0.0813118125310095
25.841,0.08928096634768701,-0.08928096634768701
25.842000000000002,0.09141614606972648,-0.09141614606972648
25.843000000000004,0.08775718661282884,-0.08775718661282884
25.844,0.07852286650553837,-0.07852286650553837
25.845000000000002,0.06436144847993273,-0.06436144847993273
25.846,0.046561471560047266,-0.046561471560047266
25.847,0.027089136496953697,-0.027089136496953697
25.848000000000003,0.008379321262084261,-0.008379321262084261
25.849,0.007099486712160582,0.007099486712160582
25.85,0.01739413852653938,0.01739413852653938
25.851000000000003,0.02156098970460794,0.02156098970460794
25.852,0.019937816909637213,0.019937816909637213
25.853,0.014087018671041188,0.014087018671041188
25.854000000000003,0.006405352680551527,0.006405352680551527
25.855,0.0004961633569489376,-0.0004961633569489376
25.856,0.004460940280351389,-0.004460940280351389
25.857000000000003,0.004303703297962955,-0.004303703297962955
25.858,2.2631373766133584e-05,-2.2631373766133584e-05
25.859,0.007346916725215704,0.007346916725215704
25.860000000000003,0.01617268401070849,0.01617268401070849
25.861,0.024798766638796935,0.024798766638796935
25.862000000000002,0.03204924413522707,0.03204924413522707
25.863000000000003,0.037488349955914824,0.037488349955914824
25.864,0.04135351530511291,0.04135351530511291
25.865000000000002,0.04419872118046038,0.04419872118046038
25.866000000000003,0.046395570435445746,0.046395570435445746
25.867,0.0476989923649643,0.0476989923649643
25.868000000000002,0.047070575774945736,0.047070575774945736
25.869000000000003,0.04286708907780252,0.04286708907780252
25.87,0.03337166602120036,0.03337166602120036
25.871000000000002,0.0175138840487661,0.0175138840487661
25.872000000000003,0.00446168174477082,-0.00446168174477082
25.873,0.030628285927409536,-0.030628285927409536
25.874000000000002,0.05748540664820611,-0.05748540664820611
25.875,0.08057645509540386,-0.08057645509540386
25.876,0.09548718936734658,-0.09548718936734658
25.877000000000002,0.09896389091343233,-0.09896389091343233
25.878,0.08983237688241365,-0.08983237688241365
25.879,0.0694372917656696,-0.0694372917656696
25.880000000000003,0.041447798283994065,-0.041447798283994065
25.881,0.011054481817861726,-0.011054481817861726
25.882,0.01624059333165863,0.01624059333165863
25.883000000000003,0.035917419308719924,0.035917419308719924
25.884,0.04546421359210222,0.04546421359210222
25.885,0.044860537260242986,0.044860537260242986
25.886000000000003,0.0363977178709897,0.0363977178709897
25.887,0.023906772249070646,0.023906772249070646
25.888,0.011630535680909127,0.011630535680909127
25.889000000000003,0.0030703254569880056,0.0030703254569880056
25.89,0.00013146752570245923,0.00013146752570245923
25.891000000000002,0.0027904879145988462,0.0027904879145988462
25.892000000000003,0.009342906566517784,0.009342906566517784
25.893,0.01711587158225808,0.01711587158225808
25.894000000000002,0.02339781704584546,0.02339781704584546
25.895000000000003,0.026286731782797335,0.026286731782797335
25.896,0.02520192582277655,0.02520192582277655
25.897000000000002,0.02092425487722283,0.02092425487722283
25.898000000000003,0.015186113993057377,0.015186113993057377
25.899,0.009974654574410173,0.009974654574410173
25.900000000000002,0.006795334771838854,0.006795334771838854
25.901000000000003,0.006143811198049172,0.006143811198049172
25.902,0.007355146652363871,0.007355146652363871
25.903000000000002,0.008868553315309953,0.008868553315309953
25.904000000000003,0.008807254103015525,0.008807254103015525
25.905,0.005671523226066031,0.005671523226066031
25.906000000000002,0.0010897389143145863,-0.0010897389143145863
25.907,0.010818830441541064,-0.010818830441541064
25.908,0.021784904337404855,-0.021784904337404855
25.909000000000002,0.031669407163623854,-0.031669407163623854
25.91,0.03824272279302081,-0.03824272279302081
25.911,0.04001486492225501,-0.04001486492225501
25.912000000000003,0.036656025971385474,-0.036656025971385474
25.913,0.029061253111367646,-0.029061253111367646
25.914,0.019050351542440037,-0.019050351542440037
25.915000000000003,0.008810414432184586,-0.008810414432184586
25.916,0.00026641894415359876,-0.00026641894415359876
25.917,0.005419195965875754,0.005419195965875754
25.918000000000003,0.008067408435503121,0.008067408435503121
25.919,0.008371214956470833,0.008371214956470833
25.92,0.007511031053944528,0.007511031053944528
25.921000000000003,0.006644457246385847,0.006644457246385847
25.922,0.006454366108645377,0.006454366108645377
25.923000000000002,0.006912632563017398,0.006912632563017398
25.924000000000003,0.0073373891262589665,0.0073373891262589665
25.925,0.0067170749772246475,0.0067170749772246475
25.926000000000002,0.004180402858859108,0.004180402858859108
25.927000000000003,0.0005605868207812603,-0.0005605868207812603
25.928,0.006959659256790299,-0.006959659256790299
25.929000000000002,0.013678605634880924,-0.013678605634880924
25.930000000000003,0.01892390877335009,-0.01892390877335009
25.931,0.02097781709925195,-0.02097781709925195
25.932000000000002,0.018754434426488796,-0.018754434426488796
25.933000000000003,0.012197402093160031,-0.012197402093160031
25.934,0.002382102806105179,-0.002382102806105179
25.935000000000002,0.008722700196367937,0.008722700196367937
25.936000000000003,0.01877091238248395,0.01877091238248395
25.937,0.025680846769204596,0.025680846769204596
25.938000000000002,0.02820902504340487,0.02820902504340487
25.939,0.026281555148990107,0.026281555148990107
25.94,0.020982284913820183,0.020982284913820183
25.941000000000003,0.01420166372958255,0.01420166372958255
25.942,0.00805301736413996,0.00805301736413996
25.943,0.004231913523542879,0.004231913523542879
25.944000000000003,0.003508864967672575,0.003508864967672575
25.945,0.005502644932621543,0.005502644932621543
25.946,0.008795770096208471,0.008795770096208471
25.947000000000003,0.011352688777092711,0.011352688777092711
25.948,0.011115877564345263,0.011115877564345263
25.949,0.00661003527286568,0.00661003527286568
25.950000000000003,0.002609226983993856,-0.002609226983993856
25.951,0.015773800135025225,-0.015773800135025225
25.952,0.03102137298223456,-0.03102137298223456
25.953000000000003,0.045766238044202046,-0.045766238044202046
25.954,0.05721714171916032,-0.05721714171916032
25.955000000000002,0.06291463572589182,-0.06291463572589182
25.956000000000003,0.061175305582615615,-0.061175305582615615
25.957,0.051371303221941306,-0.051371303221941306
25.958000000000002,0.03402321583346327,-0.03402321583346327
25.959000000000003,0.0107251885073334,-0.0107251885073334
25.96,0.016057339507894466,0.016057339507894466
25.961000000000002,0.04327589674696176,0.04327589674696176
25.962000000000003,0.0676433305597981,0.0676433305597981
25.963,0.08601595916663819,0.08601595916663819
25.964000000000002,0.09579625063438654,0.09579625063438654
25.965000000000003,0.09532525958845892,0.09532525958845892
25.966,0.08421121649636636,0.08421121649636636
25.967000000000002,0.06352095225683488,0.06352095225683488
25.968000000000004,0.03575882863531559,0.03575882863531559
25.969,0.004583592918744074,0.004583592918744074
25.970000000000002,0.025732803884479852,-0.025732803884479852
25.971,0.05103064621071802,-0.05103064621071802
25.972,0.06803345651895407,-0.06803345651895407
25.973000000000003,0.07498925125410463,-0.07498925125410463
25.974,0.0720159696556707,-0.0720159696556707
25.975,0.06104445571107229,-0.06104445571107229
25.976000000000003,0.04535006914236566,-0.04535006914236566
25.977,0.028773862085502547,-0.028773862085502547
25.978,0.014823603901287237,-0.014823603901287237
25.979000000000003,0.005884846234805674,-0.005884846234805674
25.98,0.0027473952111076757,-0.0027473952111076757
25.981,0.004567243418964007,-0.004567243418964007
25.982000000000003,0.00926173296969685,-0.00926173296969685
25.983,0.014212583080695073,-0.014212583080695073
25.984,0.0170649751808384,-0.0170649751808384
25.985000000000003,0.016388095971008387,-0.016388095971008387
25.986,0.012010785322476373,-0.012010785322476373
25.987000000000002,0.004950263902470215,-0.004950263902470215
25.988000000000003,0.0030205159757542405,0.0030205159757542405
25.989,0.010010870378994344,0.010010870378994344
25.990000000000002,0.014641133196962993,0.014641133196962993
25.991000000000003,0.01645887937735628,0.01645887937735628
25.992,0.016015865085119704,0.016015865085119704
25.993000000000002,0.014594790998303504,0.014594790998303504
25.994000000000003,0.01369174523854096,0.01369174523854096
25.995,0.014439449924450223,0.014439449924450223
25.996000000000002,0.017172584800061674,0.017172584800061674
25.997000000000003,0.021284982299306927,0.021284982299306927
25.998,0.025427336639568143,0.025427336639568143
25.999000000000002,0.027977531887176974,0.027977531887176974
26.0,0.027622853496858814,0.027622853496858814
26.001,0.023855032642877003,0.023855032642877003
26.002000000000002,0.017207661759534275,0.017207661759534275
26.003,0.009150996111321114,0.009150996111321114
26.004,0.0016726745622394326,0.0016726745622394326
26.005000000000003,0.0033234062162985764,-0.0033234062162985764
26.006,0.00460811308914836,-0.00460811308914836
26.007,0.002019478276565824,-0.002019478276565824
26.008000000000003,0.003467413117932864,0.003467413117932864
26.009,0.010013235441787983,0.010013235441787983
26.01,0.015441842808573452,0.015441842808573452
26.011000000000003,0.01785661219455319,0.01785661219455319
26.012,0.016157412580495106,0.016157412580495106
26.013,0.01030785716482695,0.01030785716482695
26.014000000000003,0.0012865675056845296,0.0012865675056845296
26.015,0.009242698174848806,-0.009242698174848806
26.016000000000002,0.019422567865254547,-0.019422567865254547
26.017000000000003,0.027694296850940735,-0.027694296850940735
26.018,0.03314272661529215,-0.03314272661529215
26.019000000000002,0.03560585326181118,-0.03560585326181118
26.020000000000003,0.035544999606385096,-0.035544999606385096
26.021,0.03375019491072188,-0.03375019491072188
26.022000000000002,0.03100225419578007,-0.03100225419578007
26.023000000000003,0.027814293768908923,-0.027814293768908923
26.024,0.024333657416346702,-0.024333657416346702
26.025000000000002,0.020417999659880632,-0.020417999659880632
26.026000000000003,0.01583223310354685,-0.01583223310354685
26.027,0.010470565873860443,-0.010470565873860443
26.028000000000002,0.004504382621748496,-0.004504382621748496
26.029000000000003,0.0016080654701082007,0.0016080654701082007
26.03,0.007254855814602598,0.007254855814602598
26.031000000000002,0.011890866899779983,0.011890866899779983
26.032,0.015251833585644312,0.015251833585644312
26.033,0.01746713463224147,0.01746713463224147
26.034000000000002,0.01901316192254421,0.01901316192254421
26.035,0.020510483907745968,0.020510483907745968
26.036,0.0224314749284212,0.0224314749284212
26.037000000000003,0.02482680009958933,0.02482680009958933
26.038,0.027182599922567295,0.027182599922567295
26.039,0.02848224379028076,0.02848224379028076
26.040000000000003,0.02747868919737971,0.02747868919737971
26.041,0.023108338561770903,0.023108338561770903
26.042,0.014920729199293397,0.014920729199293397
26.043000000000003,0.003380827966319101,0.003380827966319101
26.044,0.010070030179352658,-0.010070030179352658
26.045,0.023240027490342024,-0.023240027490342024
26.046000000000003,0.03365810180981688,-0.03365810180981688
26.047,0.039170976932577185,-0.039170976932577185
26.048000000000002,0.03850216927779087,-0.03850216927779087
26.049000000000003,0.031613347600917434,-0.031613347600917434
26.05,0.019760604567698622,-0.019760604567698622
26.051000000000002,0.0052230084172106795,-0.0052230084172106795
26.052000000000003,0.00922713457978985,0.00922713457978985
26.053,0.02097097230364329,0.02097097230364329
26.054000000000002,0.02813466154631375,0.02813466154631375
26.055000000000003,0.029972371884779806,0.029972371884779806
26.056,0.02694884074771023,0.02694884074771023
26.057000000000002,0.020514881481405314,0.020514881481405314
26.058000000000003,0.012652959590734515,0.012652959590734515
26.059,0.005328190721920093,0.005328190721920093
26.060000000000002,2.5217045003222793e-06,-2.5217045003222793e-06
26.061000000000003,0.002696782823915311,-0.002696782823915311
26.062,0.002981967720200636,-0.002981967720200636
26.063000000000002,0.0017674805485954534,-0.0017674805485954534
26.064,0.00028895368770189006,-0.00028895368770189006
26.065,0.00029988314809498997,0.00029988314809498997
26.066000000000003,0.0007329395183942616,-0.0007329395183942616
26.067,0.003516793620542522,-0.003516793620542522
26.068,0.007593858703307526,-0.007593858703307526
26.069000000000003,0.012107867882305718,-0.012107867882305718
26.07,0.016094336459482824,-0.016094336459482824
26.071,0.01877597163113202,-0.01877597163113202
26.072000000000003,0.019772470385536613,-0.019772470385536613
26.073,0.01916590398363087,-0.01916590398363087
26.074,0.017410547429447778,-0.017410547429447778
26.075000000000003,0.015124677157071055,-0.015124677157071055
26.076,0.012837335303863438,-0.012837335303863438
26.077,0.01077553352203394,-0.01077553352203394
26.078000000000003,0.008763907966554416,-0.008763907966554416
26.079,0.006273887954336235,-0.006273887954336235
26.080000000000002,0.0026133501655733154,-0.0026133501655733154
26.081000000000003,0.002796240374203717,0.002796240374203717
26.082,0.010137520853175581,0.010137520853175581
26.083000000000002,0.01899829454675575,0.01899829454675575
26.084000000000003,0.028325504601454474,0.028325504601454474
26.085,0.03656215929495126,0.03656215929495126
26.086000000000002,0.041947642794808254,0.041947642794808254
26.087000000000003,0.042915430587435556,0.042915430587435556
26.088,0.03849173055286884,0.03849173055286884
26.089000000000002,0.028592715864024162,0.028592715864024162
26.090000000000003,0.014139104829735875,0.014139104829735875
26.091,0.0030500214526951665,-0.0030500214526951665
26.092000000000002,0.020568033880497754,-0.020568033880497754
26.093000000000004,0.035868890741835316,-0.035868890741835316
26.094,0.04675073709202092,-0.04675073709202092
26.095000000000002,0.0517644642683422,-0.0517644642683422
26.096,0.05045628792721102,-0.05045628792721102
26.097,0.04339581008186028,-0.04339581008186028
26.098000000000003,0.031994684621741834,-0.031994684621741834
26.099,0.018171329729806996,-0.018171329729806996
26.1,0.003950719616575964,-0.003950719616575964
26.101000000000003,0.00890325962906116,0.00890325962906116
26.102,0.019143132223675887,0.019143132223675887
26.103,0.026138513992413785,0.026138513992413785
26.104000000000003,0.029825119521989803,0.029825119521989803
26.105,0.030544655340082133,0.030544655340082133
26.106,0.028841015121766095,0.028841015121766095
26.107000000000003,0.02527904986383281,0.02527904986383281
26.108,0.02033294026289666,0.02033294026289666
26.109,0.014359944004418776,0.014359944004418776
26.110000000000003,0.007643378794142698,0.007643378794142698
26.111,0.0004668315213269465,0.0004668315213269465
26.112000000000002,0.006823751493556221,-0.006823751493556221
26.113000000000003,0.013801949020595604,-0.013801949020595604
26.114,0.01999597230254743,-0.01999597230254743
26.115000000000002,0.02496191920252357,-0.02496191920252357
26.116000000000003,0.028363610287299702,-0.028363610287299702
26.117,0.0300249747946171,-0.0300249747946171
26.118000000000002,0.0299331041087333,-0.0299331041087333
26.119000000000003,0.02819172172429633,-0.02819172172429633
26.12,0.02494705413988956,-0.02494705413988956
26.121000000000002,0.02032169601359069,-0.02032169601359069
26.122000000000003,0.014391011159630963,-0.014391011159630963
26.123,0.007220461602824333,-0.007220461602824333
26.124000000000002,0.001043483227696916,0.001043483227696916
26.125,0.01006195871523991,0.01006195871523991
26.126,0.019220510425373764,0.019220510425373764
26.127000000000002,0.027621132496136836,0.027621132496136836
26.128,0.03417666886367071,0.03417666886367071
26.129,0.03780208170698116,0.03780208170698116
26.130000000000003,0.0376622729900704,0.0376622729900704
26.131,0.03341110084358691,0.03341110084358691
26.132,0.025350234357046295,0.025350234357046295
26.133000000000003,0.01445279893739359,0.01445279893739359
26.134,0.002231322321136663,0.002231322321136663
26.135,0.00952788961923453,-0.00952788961923453
26.136000000000003,0.01910416033108285,-0.01910416033108285
26.137,0.025174726760853264,-0.025174726760853264
26.138,0.027060752585542053,-0.027060752585542053
26.139000000000003,0.024831657549490144,-0.024831657549490144
26.14,0.019250360282022906,-0.019250360282022906
26.141000000000002,0.011582522208555934,-0.011582522208555934
26.142000000000003,0.0033239414652553255,-0.0033239414652553255
26.143,0.0040862849020889425,0.0040862849020889425
26.144000000000002,0.0095053408567294,0.0095053408567294
26.145000000000003,0.012238913512919667,0.012238913512919667
26.146,0.012093929728687407,0.012093929728687407
26.147000000000002,0.009344586147775892,0.009344586147775892
26.148000000000003,0.0046391383287775236,0.0046391383287775236
26.149,0.0011229937115578945,-0.0011229937115578945
26.150000000000002,0.006922015672294948,-0.006922015672294948
26.151000000000003,0.011746096929678389,-0.011746096929678389
26.152,0.014715273564544013,-0.014715273564544013
26.153000000000002,0.015199886981701695,-0.015199886981701695
26.154000000000003,0.012925975198810004,-0.012925975198810004
26.155,0.008050100621489698,-0.008050100621489698
26.156000000000002,0.001179271640767835,-0.001179271640767835
26.157,0.006686208755688184,0.006686208755688184
26.158,0.014295489833875272,0.014295489833875272
26.159000000000002,0.020361429935504795,0.020361429935504795
26.16,0.023807725732715782,0.023807725732715782
26.161,0.023992931400311873,0.023992931400311873
26.162000000000003,0.020853060281375103,0.020853060281375103
26.163,0.014920384412649805,0.014920384412649805
26.164,0.007207124323752379,0.007207124323752379
26.165000000000003,0.0010199149148792841,-0.0010199149148792841
26.166,0.008515931943264428,-0.008515931943264428
26.167,0.01431273980896849,-0.01431273980896849
26.168000000000003,0.017885035190690898,-0.017885035190690898
26.169,0.019189483923256694,-0.019189483923256694
26.17,0.01857732581891653,-0.01857732581891653
26.171000000000003,0.016619752543574857,-0.016619752543574857
26.172,0.013909936279506142,-0.013909936279506142
26.173000000000002,0.010907998821890013,-0.010907998821890013
26.174000000000003,0.00787480622545933,-0.00787480622545933
26.175,0.004904693047176127,-0.004904693047176127
26.176000000000002,0.002029032292789665,-0.002029032292789665
26.177000000000003,0.0006640903652396611,0.0006640903652396611
26.178,0.0029540766058657815,0.0029540766058657815
26.179000000000002,0.004497508460714707,0.004497508460714707
26.180000000000003,0.004929492982732097,0.004929492982732097
26.181,0.004023264398537123,0.004023264398537123
26.182000000000002,0.0018459431874335802,0.0018459431874335802
26.183000000000003,0.0011580399356430956,-0.0011580399356430956
26.184,0.0042047235566481335,-0.0042047235566481335
26.185000000000002,0.006338512050091366,-0.006338512050091366
26.186000000000003,0.006692168067924024,-0.006692168067924024
26.187,0.004763470692791082,-0.004763470692791082
26.188000000000002,0.0006191090919710208,-0.0006191090919710208
26.189,0.005047947626227055,0.005047947626227055
26.19,0.011039828179512684,0.011039828179512684
26.191000000000003,0.015931550092316393,0.015931550092316393
26.192,0.018432978900876223,0.018432978900876223
26.193,0.017733988745190846,0.017733988745190846
26.194000000000003,0.013734086546821107,0.013734086546821107
26.195,0.007090554860121718,0.007090554860121718
26.196,0.0009279165899166139,-0.0009279165899166139
26.197000000000003,0.008739065111203953,-0.008739065111203953
26.198,0.014811807874911763,-0.014811807874911763
26.199,0.017998992568059615,-0.017998992568059615
26.200000000000003,0.017755259359014296,-0.017755259359014296
26.201,0.014196746393494174,-0.014196746393494174
26.202,0.008008319702138004,-0.008008319702138004
26.203000000000003,0.00024577579005269855,-0.00024577579005269855
26.204,0.007897917838430085,0.007897917838430085
26.205000000000002,0.01529688985536061,0.01529688985536061
26.206000000000003,0.021026332926220536,0.021026332926220536
26.207,0.024419610129333715,0.024419610129333715
26.208000000000002,0.02507169912305215,0.02507169912305215
26.209000000000003,0.022826161240675,0.022826161240675
26.21,0.017776767164270697,0.017776767164270697
26.211000000000002,0.010293006322306989,0.010293006322306989
26.212000000000003,0.0010517563223187104,0.0010517563223187104
26.213,0.008961634450231156,-0.008961634450231156
26.214000000000002,0.018520861448916837,-0.018520861448916837
26.215000000000003,0.026313739618053847,-0.026313739618053847
26.216,0.03117051651559976,-0.03117051651559976
26.217000000000002,0.03231621233279624,-0.03231621233279624
26.218000000000004,0.029575768612341177,-0.029575768612341177
26.219,0.02346230132510685,-0.02346230132510685
26.220000000000002,0.01510613604001107,-0.01510613604001107
26.221,0.006028126230381611,-0.006028126230381611
26.222,0.0021899855608053546,0.0021899855608053546
26.223000000000003,0.008250099194298378,0.008250099194298378
26.224,0.01140117301350233,0.01140117301350233
26.225,0.011549167002005522,0.011549167002005522
26.226000000000003,0.009189434531546694,0.009189434531546694
26.227,0.005194265708104483,0.005194265708104483
26.228,0.0005337976255853313,0.0005337976255853313
26.229000000000003,0.003973574132442515,-0.003973574132442515
26.23,0.0078015877355007415,-0.0078015877355007415
26.231,0.0107127891644573,-0.0107127891644573
26.232000000000003,0.012634487730693027,-0.012634487730693027
26.233,0.01348538708207432,-0.01348538708207432
26.234,0.013044773210832257,-0.013044773210832257
26.235000000000003,0.010939757403791892,-0.010939757403791892
26.236,0.0067774669831577854,-0.0067774669831577854
26.237000000000002,0.00038544221671984097,-0.00038544221671984097
26.238000000000003,0.007931201699861768,0.007931201699861768
26.239,0.01723088872974491,0.01723088872974491
26.240000000000002,0.025970517244192453,0.025970517244192453
26.241000000000003,0.03227043499394943,0.03227043499394943
26.242,0.03436484250519148,0.03436484250519148
26.243000000000002,0.031118374761136148,0.031118374761136148
26.244000000000003,0.022448811280398374,0.022448811280398374
26.245,0.009506567466820546,0.009506567466820546
26.246000000000002,0.005475430093292817,-0.005475430093292817
26.247000000000003,0.019650171809401828,-0.019650171809401828
26.248,0.0302301868689216,-0.0302301868689216
26.249000000000002,0.035181300034612915,-0.035181300034612915
26.25,0.03373502694942626,-0.03373502694942626
26.251,0.026565381669249946,-0.026565381669249946
26.252000000000002,0.015574027416634616,-0.015574027416634616
26.253,0.0033464356286900905,-0.0033464356286900905
26.254,0.007557126358400953,0.007557126358400953
26.255000000000003,0.01526174671939073,0.01526174671939073
26.256,0.018993056685491116,0.018993056685491116
26.257,0.019132278362077888,0.019132278362077888
26.258000000000003,0.0169136738892782,0.0169136738892782
26.259,0.013882638169012017,0.013882638169012017
26.26,0.01130787260657872,0.01130787260657872
26.261000000000003,0.009750618552167667,0.009750618552167667
26.262,0.008934692304842956,0.008934692304842956
26.263,0.007953239714311774,0.007953239714311774
26.264000000000003,0.005728568237286982,0.005728568237286982
26.265,0.00155119507709923,0.00155119507709923
26.266000000000002,0.004505344900222278,-0.004505344900222278
26.267000000000003,0.01145568271123272,-0.01145568271123272
26.268,0.01762232224953778,-0.01762232224953778
26.269000000000002,0.02114340921049438,-0.02114340921049438
26.270000000000003,0.020603620739491787,-0.020603620739491787
26.271,0.015573655754382696,-0.015573655754382696
26.272000000000002,0.006867063486893078,-0.006867063486893078
26.273000000000003,0.003587592755464603,0.003587592755464603
26.274,0.013235448679486768,0.013235448679486768
26.275000000000002,0.019601012382989186,0.019601012382989186
26.276000000000003,0.02099300168227738,0.02099300168227738
26.277,0.016988051033222755,0.016988051033222755
26.278000000000002,0.00854295326929338,0.00854295326929338
26.279000000000003,0.0022958523015550515,-0.0022958523015550515
26.28,0.012988547192997253,-0.012988547192997253
26.281000000000002,0.021212156840634343,-0.021212156840634343
26.282,0.025462677581142148,-0.025462677581142148
26.283,0.02537027214070562,-0.02537027214070562
26.284000000000002,0.02164933485671367,-0.02164933485671367
26.285,0.01572803910158343,-0.01572803910158343
26.286,0.009204852394820313,-0.009204852394820313
26.287000000000003,0.0033280370046445576,-0.0033280370046445576
26.288,0.0013265915121698395,0.0013265915121698395
26.289,0.004885003107870098,0.004885003107870098
26.290000000000003,0.007927191543352677,0.007927191543352677
26.291,0.0110784973381729,0.0110784973381729
26.292,0.014610991874900408,0.014610991874900408
26.293000000000003,0.018216423887111255,0.018216423887111255
26.294,0.021043093605221108,0.021043093605221108
26.295,0.021986235469158708,0.021986235469158708
26.296000000000003,0.02012300461147963,0.02012300461147963
26.297,0.015125179193609678,0.015125179193609678
26.298000000000002,0.0074866589729554655,0.0074866589729554655
26.299000000000003,0.0015322631619754602,-0.0015322631619754602
26.3,0.010239227100882656,-0.010239227100882656
26.301000000000002,0.01701475445173906,-0.01701475445173906
26.302000000000003,0.02081350854972301,-0.02081350854972301
26.303,0.021483007732630864,-0.021483007732630864
26.304000000000002,0.019781035071319647,-0.019781035071319647
26.305000000000003,0.017077411930819218,-0.017077411930819218
26.306,0.014838048045130654,-0.014838048045130654
26.307000000000002,0.014069377563597772,-0.014069377563597772
26.308000000000003,0.014920315523303786,-0.014920315523303786
26.309,0.016588775970937476,-0.016588775970937476
26.310000000000002,0.017576853699281105,-0.017576853699281105
26.311000000000003,0.016218018236185582,-0.016218018236185582
26.312,0.011302811395818652,-0.011302811395818652
26.313000000000002,0.0025904736660932724,-0.0025904736660932724
26.314,0.008973107603645456,0.008973107603645456
26.315,0.021416186366245933,0.021416186366245933
26.316000000000003,0.032241240174736195,0.032241240174736195
26.317,0.03911240964761785,0.03911240964761785
26.318,0.04051575399236087,0.04051575399236087
26.319000000000003,0.036185936236556575,0.036185936236556575
26.32,0.027168699900065277,0.027168699900065277
26.321,0.015505933190321754,0.015505933190321754
26.322000000000003,0.0036496670333227388,0.0036496670333227388
26.323,0.006206571688074603,-0.006206571688074603
26.324,0.01267220282194356,-0.01267220282194356
26.325000000000003,0.015422354112879844,-0.015422354112879844
26.326,0.015119883472636765,-0.015119883472636765
26.327,0.013050417719715903,-0.013050417719715903
26.328000000000003,0.010613092561786068,-0.010613092561786068
26.329,0.008846027666377829,-0.008846027666377829
26.330000000000002,0.008139731342609311,-0.008139731342609311
26.331000000000003,0.008215693177020795,-0.008215693177020795
26.332,0.008350172325183449,-0.008350172325183449
26.333000000000002,0.007739439287475312,-0.007739439287475312
26.334000000000003,0.005860926576950678,-0.005860926576950678
26.335,0.002697239810718481,-0.002697239810718481
26.336000000000002,0.0012506684427153704,0.0012506684427153704
26.337000000000003,0.0051524404361097615,0.0051524404361097615
26.338,0.008156135967555446,0.008156135967555446
26.339000000000002,0.009691848840352573,0.009691848840352573
26.340000000000003,0.009655867105275183,0.009655867105275183
26.341,0.008410723418363028,0.008410723418363028
26.342000000000002,0.006609358978825046,0.006609358978825046
26.343000000000004,0.004918759248309884,0.004918759248309884
26.344,0.0037547785086963683,0.0037547785086963683
26.345000000000002,0.0031325721911030016,0.0031325721911030016
26.346,0.002689845624576929,0.002689845624576929
26.347,0.001871625397517106,0.001871625397517106
26.348000000000003,0.00020175546870637343,0.00020175546870637343
26.349,0.0024681314297493387,-0.0024681314297493387
26.35,0.005833916301258561,-0.005833916301258561
26.351000000000003,0.009193786268650897,-0.009193786268650897
26.352,0.011669660466649271,-0.011669660466649271
26.353,0.012518240924989276,-0.012518240924989276
26.354000000000003,0.011418397739234176,-0.011418397739234176
26.355,0.008626802740293696,-0.008626802740293696
26.356,0.004938760553459291,-0.004938760553459291
26.357000000000003,0.0014598222148921721,-0.0014598222148921721
26.358,0.0007387718334024888,0.0007387718334024888
26.359,0.0009657349847780102,0.0009657349847780102
26.360000000000003,0.000860287806063855,-0.000860287806063855
26.361,0.004174100363828668,-0.004174100363828668
26.362000000000002,0.007932760739166003,-0.007932760739166003
26.363000000000003,0.010933046617683233,-0.010933046617683233
26.364,0.012172799011920194,-0.012172799011920194
26.365000000000002,0.01114025070447941,-0.01114025070447941
26.366000000000003,0.007943858672883695,-0.007943858672883695
26.367,0.0032517100980092774,-0.0032517100980092774
26.368000000000002,0.0019266037430797672,0.0019266037430797672
26.369000000000003,0.006534176312202053,0.006534176312202053
26.37,0.009738268752416072,0.009738268752416072
26.371000000000002,0.01109831481991537,0.01109831481991537
26.372000000000003,0.010594060778477606,0.010594060778477606
26.373,0.008530252761331562,0.008530252761331562
26.374000000000002,0.005375515054966728,0.005375515054966728
26.375,0.0016082622757951834,0.0016082622757951834
26.376,0.0023721138337220735,-0.0023721138337220735
26.377000000000002,0.006247076415714292,-0.006247076415714292
26.378,0.00971455012149631,-0.00971455012149631
26.379,0.012409812305360545,-0.012409812305360545
26.380000000000003,0.01386989061091791,-0.01386989061091791
26.381,0.013580027273751832,-0.013580027273751832
26.382,0.011103113454130096,-0.011103113454130096
26.383000000000003,0.006252947209624989,-0.006252947209624989
26.384,0.0007537008067322728,0.0007537008067322728
26.385,0.009231935827561124,0.009231935827561124
26.386000000000003,0.018090684306982834,0.018090684306982834
26.387,0.02601936514121018,0.02601936514121018
26.388,0.03175327453615742,0.03175327453615742
26.389000000000003,0.034343360529278714,0.034343360529278714
26.39,0.03335362827693193,0.03335362827693193
26.391000000000002,0.02893350304709397,0.02893350304709397
26.392000000000003,0.021753679680069908,0.021753679680069908
26.393,0.012836631911565985,0.012836631911565985
26.394000000000002,0.003341304054551525,0.003341304054551525
26.395000000000003,0.005634070320652372,-0.005634070320652372
26.396,0.013186412628118245,-0.013186412628118245
26.397000000000002,0.018668272704597047,-0.018668272704597047
26.398000000000003,0.0216953779109711,-0.0216953779109711
26.399,0.02213928139447773,-0.02213928139447773
26.400000000000002,0.02013756525920071,-0.02013756525920071
26.401000000000003,0.0161289066346445,-0.0161289066346445
26.402,0.010887797186477446,-0.010887797186477446
26.403000000000002,0.005510359385912162,-0.005510359385912162
26.404000000000003,0.0013023790223459354,-0.0013023790223459354
26.405,0.00045179649816748764,0.00045179649816748764
26.406000000000002,0.001187329785017947,-0.001187329785017947
26.407,0.006476820554018487,-0.006476820554018487
26.408,0.014750480913349134,-0.014750480913349134
26.409000000000002,0.024382576512259703,-0.024382576512259703
26.41,0.03301909455256203,-0.03301909455256203
26.411,0.038062812929173975,-0.038062812929173975
26.412000000000003,0.03731280675636663,-0.03731280675636663
26.413,0.029593711979347775,-0.029593711979347775
26.414,0.015190347335373356,-0.015190347335373356
26.415000000000003,0.004059012646986438,0.004059012646986438
26.416,0.025069263902445012,0.025069263902445012
26.417,0.044159603903500426,0.044159603903500426
26.418000000000003,0.05788909643888319,0.05788909643888319
26.419,0.06385524301946496,0.06385524301946496
26.42,0.06123757729888868,0.06123757729888868
26.421000000000003,0.050937728238114516,0.050937728238114516
26.422,0.03528265286172878,0.03528265286172878
26.423000000000002,0.0173834712717637,0.0173834712717637
26.424000000000003,0.0003394162639392223,0.0003394162639392223
26.425,0.01348523376282475,-0.01348523376282475
26.426000000000002,0.02291485449091746,-0.02291485449091746
26.427000000000003,0.028040348340043743,-0.028040348340043743
26.428,0.029933157943956665,-0.029933157943956665
26.429000000000002,0.03011598860313359,-0.03011598860313359
26.430000000000003,0.029975654656699657,-0.029975654656699657
26.431,0.030306095656469256,-0.030306095656469256
26.432000000000002,0.031112611706358668,-0.031112611706358668
26.433000000000003,0.03171371134968403,-0.03171371134968403
26.434,0.031077832894587362,-0.031077832894587362
26.435000000000002,0.02826133133673,-0.02826133133673
26.436000000000003,0.022792802491153858,-0.022792802491153858
26.437,0.014880293843513847,-0.014880293843513847
26.438000000000002,0.005387412556335874,-0.005387412556335874
26.439,0.004394851070336448,0.004394851070336448
26.44,0.013090033167474329,0.013090033167474329
26.441000000000003,0.019574753688518017,0.019574753688518017
26.442,0.023212812110022775,0.023212812110022775
26.443,0.0239319115572606,0.0239319115572606
26.444000000000003,0.022149594155881944,0.022149594155881944
26.445,0.018602745131525905,0.018602745131525905
26.446,0.01415479871893531,0.01415479871893531
26.447000000000003,0.009642726798497987,0.009642726798497987
26.448,0.0057912279587759245,0.0057912279587759245
26.449,0.003181965803815455,0.003181965803815455
26.450000000000003,0.002239684299644054,0.002239684299644054
26.451,0.003195983328756336,0.003195983328756336
26.452,0.006015171365509376,0.006015171365509376
26.453000000000003,0.010303122336251377,0.010303122336251377
26.454,0.015251181381199656,0.015251181381199656
26.455000000000002,0.019675981386513625,0.019675981386513625
26.456000000000003,0.022194472206950398,0.022194472206950398
26.457,0.02152634906042214,0.02152634906042214
26.458000000000002,0.016860028686462653,0.016860028686462653
26.459000000000003,0.008175816465437673,0.008175816465437673
26.46,0.003589489483787297,-0.003589489483787297
26.461000000000002,0.01661999442822678,-0.01661999442822678
26.462000000000003,0.02855615976311525,-0.02855615976311525
26.463,0.03702247551104626,-0.03702247551104626
26.464000000000002,0.04021283243585156,-0.04021283243585156
26.465000000000003,0.03736870219818774,-0.03736870219818774
26.466,0.029006350190049615,-0.029006350190049615
26.467000000000002,0.016817813844329663,-0.016817813844329663
26.468000000000004,0.0032656280446235354,-0.0032656280446235354
26.469,0.009017244345100794,0.009017244345100794
26.470000000000002,0.017853098442535874,0.017853098442535874
26.471,0.021996687052742662,0.021996687052742662
26.472,0.021339103145014766,0.021339103145014766
26.473000000000003,0.01680020161048302,0.01680020161048302
26.474,0.00996640587818963,0.00996640587818963
26.475,0.002602748567318374,0.002602748567318374
26.476000000000003,0.003805606159553659,-0.003805606159553659
26.477,0.008352624876707794,-0.008352624876707794
26.478,0.010787395216672145,-0.010787395216672145
26.479000000000003,0.011383529230262807,-0.011383529230262807
26.48,0.01068538942247587,-0.01068538942247587
26.481,0.009244745445397624,-0.009244745445397624
26.482000000000003,0.007447085294856945,-0.007447085294856945
26.483,0.005476609166895411,-0.005476609166895411
26.484,0.0034046242177935854,-0.0034046242177935854
26.485000000000003,0.0013336472744182452,-0.0013336472744182452
26.486,0.0004906856054318822,0.0004906856054318822
26.487000000000002,0.0016688630400978164,0.0016688630400978164
26.488000000000003,0.001757594666790493,0.001757594666790493
26.489,0.0004617970321710622,0.0004617970321710622
26.490000000000002,0.0021738769068558677,-0.0021738769068558677
26.491000000000003,0.005665748845275763,-0.005665748845275763
26.492,0.009146147202218938,-0.009146147202218938
26.493000000000002,0.011576522906285015,-0.011576522906285015
26.494000000000003,0.012057878828744173,-0.012057878828744173
26.495,0.010132718597356592,-0.010132718597356592
26.496000000000002,0.005966240767823083,-0.005966240767823083
26.497000000000003,0.0003312668396518438,-0.0003312668396518438
26.498,0.005610548940689866,0.005610548940689866
26.499000000000002,0.01066387525960275,0.01066387525960275
26.5,0.01397049755720551,0.01397049755720551
26.501,0.015264249013683045,0.015264249013683045
26.502000000000002,0.014916286136784753,0.014916286136784753
26.503,0.013750947114743116,0.013750947114743116
26.504,0.012696544905207984,0.012696544905207984
26.505000000000003,0.012398685976259004,0.012398685976259004
26.506,0.012941792650463545,0.012941792650463545
26.507,0.013789088849780045,0.013789088849780045
26.508000000000003,0.013973555415840451,0.013973555415840451
26.509,0.012479447628194744,0.012479447628194744
26.51,0.008679565195988786,0.008679565195988786
26.511000000000003,0.002665590133498341,0.002665590133498341
26.512,0.004660578825714743,-0.004660578825714743
26.513,0.011786375237277463,-0.011786375237277463
26.514000000000003,0.01702824557351485,-0.01702824557351485
26.515,0.01907170732521785,-0.01907170732521785
26.516000000000002,0.01742893899227871,-0.01742893899227871
26.517000000000003,0.012650739426529032,-0.012650739426529032
26.518,0.006207246429596446,-0.006207246429596446
26.519000000000002,6.182941616130391e-05,-6.182941616130391e-05
26.520000000000003,0.003932267192476958,0.003932267192476958
26.521,0.004619046750705313,0.004619046750705313
26.522000000000002,0.0019172632036831626,0.0019172632036831626
26.523000000000003,0.0031399268708386394,-0.0031399268708386394
26.524,0.008722366566861102,-0.008722366566861102
26.525000000000002,0.012779924336429124,-0.012779924336429124
26.526000000000003,0.013696433134424637,-0.013696433134424637
26.527,0.010812289210055283,-0.010812289210055283
26.528000000000002,0.0046498661292773665,-0.0046498661292773665
26.529000000000003,0.003228277774175275,0.003228277774175275
26.53,0.010681285757962703,0.010681285757962703
26.531000000000002,0.015624999011365976,0.015624999011365976
26.532,0.01664245849701031,0.01664245849701031
26.533,0.013385818715462742,0.013385818715462742
26.534000000000002,0.006656562920151482,0.006656562920151482
26.535,0.0018458458515622066,-0.0018458458515622066
26.536,0.01001585071302154,-0.01001585071302154
26.537000000000003,0.015916722251876018,-0.015916722251876018
26.538,0.018267932010658575,-0.018267932010658575
26.539,0.016715006365671973,-0.016715006365671973
26.540000000000003,0.011828886966019187,-0.011828886966019187
26.541,0.004867301145162446,-0.004867301145162446
26.542,0.002603711133425797,0.002603711133425797
26.543000000000003,0.009103231056937564,0.009103231056937564
26.544,0.013535222533075781,0.013535222533075781
26.545,0.01533423265791194,0.01533423265791194
26.546000000000003,0.014456073542435444,0.014456073542435444
26.547,0.011260870678901433,0.011260870678901433
26.548000000000002,0.006357577030085245,0.006357577030085245
26.549000000000003,0.00047040301144233773,0.00047040301144233773
26.55,0.0056430607436746315,-0.0056430607436746315
26.551000000000002,0.011228862517239264,-0.011228862517239264
26.552000000000003,0.015561401090051732,-0.015561401090051732
26.553,0.017992458519315673,-0.017992458519315673
26.554000000000002,0.018043016002244987,-0.018043016002244987
26.555000000000003,0.015525223553074839,-0.015525223553074839
26.556,0.010652915783743996,-0.010652915783743996
26.557000000000002,0.004086525430902722,-0.004086525430902722
26.558000000000003,0.003130287872925731,0.003130287872925731
26.559,0.009751961727187368,0.009751961727187368
26.560000000000002,0.014597130120319556,0.014597130120319556
26.561000000000003,0.01683013755738661,0.01683013755738661
26.562,0.016173934153395974,0.016173934153395974
26.563000000000002,0.012984467319850104,0.012984467319850104
26.564,0.008156390221395245,0.008156390221395245
26.565,0.002882259567304783,0.002882259567304783
26.566000000000003,0.0016655553943543792,-0.0016655553943543792
26.567,0.004635764748978403,-0.004635764748978403
26.568,0.005692891274538787,-0.005692891274538787
26.569000000000003,0.005051489210484165,-0.005051489210484165
26.57,0.003347366584895053,-0.003347366584895053
26.571,0.0013948536908721478,-0.0013948536908721478
26.572000000000003,8.683222030633006e-05,8.683222030633006e-05
26.573,0.0006893385393163049,0.0006893385393163049
26.574,0.0004076145984614506,0.0004076145984614506
26.575000000000003,0.000412942391895669,-0.000412942391895669
26.576,0.0012483362471223428,-0.0012483362471223428
26.577,0.0016234279762395991,-0.0016234279762395991
26.578000000000003,0.0013169571369749664,-0.0013169571369749664
26.579,0.00047692421791041155,-0.00047692421791041155
26.580000000000002,0.00039001638223168974,0.00039001638223168974
26.581000000000003,0.0005519860994201228,0.0005519860994201228
26.582,0.0007304136888305376,-0.0007304136888305376
26.583000000000002,0.003962095657699089,-0.003962095657699089
26.584000000000003,0.009210568185375799,-0.009210568185375799
26.585,0.015992951976244632,-0.015992951976244632
26.586000000000002,0.02328148022385332,-0.02328148022385332
26.587000000000003,0.029631217403559642,-0.029631217403559642
26.588,0.03341185546514404,-0.03341185546514404
26.589000000000002,0.03310881247272226,-0.03310881247272226
26.590000000000003,0.02764715005288972,-0.02764715005288972
26.591,0.01668398885964072,-0.01668398885964072
26.592000000000002,0.0008114226897717544,-0.0008114226897717544
26.593000000000004,0.01838496335667596,0.01838496335667596
26.594,0.0384528438165022,0.0384528438165022
26.595000000000002,0.05639794843205346,0.05639794843205346
26.596,0.06917836768696232,0.06917836768696232
26.597,0.0742922416326768,0.0742922416326768
26.598000000000003,0.07034150220103612,0.07034150220103612
26.599,0.05743474458430649,0.05743474458430649
26.6,0.03730676642146576,0.03730676642146576
26.601000000000003,0.013084889424917793,0.013084889424917793
26.602,0.011285111698904591,-0.011285111698904591
26.603,0.03184760595901247,-0.03184760595901247
26.604000000000003,0.04549793845461288,-0.04549793845461288
26.605,0.050679406928343315,-0.050679406928343315
26.606,0.04772514253880462,-0.04772514253880462
26.607000000000003,0.038736446790884595,-0.038736446790884595
26.608,0.027010598601755146,-0.027010598601755146
26.609,0.016157797644003085,-0.016157797644003085
26.610000000000003,0.009140673332180507,-0.009140673332180507
26.611,0.007500006431039293,-0.007500006431039293
26.612000000000002,0.010984243844025925,-0.010984243844025925
26.613000000000003,0.017688491660286382,-0.017688491660286382
26.614,0.02466251984145696,-0.02466251984145696
26.615000000000002,0.028810447088944296,-0.028810447088944296
26.616000000000003,0.027819210109429882,-0.027819210109429882
26.617,0.02084562414722795,-0.02084562414722795
26.618000000000002,0.008765710372787078,-0.008765710372787078
26.619000000000003,0.00607754417578466,0.00607754417578466
26.62,0.020541788942667026,0.020541788942667026
26.621000000000002,0.03156101083660659,0.03156101083660659
26.622000000000003,0.036967020207754504,0.036967020207754504
26.623,0.03602100122325611,0.03602100122325611
26.624000000000002,0.0295170405857923,0.0295170405857923
26.625000000000004,0.019455210811135062,0.019455210811135062
26.626,0.00841122887103898,0.00841122887103898
26.627000000000002,0.001187804165641772,-0.001187804165641772
26.628,0.007660494603382235,-0.007660494603382235
26.629,0.010379064671939485,-0.010379064671939485
26.630000000000003,0.009732279677022346,-0.009732279677022346
26.631,0.006802930254011,-0.006802930254011
26.632,0.0029047679067965514,-0.0029047679067965514
26.633000000000003,0.0008475949150799195,0.0008475949150799195
26.634,0.0037961920724206605,0.0037961920724206605
26.635,0.005764972584536607,0.005764972584536607
26.636000000000003,0.0068874072450732324,0.0068874072450732324
26.637,0.007344088606283459,0.007344088606283459
26.638,0.007143861637759238,0.007143861637759238
26.639000000000003,0.006053139168247873,0.006053139168247873
26.64,0.003707594498329446,0.003707594498329446
26.641000000000002,0.00014300232310786263,-0.00014300232310786263
26.642000000000003,0.0053692668755703,-0.0053692668755703
26.643,0.011306214315064005,-0.011306214315064005
26.644000000000002,0.01680133377397921,-0.01680133377397921
26.645000000000003,0.020484544538793913,-0.020484544538793913
26.646,0.021188453616201697,-0.021188453616201697
26.647000000000002,0.01837916136393756,-0.01837916136393756
26.648000000000003,0.012437966968042459,-0.012437966968042459
26.649,0.004672778646346975,-0.004672778646346975
26.650000000000002,0.0029761562861782853,0.0029761562861782853
26.651000000000003,0.008467013772942187,0.008467013772942187
26.652,0.010267500472557076,0.010267500472557076
26.653000000000002,0.007852217175052153,0.007852217175052153
26.654000000000003,0.0019185087081566984,0.0019185087081566984
26.655,0.005762983455355938,-0.005762983455355938
26.656000000000002,0.012831770488539783,-0.012831770488539783
26.657,0.017015248563001618,-0.017015248563001618
26.658,0.016795429426193737,-0.016795429426193737
26.659000000000002,0.011859049574177693,-0.011859049574177693
26.66,0.003191247628188317,-0.003191247628188317
26.661,0.007215989819658076,0.007215989819658076
26.662000000000003,0.016949050736468,0.016949050736468
26.663,0.02386916409822642,0.02386916409822642
26.664,0.026705368453051652,0.026705368453051652
26.665000000000003,0.025365260892246316,0.025365260892246316
26.666,0.02087674008578843,0.02087674008578843
26.667,0.014991547406032863,0.014991547406032863
26.668000000000003,0.009586690963216552,0.009586690963216552
26.669,0.00605957027952328,0.00605957027952328
26.67,0.004908891529914945,0.004908891529914945
26.671000000000003,0.005629047824494881,0.005629047824494881
26.672,0.006942531831500639,0.006942531831500639
26.673000000000002,0.007286778526437664,0.007286778526437664
26.674000000000003,0.005392814126237314,0.005392814126237314
26.675,0.0007671676222260533,0.0007671676222260533
26.676000000000002,0.006077784288181573,-0.006077784288181573
26.677000000000003,0.013718786926986063,-0.013718786926986063
26.678,0.02021377818792575,-0.02021377818792575
26.679000000000002,0.023671904916624766,-0.023671904916624766
26.680000000000003,0.022829675562523626,-0.022829675562523626
26.681,0.017461598446300942,-0.017461598446300942
26.682000000000002,0.00850464988668089,-0.00850464988668089
26.683000000000003,0.0021392730174700004,0.0021392730174700004
26.684,0.01206629370938628,0.01206629370938628
26.685000000000002,0.018969189779793377,0.018969189779793377
26.686000000000003,0.021208279183341495,0.021208279183341495
26.687,0.01820426526261495,0.01820426526261495
26.688000000000002,0.010556567892181202,0.010556567892181202
26.689,0.00013206962836797212,-0.00013206962836797212
26.69,0.011665815190168424,-0.011665815190168424
26.691000000000003,0.02178429908576476,-0.02178429908576476
26.692,0.028669943324364865,-0.028669943324364865
26.693,0.03130989368337409,-0.03130989368337409
26.694000000000003,0.029635243133204717,-0.029635243133204717
26.695,0.024423791109852343,-0.024423791109852343
26.696,0.017014671206407123,-0.017014671206407123
26.697000000000003,0.008927380507773083,-0.008927380507773083
26.698,0.0014936053236149992,-0.0014936053236149992
26.699,0.004404370950193513,0.004404370950193513
26.700000000000003,0.00843375904163013,0.00843375904163013
26.701,0.010745653040665984,0.010745653040665984
26.702,0.01178713795079906,0.01178713795079906
26.703000000000003,0.012065739511134417,0.012065739511134417
26.704,0.011947531757948023,0.011947531757948023
26.705000000000002,0.011551646028216298,0.011551646028216298
26.706000000000003,0.010766764948329767,0.010766764948329767
26.707,0.009371543811179047,0.009371543811179047
26.708000000000002,0.007204751545177393,0.007204751545177393
26.709000000000003,0.004313911585161517,0.004313911585161517
26.71,0.0010190478792108896,0.0010190478792108896
26.711000000000002,0.0021414014211510245,-0.0021414014211510245
26.712000000000003,0.004572048942735708,-0.004572048942735708
26.713,0.0058370180403157544,-0.0058370180403157544
26.714000000000002,0.005853168108071073,-0.005853168108071073
26.715000000000003,0.00498212213352633,-0.00498212213352633
26.716,0.003971312204652095,-0.003971312204652095
26.717000000000002,0.003742766665870856,-0.003742766665870856
26.718000000000004,0.0050821326613278645,-0.0050821326613278645
26.719,0.008321461036897142,-0.008321461036897142
26.720000000000002,0.013122518826733659,-0.013122518826733659
26.721,0.018446022505541376,-0.018446022505541376
26.722,0.02274051726704303,-0.02274051726704303
26.723000000000003,0.024317422977825083,-0.024317422977825083
26.724,0.021816961132025886,-0.021816961132025886
26.725,0.014633749699818491,-0.014633749699818491
26.726000000000003,0.00317395850601577,-0.00317395850601577
26.727,0.011140892800002201,0.011140892800002201
26.728,0.026137125589920734,0.026137125589920734
26.729000000000003,0.03935492743300357,0.03935492743300357
26.73,0.0485931654766043,0.0485931654766043
26.731,0.052386121881952685,0.052386121881952685
26.732000000000003,0.05028699407352775,0.05028699407352775
26.733,0.042892271079637584,0.042892271079637584
26.734,0.03161866846474817,0.03161866846474817
26.735000000000003,0.018315006937310734,0.018315006937310734
26.736,0.0048326597042494136,0.0048326597042494136
26.737000000000002,0.007322354754298641,-0.007322354754298641
26.738000000000003,0.017172772730874798,-0.017172772730874798
26.739,0.024270287138223913,-0.024270287138223913
26.740000000000002,0.028558348225653746,-0.028558348225653746
26.741000000000003,0.030185101475755382,-0.030185101475755382
26.742,0.029358825966392936,-0.029358825966392936
26.743000000000002,0.02630599342770961,-0.02630599342770961
26.744000000000003,0.02133663570510102,-0.02133663570510102
26.745,0.014965813390355168,-0.014965813390355168
26.746000000000002,0.008006641422896421,-0.008006641422896421
26.747000000000003,0.0015540414718764075,-0.0015540414718764075
26.748,0.003180681088995801,0.003180681088995801
26.749000000000002,0.005160893564183237,0.005160893564183237
26.750000000000004,0.0038562815671173154,0.0038562815671173154
26.751,0.0005043060798134081,-0.0005043060798134081
26.752000000000002,0.006869094824831727,-0.006869094824831727
26.753,0.013545778530134856,-0.013545778530134856
26.754,0.018606007137936177,-0.018606007137936177
26.755000000000003,0.02040673245043952,-0.02040673245043952
26.756,0.018071873051210805,-0.018071873051210805
26.757,0.011777281970153814,-0.011777281970153814
26.758000000000003,0.0027361550536502276,-0.0027361550536502276
26.759,0.0071248646936546344,0.0071248646936546344
26.76,0.015707031078893437,0.015707031078893437
26.761000000000003,0.021331393280546933,0.021331393280546933
26.762,0.023193153686164435,0.023193153686164435
26.763,0.02153247482667513,0.02153247482667513
26.764000000000003,0.017468664457203333,0.017468664457203333
26.765,0.012557752303771439,0.012557752303771439
26.766000000000002,0.008227958769649754,0.008227958769649754
26.767000000000003,0.0052900998364043455,0.0052900998364043455
26.768,0.0036945542788416105,0.0036945542788416105
26.769000000000002,0.0026204784417443493,0.0026204784417443493
26.770000000000003,0.0008653836826990576,0.0008653836826990576
26.771,0.0026053045136434647,-0.0026053045136434647
26.772000000000002,0.008150051960681465,-0.008150051960681465
26.773000000000003,0.015176551882187306,-0.015176551882187306
26.774,0.02221497764017972,-0.02221497764017972
26.775000000000002,0.02733284993636839,-0.02733284993636839
26.776000000000003,0.028762953793646184,-0.028762953793646184
26.777,0.02553471200876924,-0.02553471200876924
26.778000000000002,0.017888965620871923,-0.017888965620871923
26.779000000000003,0.007321608302383468,-0.007321608302383468
26.78,0.0037778943374069387,0.0037778943374069387
26.781000000000002,0.01279167627102771,0.01279167627102771
26.782,0.017636723357986817,0.017636723357986817
26.783,0.01738354917269096,0.01738354917269096
26.784000000000002,0.012531094142505394,0.012531094142505394
26.785,0.004848641087908071,0.004848641087908071
26.786,0.0031645866783693395,-0.0031645866783693395
26.787000000000003,0.009028584061431356,-0.009028584061431356
26.788,0.01100204493284093,-0.01100204493284093
26.789,0.008548096593489757,-0.008548096593489757
26.790000000000003,0.0024100780208177876,-0.0024100780208177876
26.791,0.0057080545163063065,0.0057080545163063065
26.792,0.013733071903897677,0.013733071903897677
26.793000000000003,0.019878040705687355,0.019878040705687355
26.794,0.02314306742520081,0.02314306742520081
26.795,0.023505050159698677,0.023505050159698677
26.796000000000003,0.021754079380129625,0.021754079380129625
26.797,0.019058435413685113,0.019058435413685113
26.798000000000002,0.0164317885216256,0.0164317885216256
26.799000000000003,0.014304312149576491,0.014304312149576491
26.8,0.012355744449232372,0.012355744449232372
26.801000000000002,0.009669821952485825,0.009669821952485825
26.802000000000003,0.005151534158019562,0.005151534158019562
26.803,0.0019470997026321884,-0.0019470997026321884
26.804000000000002,0.011587468842503943,-0.011587468842503943
26.805000000000003,0.022757586633010203,-0.022757586633010203
26.806,0.03361850065484298,-0.03361850065484298
26.807000000000002,0.041950575482418366,-0.041950575482418366
26.808000000000003,0.045764197735693755,-0.045764197735693755
26.809,0.043883302094375735,-0.043883302094375735
26.810000000000002,0.036317883110677775,-0.036317883110677775
26.811000000000003,0.024309259327739405,-0.024309259327739405
26.812,0.010035333574606719,-0.010035333574606719
26.813000000000002,0.003932538675430758,0.003932538675430758
26.814,0.015257967361172808,0.015257967361172808
26.815,0.02237278354447036,0.02237278354447036
26.816000000000003,0.02477382723107103,0.02477382723107103
26.817,0.023021339475510973,0.023021339475510973
26.818,0.018468466576889553,0.018468466576889553
26.819000000000003,0.012825071516604615,0.012825071516604615
26.82,0.007693667591653524,0.007693667591653524
26.821,0.004204423276857199,0.004204423276857199
26.822000000000003,0.0028290406668547677,0.0028290406668547677
26.823,0.003389918189729558,0.003389918189729558
26.824,0.005224088466488369,0.005224088466488369
26.825000000000003,0.007428095545422775,0.007428095545422775
26.826,0.009106411758856793,0.009106411758856793
26.827,0.00956671064190225,0.00956671064190225
26.828000000000003,0.0084369766377683,0.0084369766377683
26.829,0.005707290994867566,0.005707290994867566
26.830000000000002,0.0017132849708088754,0.0017132849708088754
26.831000000000003,0.0029227782082255857,-0.0029227782082255857
26.832,0.007387022012518445,-0.007387022012518445
26.833000000000002,0.01080667006832695,-0.01080667006832695
26.834000000000003,0.012419342806720796,-0.012419342806720796
26.835,0.011762343599465042,-0.011762343599465042
26.836000000000002,0.008843108083541563,-0.008843108083541563
26.837000000000003,0.004234990854099283,-0.004234990854099283
26.838,0.0009566557673776284,0.0009566557673776284
26.839000000000002,0.005287757536262127,0.005287757536262127
26.840000000000003,0.0073110540948970884,0.0073110540948970884
26.841,0.005982521025059716,0.005982521025059716
26.842000000000002,0.0010256630653350093,0.0010256630653350093
26.843000000000004,0.006869239991642359,-0.006869239991642359
26.844,0.01610198698487312,-0.01610198698487312
26.845000000000002,0.024497205636627613,-0.024497205636627613
26.846,0.029851239637401748,-0.029851239637401748
26.847,0.03054798560042148,-0.03054798560042148
26.848000000000003,0.026061486173649975,-0.026061486173649975
26.849,0.017180283329008686,-0.017180283329008686
26.85,0.005861772055683372,-0.005861772055683372
26.851000000000003,0.00526558586132039,0.00526558586132039
26.852,0.013622115501289077,0.013622115501289077
26.853,0.017411124795551368,0.017411124795551368
26.854000000000003,0.01614448669531595,0.01614448669531595
26.855,0.010792272045089073,0.010792272045089073
26.856,0.0035006628058636435,0.0035006628058636435
26.857000000000003,0.0030443666062731226,-0.0030443666062731226
26.858,0.006417926266756523,-0.006417926266756523
26.859,0.0051779818310066505,-0.0051779818310066505
26.860000000000003,0.0007126435168156644,0.0007126435168156644
26.861,0.009891022577604951,0.009891022577604951
26.862000000000002,0.02001808575371666,0.02001808575371666
26.863000000000003,0.028482542765691704,0.028482542765691704
26.864,0.03315970540864196,0.03315970540864196
26.865000000000002,0.03298817864764208,0.03298817864764208
26.866000000000003,0.02819260496264387,0.02819260496264387
26.867,0.020100621829603243,0.020100621829603243
26.868000000000002,0.010636275438310671,0.010636275438310671
26.869000000000003,0.001675255263505139,0.001675255263505139
26.87,0.005514705274345836,-0.005514705274345836
26.871000000000002,0.010563785897903532,-0.010563785897903532
26.872000000000003,0.013937006100658378,-0.013937006100658378
26.873,0.016562238351577007,-0.016562238351577007
26.874000000000002,0.01930279497203967,-0.01930279497203967
26.875000000000004,0.022481392147311884,-0.022481392147311884
26.876,0.025641320171822128,-0.025641320171822128
26.877000000000002,0.02764305210646188,-0.02764305210646188
26.878,0.02707115359724474,-0.02707115359724474
26.879,0.022810540732555232,-0.022810540732555232
26.880000000000003,0.01458369218190872,-0.01458369218190872
26.881,0.003245580897895402,-0.003245580897895402
26.882,0.009289895515976868,0.009289895515976868
26.883000000000003,0.020494856688939415,0.020494856688939415
26.884,0.02791856887243091,0.02791856887243091
26.885,0.02991042138162861,0.02991042138162861
26.886000000000003,0.026140957244891117,0.026140957244891117
26.887,0.017745009892969878,0.017745009892969878
26.888,0.007027968497159481,0.007027968497159481
26.889000000000003,0.0031855552510548424,-0.0031855552510548424
26.89,0.010366774282507455,-0.010366774282507455
26.891000000000002,0.01301378231834827,-0.01301378231834827
26.892000000000003,0.011075170066726555,-0.011075170066726555
26.893,0.005937089724929446,-0.005937089724929446
26.894000000000002,2.125850003204357e-05,2.125850003204357e-05
26.895000000000003,0.004167433817666474,0.004167433817666474
26.896,0.004426887575671584,0.004426887575671584
26.897000000000002,7.638933957133491e-05,-7.638933957133491e-05
26.898000000000003,0.008735812896029193,-0.008735812896029193
26.899,0.019610849923549778,-0.019610849923549778
26.900000000000002,0.02995545643765849,-0.02995545643765849
26.901000000000003,0.03696507089288521,-0.03696507089288521
26.902,0.03852477560479965,-0.03852477560479965
26.903000000000002,0.033751308475183074,-0.033751308475183074
26.904000000000003,0.023191090027821028,-0.023191090027821028
26.905,0.008641064233986565,-0.008641064233986565
26.906000000000002,0.007334196318697566,0.007334196318697566
26.907,0.022038250247525003,0.022038250247525003
26.908,0.03325236300441889,0.03325236300441889
26.909000000000002,0.03966455603785509,0.03966455603785509
26.91,0.04102903489839985,0.04102903489839985
26.911,0.03804963813520403,0.03804963813520403
26.912000000000003,0.032055482343527585,0.032055482343527585
26.913,0.024583017667563527,0.024583017667563527
26.914,0.016986841594759914,0.016986841594759914
26.915000000000003,0.010174792110126426,0.010174792110126426
26.916,0.004513826980389991,0.004513826980389991
26.917,0.00010064056636758106,-0.00010064056636758106
26.918000000000003,0.004061903632420532,-0.004061903632420532
26.919,0.007826908388536084,-0.007826908388536084
26.92,0.011718229160870062,-0.011718229160870062
26.921000000000003,0.015801986419204533,-0.015801986419204533
26.922,0.019861356928235617,-0.019861356928235617
26.923000000000002,0.023457017825934432,-0.023457017825934432
26.924000000000003,0.026045839253557437,-0.026045839253557437
26.925,0.02712055081267628,-0.02712055081267628
26.926000000000002,0.026335101640692526,-0.026335101640692526
26.927000000000003,0.023589596182540012,-0.023589596182540012
26.928,0.019060940468211524,-0.019060940468211524
26.929000000000002,0.0131774492637776,-0.0131774492637776
26.930000000000003,0.006545883504349465,-0.006545883504349465
26.931,0.00015286465399917527,0.00015286465399917527
26.932000000000002,0.006278111122438662,0.006278111122438662
26.933000000000003,0.011330387129271079,0.011330387129271079
26.934,0.015017681152278108,0.015017681152278108
26.935000000000002,0.01727214389592235,0.01727214389592235
26.936000000000003,0.018213714908328214,0.018213714908328214
26.937,0.018071084923471883,0.018071084923471883
26.938000000000002,0.017083525935834287,0.017083525935834287
26.939,0.01541497462405286,0.01541497462405286
26.94,0.01311061719555969,0.01311061719555969
26.941000000000003,0.010114764333418205,0.010114764333418205
26.942,0.006349179474659276,0.006349179474659276
26.943,0.0018287689185478174,0.0018287689185478174
26.944000000000003,0.0032258923959199307,-0.0032258923959199307
26.945,0.008325434339445366,-0.008325434339445366
26.946,0.012734440165452237,-0.012734440165452237
26.947000000000003,0.015592540012966144,-0.015592540012966144
26.948,0.016114447871713584,-0.016114447871713584
26.949,0.013819697407746034,-0.013819697407746034
26.950000000000003,0.008725341485959813,-0.008725341485959813
26.951,0.001436967383266156,-0.001436967383266156
26.952,0.006903589630719018,0.006903589630719018
26.953000000000003,0.014816929671149623,0.014816929671149623
26.954,0.02079121931321326,0.02079121931321326
26.955000000000002,0.023619485171974253,0.023619485171974253
26.956000000000003,0.02268044714572194,0.02268044714572194
26.957,0.01808549896294423,0.01808549896294423
26.958000000000002,0.010649026712337724,0.010649026712337724
26.959000000000003,0.0016875892678124744,0.0016875892678124744
26.96,0.007298612736310271,-0.007298612736310271
26.961000000000002,0.014975481224068913,-0.014975481224068913
26.962000000000003,0.020461343050565566,-0.020461343050565566
26.963,0.023474603395448553,-0.023474603395448553
26.964000000000002,0.024308612041071702,-0.024308612041071702
26.965000000000003,0.02365010895880646,-0.02365010895880646
26.966,0.022302314867061693,-0.022302314867061693
26.967000000000002,0.02089942983368396,-0.02089942983368396
26.968000000000004,0.019698733127440245,-0.019698733127440245
26.969,0.018510439509825984,-0.018510439509825984
26.970000000000002,0.01678239897735551,-0.01678239897735551
26.971,0.013809934679634466,-0.013809934679634466
26.972,0.009004586305278242,-0.009004586305278242
26.973000000000003,0.0021396830821041675,-0.0021396830821041675
26.974,0.006500637520944858,0.006500637520944858
26.975,0.01611271028407139,0.01611271028407139
26.976000000000003,0.025507676367458158,0.025507676367458158
26.977,0.03335170745498505,0.03335170745498505
26.978,0.038447503023829044,0.038447503023829044
26.979000000000003,0.03998449766539883,0.03998449766539883
26.98,0.03769767181054174,0.03769767181054174
26.981,0.031902642710551835,0.031902642710551835
26.982000000000003,0.023408735243746058,0.023408735243746058
26.983,0.013341909269844895,0.013341909269844895
26.984,0.002927741519757503,0.002927741519757503
26.985000000000003,0.0067126263404539786,-0.0067126263404539786
26.986,0.0147123485655319,-0.0147123485655319
26.987000000000002,0.02053411472649338,-0.02053411472649338
26.988000000000003,0.023972904004753617,-0.023972904004753617
26.989,0.025105826680415257,-0.025105826680415257
26.990000000000002,0.024216557896468007,-0.024216557896468007
26.991000000000003,0.02171955087077704,-0.02171955087077704
26.992,0.018099354881074517,-0.018099354881074517
26.993000000000002,0.013867842868465523,-0.013867842868465523
26.994000000000003,0.009532156038484214,-0.009532156038484214
26.995,0.005562345679292108,-0.005562345679292108
26.996000000000002,0.0023509688012301445,-0.0023509688012301445
26.997000000000003,0.00016531983096081292,-0.00016531983096081292
26.998,0.0008974421425344795,0.0008974421425344795
26.999000000000002,0.0009357815982443031,0.0009357815982443031
27.000000000000004,0.0002338207427428523,0.0002338207427428523
27.001,0.0007922576188058285,-0.0007922576188058285
27.002000000000002,0.001686324462756967,-0.001686324462756967
27.003,0.002063511018646688,-0.002063511018646688
27.004,0.001711003398100096,-0.001711003398100096
27.005000000000003,0.0006473831308991009,-0.0006473831308991009
27.006,0.0008817705668319473,0.0008817705668319473
27.007,0.002476890930215876,0.002476890930215876
27.008000000000003,0.003709661371901275,0.003709661371901275
27.009,0.004265624393707405,0.004265624393707405
27.01,0.004060040757297868,0.004060040757297868
27.011000000000003,0.003286868391302992,0.003286868391302992
27.012,0.0023780895010396194,0.0023780895010396194
27.013,0.001877111038168812,0.001877111038168812
27.014000000000003,0.0022579940996588998,0.0022579940996588998
27.015,0.0037430084095203832,0.0037430084095203832
27.016000000000002,0.006177151960461009,0.006177151960461009
27.017000000000003,0.00900651425432446,0.00900651425432446
27.018,0.011379785317261462,0.011379785317261462
27.019000000000002,0.01235609360542738,0.01235609360542738
27.020000000000003,0.011168247830195769,0.011168247830195769
27.021,0.007469099260175533,0.007469099260175533
27.022000000000002,0.0014876692051914316,0.0014876692051914316
27.023000000000003,0.00595736800540738,-0.00595736800540738
27.024,0.013601295809758768,-0.013601295809758768
27.025000000000002,0.020004108152805927,-0.020004108152805927
27.026000000000003,0.023880746341857703,-0.023880746341857703
27.027,0.024403850227346164,-0.024403850227346164
27.028000000000002,0.021397647886771846,-0.021397647886771846
27.029000000000003,0.015371157183548308,-0.015371157183548308
27.03,0.007383975723687784,-0.007383975723687784
27.031000000000002,0.0012148555341332044,0.0012148555341332044
27.032,0.009099493421740552,0.009099493421740552
27.033,0.015244103134954503,0.015244103134954503
27.034000000000002,0.019091212663043127,0.019091212663043127
27.035,0.02057547793452192,0.02057547793452192
27.036,0.020013154272886583,0.020013154272886583
27.037000000000003,0.017908855164050153,0.017908855164050153
27.038,0.014753930105808296,0.014753930105808296
27.039,0.010887765141508436,0.010887765141508436
27.040000000000003,0.006465893977162136,0.006465893977162136
27.041,0.0015366625077109974,0.0015366625077109974
27.042,0.003813931888674793,-0.003813931888674793
27.043000000000003,0.00931682116156773,-0.00931682116156773
27.044,0.014443875006868737,-0.014443875006868737
27.045,0.018447552472907112,-0.018447552472907112
27.046000000000003,0.02052018520570024,-0.02052018520570024
27.047,0.020030687704885877,-0.020030687704885877
27.048000000000002,0.016762656590877598,-0.016762656590877598
27.049000000000003,0.011068919441852646,-0.011068919441852646
27.05,0.003877979064427834,-0.003877979064427834
27.051000000000002,0.0034681433096293507,0.0034681433096293507
27.052000000000003,0.009511384932995165,0.009511384932995165
27.053,0.013031414808958794,0.013031414808958794
27.054000000000002,0.013354577117396285,0.013354577117396285
27.055000000000003,0.010526517669740035,0.010526517669740035
27.056,0.005296071704555937,0.005296071704555937
27.057000000000002,0.0010856716217265384,-0.0010856716217265384
27.058000000000003,0.007191668475765219,-0.007191668475765219
27.059,0.011774353464682941,-0.011774353464682941
27.060000000000002,0.014047842095381426,-0.014047842095381426
27.061000000000003,0.013820765105046656,-0.013820765105046656
27.062,0.01145317488874035,-0.01145317488874035
27.063000000000002,0.007667191110618133,-0.007667191110618133
27.064,0.0032852112231839038,-0.0032852112231839038
27.065,0.0010127659174861098,0.0010127659174861098
27.066000000000003,0.004835020839229723,0.004835020839229723
27.067,0.008089222769981058,0.008089222769981058
27.068,0.01087178184234216,0.01087178184234216
27.069000000000003,0.013292505679756516,0.013292505679756516
27.07,0.015313233928538525,0.015313233928538525
27.071,0.016670973311822147,0.016670973311822147
27.072000000000003,0.016921525011485413,0.016921525011485413
27.073,0.015591541685864902,0.015591541685864902
27.074,0.012383102182201735,0.012383102182201735
27.075000000000003,0.0073515020365408955,0.0073515020365408955
27.076,0.0009829528167113611,0.0009829528167113611
27.077,0.005867414001086914,-0.005867414001086914
27.078000000000003,0.012167220742666766,-0.012167220742666766
27.079,0.016970414141210505,-0.016970414141210505
27.080000000000002,0.01966649978309615,-0.01966649978309615
27.081000000000003,0.020130898882766247,-0.020130898882766247
27.082,0.01872392101381182,-0.01872392101381182
27.083000000000002,0.016137514125428493,-0.016137514125428493
27.084000000000003,0.013142250265493649,-0.013142250265493649
27.085,0.010322924742047051,-0.010322924742047051
27.086000000000002,0.007896441681075003,-0.007896441681075003
27.087000000000003,0.005677689817718658,-0.005677689817718658
27.088,0.0032070158854089897,-0.0032070158854089897
27.089000000000002,5.390997074871118e-06,5.390997074871118e-06
27.090000000000003,0.004206818660547863,0.004206818660547863
27.091,0.009203250517096464,0.009203250517096464
27.092000000000002,0.014314257240479597,0.014314257240479597
27.093000000000004,0.01850980290998822,0.01850980290998822
27.094,0.020693857218461183,0.020693857218461183
27.095000000000002,0.020046392524308277,0.020046392524308277
27.096,0.016310934996474968,0.016310934996474968
27.097,0.00992856496404697,0.00992856496404697
27.098000000000003,0.001967316855852902,0.001967316855852902
27.099,0.0061374508831995005,-0.0061374508831995005
27.1,0.012953426874246988,-0.012953426874246988
27.101000000000003,0.017416851324153455,-0.017416851324153455
27.102,0.01907871014411392,-0.01907871014411392
27.103,0.018156846997561857,-0.018156846997561857
27.104000000000003,0.015384190714714804,-0.015384190714714804
27.105,0.011711509339668814,-0.011711509339668814
27.106,0.007971177685894748,-0.007971177685894748
27.107000000000003,0.004619729854192827,-0.004619729854192827
27.108,0.0016473681544058637,-0.0016473681544058637
27.109,0.0013178634338500725,0.0013178634338500725
27.110000000000003,0.0047540283005863375,0.0047540283005863375
27.111,0.008936120485261882,0.008936120485261882
27.112000000000002,0.01369410844062269,0.01369410844062269
27.113000000000003,0.018337581349955962,0.018337581349955962
27.114,0.021789319676308087,0.021789319676308087
27.115000000000002,0.022896062201071814,0.022896062201071814
27.116000000000003,0.020819075041615405,0.020819075041615405
27.117,0.01537286428673693,0.01537286428673693
27.118000000000002,0.007190254216744955,0.007190254216744955
27.119000000000003,0.002355984280725488,-0.002355984280725488
27.12,0.011467134038347152,-0.011467134038347152
27.121000000000002,0.018382453613256994,-0.018382453613256994
27.122000000000003,0.021855176201217776,-0.021855176201217776
27.123,0.021494198999978533,-0.021494198999978533
27.124000000000002,0.017863763591357176,-0.017863763591357176
27.125000000000004,0.012307411831049874,-0.012307411831049874
27.126,0.006548126498107109,-0.006548126498107109
27.127000000000002,0.0021862122254708693,-0.0021862122254708693
27.128,0.00024765256770693545,-0.00024765256770693545
27.129,0.0009184351168278237,-0.0009184351168278237
27.130000000000003,0.0035404794221967767,-0.0035404794221967767
27.131,0.0068619333298562775,-0.0068619333298562775
27.132,0.009455597927228393,-0.009455597927228393
27.133000000000003,0.010169387969678631,-0.010169387969678631
27.134,0.008467481473005646,-0.008467481473005646
27.135,0.004560848104403835,-0.004560848104403835
27.136000000000003,0.0007028932926367143,0.0007028932926367143
27.137,0.0061418051310699546,0.0061418051310699546
27.138,0.010625657092770297,0.010625657092770297
27.139000000000003,0.013414789019802064,0.013414789019802064
27.14,0.014342512740069362,0.014342512740069362
27.141000000000002,0.013788884406768587,0.013788884406768587
27.142000000000003,0.012466445469447278,0.012466445469447278
27.143,0.0111022654157882,0.0111022654157882
27.144000000000002,0.010134185651593014,0.010134185651593014
27.145000000000003,0.009531888923497716,0.009531888923497716
27.146,0.008808426683241983,0.008808426683241983
27.147000000000002,0.0072207514323799965,0.0072207514323799965
27.148000000000003,0.004091347564835819,0.004091347564835819
27.149,0.000860568356391254,-0.000860568356391254
27.150000000000002,0.007296219574765539,-0.007296219574765539
27.151000000000003,0.014227969751519739,-0.014227969751519739
27.152,0.02020754556593471,-0.02020754556593471
27.153000000000002,0.02368609849348708,-0.02368609849348708
27.154000000000003,0.023444541961212147,-0.023444541961212147
27.155,0.01896805838509128,-0.01896805838509128
27.156000000000002,0.010652786447748145,-0.010652786447748145
27.157,0.00021944956386403354,0.00021944956386403354
27.158,0.011736131784274137,0.011736131784274137
27.159000000000002,0.021772004403618556,0.021772004403618556
27.16,0.02845958602726068,0.02845958602726068
27.161,0.03059093796584098,0.03059093796584098
27.162000000000003,0.027852757174839926,0.027852757174839926
27.163,0.020845801481507827,0.020845801481507827
27.164,0.010898578946253604,0.010898578946253604
27.165000000000003,0.0002631411512501978,-0.0002631411512501978
27.166,0.010898799448819444,-0.010898799448819444
27.167,0.019592014876909838,-0.019592014876909838
27.168000000000003,0.025472531078385693,-0.025472531078385693
27.169,0.02828585138586041,-0.02828585138586041
27.17,0.028317367087202627,-0.028317367087202627
27.171000000000003,0.02621201939606873,-0.02621201939606873
27.172,0.02274918209878067,-0.02274918209878067
27.173000000000002,0.018633363358431503,-0.018633363358431503
27.174000000000003,0.01434754952859668,-0.01434754952859668
27.175,0.01009386342529097,-0.01009386342529097
27.176000000000002,0.005822701374856468,-0.005822701374856468
27.177000000000003,0.0013321683141470548,-0.0013321683141470548
27.178,0.0035926708924848725,0.0035926708924848725
27.179000000000002,0.009036125733023728,0.009036125733023728
27.180000000000003,0.014837947009664194,0.014837947009664194
27.181,0.020537345302207764,0.020537345302207764
27.182000000000002,0.025393536939070434,0.025393536939070434
27.183000000000003,0.028488403608617204,0.028488403608617204
27.184,0.028900967288596188,0.028900967288596188
27.185000000000002,0.02592608884745181,0.02592608884745181
27.186000000000003,0.019294208352606753,0.019294208352606753
27.187,0.009339532724049762,0.009339532724049762
27.188000000000002,0.0029345612289051006,-0.0029345612289051006
27.189,0.01592914986606675,-0.01592914986606675
27.19,0.027670692722920734,-0.027670692722920734
27.191000000000003,0.036151642661474075,-0.036151642661474075
27.192,0.039728013933620826,-0.039728013933620826
27.193,0.037487233170527746,-0.037487233170527746
27.194000000000003,0.02949553810268479,-0.02949553810268479
27.195,0.016854058265479598,-0.016854058265479598
27.196,0.0015338509032450855,-0.0015338509032450855
27.197000000000003,0.013986780843869461,0.013986780843869461
27.198,0.027208234082962888,0.027208234082962888
27.199,0.0361096212186822,0.0361096212186822
27.200000000000003,0.039545985771806784,0.039545985771806784
27.201,0.037448671837618325,0.037448671837618325
27.202,0.030782876264357766,0.030782876264357766
27.203000000000003,0.021277079287662943,0.021277079287662943
27.204,0.010995792730220775,0.010995792730220775
27.205000000000002,0.001864364008877782,0.001864364008877782
27.206000000000003,0.004737504910742821,-0.004737504910742821
27.207,0.008219773564146412,-0.008219773564146412
27.208000000000002,0.008816284422233521,-0.008816284422233521
27.209000000000003,0.007418085008191322,-0.007418085008191322
27.21,0.0052649348549344945,-0.0052649348549344945
27.211000000000002,0.003585001419993934,-0.003585001419993934
27.212000000000003,0.0032774996776176683,-0.0032774996776176683
27.213,0.004712629667656036,-0.004712629667656036
27.214000000000002,0.007685619718381211,-0.007685619718381211
27.215000000000003,0.01151898930865811,-0.01151898930865811
27.216,0.01527134877871348,-0.01527134877871348
27.217000000000002,0.01799068216765473,-0.01799068216765473
27.218000000000004,0.018948068874151076,-0.018948068874151076
27.219,0.017801527949344097,-0.017801527949344097
27.220000000000002,0.01466259315074916,-0.01466259315074916
27.221,0.010062694148055412,-0.010062694148055412
27.222,0.004836267749925659,-0.004836267749925659
27.223000000000003,5.032749646710068e-05,5.032749646710068e-05
27.224,0.0036904432620469972,0.0036904432620469972
27.225,0.005416486677940154,0.005416486677940154
27.226000000000003,0.004937869571713682,0.004937869571713682
27.227,0.002413756447626862,0.002413756447626862
27.228,0.0015559723786358224,-0.0015559723786358224
27.229000000000003,0.006027641969333087,-0.006027641969333087
27.23,0.009890048621387777,-0.009890048621387777
27.231,0.012093791134417,-0.012093791134417
27.232000000000003,0.011890242514448996,-0.011890242514448996
27.233,0.009025880379298632,-0.009025880379298632
27.234,0.0038388961573804104,-0.0038388961573804104
27.235000000000003,0.002778450690570378,0.002778450690570378
27.236,0.009557722085697523,0.009557722085697523
27.237000000000002,0.015140564639124266,0.015140564639124266
27.238000000000003,0.018407029582733162,0.018407029582733162
27.239,0.018760217847623144,0.018760217847623144
27.240000000000002,0.016285618938253282,0.016285618938253282
27.241000000000003,0.011732947924378968,0.011732947924378968
27.242,0.006316622675840783,0.006316622675840783
27.243000000000002,0.0013847448279559883,0.0013847448279559883
27.244000000000003,0.0019512152623330228,-0.0019512152623330228
27.245,0.0031174874619089386,-0.0031174874619089386
27.246000000000002,0.0022181875053494163,-0.0022181875053494163
27.247000000000003,3.0096041960991022e-05,3.0096041960991022e-05
27.248,0.0025505579393542304,0.0025505579393542304
27.249000000000002,0.0042664009267191156,0.0042664009267191156
27.250000000000004,0.004453410453588914,0.004453410453588914
27.251,0.0029692400896668496,0.0029692400896668496
27.252000000000002,0.00028218852156001843,0.00028218852156001843
27.253,0.0027120682688170686,-0.0027120682688170686
27.254,0.005025370755352243,-0.005025370755352243
27.255000000000003,0.005949116919245066,-0.005949116919245066
27.256,0.0053320637807280895,-0.0053320637807280895
27.257,0.0036602514690249285,-0.0036602514690249285
27.258000000000003,0.0019004083535641976,-0.0019004083535641976
27.259,0.00114990175385697,-0.00114990175385697
27.26,0.002207418771919775,-0.002207418771919775
27.261000000000003,0.005214037406228175,-0.005214037406228175
27.262,0.009500022218837216,-0.009500022218837216
27.263,0.013710655795954367,-0.013710655795954367
27.264000000000003,0.016193143652716978,-0.016193143652716978
27.265,0.015535437128953425,-0.015535437128953425
27.266000000000002,0.011087538630919923,-0.011087538630919923
27.267000000000003,0.003288519803218017,-0.003288519803218017
27.268,0.006326454113332262,0.006326454113332262
27.269000000000002,0.015469032912048679,0.015469032912048679
27.270000000000003,0.021709104846029496,0.021709104846029496
27.271,0.02318193146084266,0.02318193146084266
27.272000000000002,0.019177355820707082,0.019177355820707082
27.273000000000003,0.010422577194685607,0.010422577194685607
27.274,0.0010442027288186254,-0.0010442027288186254
27.275000000000002,0.012390397699267698,-0.012390397699267698
27.276000000000003,0.020756870784321636,-0.020756870784321636
27.277,0.024056859962301235,-0.024056859962301235
27.278000000000002,0.02157021892790532,-0.02157021892790532
27.279000000000003,0.014153286376300703,-0.014153286376300703
27.28,0.003996521837794191,-0.003996521837794191
27.281000000000002,0.006003973142876972,0.006003973142876972
27.282,0.01307957378888655,0.01307957378888655
27.283,0.015383958770728835,0.015383958770728835
27.284000000000002,0.012517915326388365,0.012517915326388365
27.285,0.005632698662108268,0.005632698662108268
27.286,0.0029147327984703954,-0.0029147327984703954
27.287000000000003,0.01025006307340445,-0.01025006307340445
27.288,0.013810707425152512,-0.013810707425152512
27.289,0.012076147027703476,-0.012076147027703476
27.290000000000003,0.004994416102409752,-0.004994416102409752
27.291,0.00600714605824761,0.00600714605824761
27.292,0.018416335423686637,0.018416335423686637
27.293000000000003,0.02931080815850666,0.02931080815850666
27.294,0.03611522101872095,0.03611522101872095
27.295,0.03723074743720515,0.03723074743720515
27.296000000000003,0.03237572210804203,0.03237572210804203
27.297,0.022567809399933723,0.022567809399933723
27.298000000000002,0.009782737508933078,0.009782737508933078
27.299000000000003,0.003589442362872334,-0.003589442362872334
27.3,0.015326181856137497,-0.015326181856137497
27.301000000000002,0.023836033425897147,-0.023836033425897147
27.302000000000003,0.028399884289187327,-0.028399884289187327
27.303,0.029161736239627638,-0.029161736239627638
27.304000000000002,0.02691521661169939,-0.02691521661169939
27.305000000000003,0.02278204096910754,-0.02278204096910754
27.306,0.0178920304569318,-0.0178920304569318
27.307000000000002,0.01315172297777362,-0.01315172297777362
27.308000000000003,0.00914243831192813,-0.00914243831192813
27.309,0.006137588076427003,-0.006137588076427003
27.310000000000002,0.004191236696683842,-0.004191236696683842
27.311000000000003,0.003236854010526375,-0.003236854010526375
27.312,0.0031481741950404292,-0.0031481741950404292
27.313000000000002,0.0037447113753461487,-0.0037447113753461487
27.314,0.0047585225828806425,-0.0047585225828806425
27.315,0.005801797327378016,-0.005801797327378016
27.316000000000003,0.006377561448780493,-0.006377561448780493
27.317,0.0059574626309617145,-0.0059574626309617145
27.318,0.004118990880540679,-0.004118990880540679
27.319000000000003,0.0007026678559290659,-0.0007026678559290659
27.32,0.004068886437111599,0.004068886437111599
27.321,0.009564915557839915,0.009564915557839915
27.322000000000003,0.014842903104639293,0.014842903104639293
27.323,0.01885682616952455,0.01885682616952455
27.324,0.020726110391455034,0.020726110391455034
27.325000000000003,0.01998741714468278,0.01998741714468278
27.326,0.016749071475418518,0.016749071475418518
27.327,0.011692393740334917,0.011692393740334917
27.328000000000003,0.005908734323735895,0.005908734323735895
27.329,0.0006118641826881919,0.0006118641826881919
27.330000000000002,0.0031938366917218836,-0.0031938366917218836
27.331000000000003,0.004991827571965209,-0.004991827571965209
27.332,0.00489375398326248,-0.00489375398326248
27.333000000000002,0.00359652029597808,-0.00359652029597808
27.334000000000003,0.002165405901705234,-0.002165405901705234
27.335,0.0017052339176560738,-0.0017052339176560738
27.336000000000002,0.003016127863892785,-0.003016127863892785
27.337000000000003,0.006335922500283827,-0.006335922500283827
27.338,0.011245950073786103,-0.011245950073786103
27.339000000000002,0.016768366873815416,-0.016768366873815416
27.340000000000003,0.02162622696412631,-0.02162622696412631
27.341,0.024589492942748283,-0.024589492942748283
27.342000000000002,0.02480560753767746,-0.02480560753767746
27.343000000000004,0.022019368205684172,-0.022019368205684172
27.344,0.01662144934349547,-0.01662144934349547
27.345000000000002,0.009517136381222452,-0.009517136381222452
27.346,0.001860559081817894,-0.001860559081817894
27.347,0.005261432920225329,0.005261432920225329
27.348000000000003,0.011099234783523206,0.011099234783523206
27.349,0.015385232374891011,0.015385232374891011
27.35,0.018315709499614787,0.018315709499614787
27.351000000000003,0.020384540552581945,0.020384540552581945
27.352,0.022129953238425024,0.022129953238425024
27.353,0.023882191398389867,0.023882191398389867
27.354000000000003,0.025598144302453153,0.025598144302453153
27.355,0.026839607023663396,0.026839607023663396
27.356,0.02690413534601137,0.02690413534601137
27.357000000000003,0.02506659580551693,0.02506659580551693
27.358,0.020851746333131947,0.020851746333131947
27.359,0.014245826546554268,0.014245826546554268
27.360000000000003,0.005772637973916267,0.005772637973916267
27.361,0.003597999034232046,-0.003597999034232046
27.362000000000002,0.012687216684895058,-0.012687216684895058
27.363000000000003,0.020418263487942016,-0.020418263487942016
27.364,0.026102901012046233,-0.026102901012046233
27.365000000000002,0.029607506900863865,-0.029607506900863865
27.366000000000003,0.03133825006347798,-0.03133825006347798
27.367,0.032041356753244044,-0.032041356753244044
27.368000000000002,0.03247582452151958,-0.03247582452151958
27.369000000000003,0.03306254632020645,-0.03306254632020645
27.37,0.033629889742454205,-0.033629889742454205
27.371000000000002,0.03335428475074665,-0.03335428475074665
27.372000000000003,0.03093962674838318,-0.03093962674838318
27.373,0.025006232748138513,-0.025006232748138513
27.374000000000002,0.014590178569450336,-0.014590178569450336
27.375000000000004,0.0003911365151952797,0.0003911365151952797
27.376,0.018855985676002995,0.018855985676002995
27.377000000000002,0.03856687755636433,0.03856687755636433
27.378,0.056464549312099085,0.056464549312099085
27.379,0.06927080235360165,0.06927080235360165
27.380000000000003,0.07422338181984899,0.07422338181984899
27.381,0.06975980333870911,0.06975980333870911
27.382,0.055969407658091906,0.055969407658091906
27.383000000000003,0.034685211388913624,0.034685211388913624
27.384,0.009176302777981161,0.009176302777981161
27.385,0.016496213732323316,-0.016496213732323316
27.386000000000003,0.03830932959896714,-0.03830932959896714
27.387,0.05309546517944367,-0.05309546517944367
27.388,0.059152016655236804,-0.059152016655236804
27.389000000000003,0.056502959327423365,-0.056502959327423365
27.39,0.04676282838346885,-0.04676282838346885
27.391000000000002,0.03265448689402918,-0.03265448689402918
27.392000000000003,0.01731637719549853,-0.01731637719549853
27.393,0.0035804199835291197,-0.0035804199835291197
27.394000000000002,0.006602198275535669,0.006602198275535669
27.395000000000003,0.012459983844690648,0.012459983844690648
27.396,0.014377395316706888,0.014377395316706888
27.397000000000002,0.013587626146404642,0.013587626146404642
27.398000000000003,0.011690800981378828,0.011690800981378828
27.399,0.010141666907760366,0.010141666907760366
27.400000000000002,0.00984485301447417,0.00984485301447417
27.401000000000003,0.010953711214091347,0.010953711214091347
27.402,0.012905252044266263,0.012905252044266263
27.403000000000002,0.014657901364840206,0.014657901364840206
27.404000000000003,0.015048604119108364,0.015048604119108364
27.405,0.013162903542982744,0.013162903542982744
27.406000000000002,0.008618975821036929,0.008618975821036929
27.407,0.0016986045420579682,0.0016986045420579682
27.408,0.006696738571543467,-0.006696738571543467
27.409000000000002,0.0152415220923787,-0.0152415220923787
27.41,0.022476694495165025,-0.022476694495165025
27.411,0.027122542884547636,-0.027122542884547636
27.412000000000003,0.028344049758825294,-0.028344049758825294
27.413,0.025916313362858562,-0.025916313362858562
27.414,0.02026309113315961,-0.02026309113315961
27.415000000000003,0.012368423436589506,-0.012368423436589506
27.416,0.003584448458726394,-0.003584448458726394
27.417,0.004624974916495208,0.004624974916495208
27.418000000000003,0.010956340321002846,0.010956340321002846
27.419,0.014504436824491757,0.014504436824491757
27.42,0.014922217085160871,0.014922217085160871
27.421000000000003,0.012471407899722934,0.012471407899722934
27.422,0.00795160187850296,0.00795160187850296
27.423000000000002,0.002518785969746766,0.002518785969746766
27.424000000000003,0.002571815766858241,-0.002571815766858241
27.425,0.006244271964050551,-0.006244271964050551
27.426000000000002,0.007838292175193193,-0.007838292175193193
27.427000000000003,0.007245185862478174,-0.007245185862478174
27.428,0.004906271182146511,-0.004906271182146511
27.429000000000002,0.0016698860779251082,-0.0016698860779251082
27.430000000000003,0.0014591174838176999,0.0014591174838176999
27.431,0.00361187147622844,0.00361187147622844
27.432000000000002,0.00430899664181558,0.00430899664181558
27.433000000000003,0.003601144830760344,0.003601144830760344
27.434,0.0020520164087427352,0.0020520164087427352
27.435000000000002,0.0005639113625459025,0.0005639113625459025
27.436000000000003,9.306213554744817e-05,9.306213554744817e-05
27.437,0.001337276599657508,0.001337276599657508
27.438000000000002,0.004490067546176215,0.004490067546176215
27.439,0.009138529334925838,0.009138529334925838
27.44,0.014340670064198304,0.014340670064198304
27.441000000000003,0.0188637559604627,0.0188637559604627
27.442,0.021515129507845454,0.021515129507845454
27.443,0.021466983546242734,0.021466983546242734
27.444000000000003,0.01847689838003759,0.01847689838003759
27.445,0.012937328789160223,0.012937328789160223
27.446,0.005740387516271955,0.005740387516271955
27.447000000000003,0.001997388117109958,-0.001997388117109958
27.448,0.009260795273403096,-0.009260795273403096
27.449,0.015406262931369041,-0.015406262931369041
27.450000000000003,0.020288418684144813,-0.020288418684144813
27.451,0.024201502919100483,-0.024201502919100483
27.452,0.027655536169934034,-0.027655536169934034
27.453000000000003,0.03106333323484807,-0.03106333323484807
27.454,0.034447188830475005,-0.034447188830475005
27.455000000000002,0.03727225550507965,-0.03727225550507965
27.456000000000003,0.03847709988529925,-0.03847709988529925
27.457,0.03671150385323143,-0.03671150385323143
27.458000000000002,0.030725774160989757,-0.030725774160989757
27.459000000000003,0.01980496802497788,-0.01980496802497788
27.46,0.004121319838695399,-0.004121319838695399
27.461000000000002,0.015104864600562371,0.015104864600562371
27.462000000000003,0.0356963811303989,0.0356963811303989
27.463,0.05485591794169235,0.05485591794169235
27.464000000000002,0.06967660315773959,0.06967660315773959
27.465000000000003,0.07770892468564378,0.07770892468564378
27.466,0.07745288168452828,0.07745288168452828
27.467000000000002,0.06866453679004912,0.06866453679004912
27.468000000000004,0.052413179401764695,0.052413179401764695
27.469,0.030884972849165658,0.030884972849165658
27.470000000000002,0.006985008038080922,0.006985008038080922
27.471,0.01617139887915631,-0.01617139887915631
27.472,0.035772872605042624,-0.035772872605042624
27.473000000000003,0.04973626876687961,-0.04973626876687961
27.474,0.056973889451611165,-0.056973889451611165
27.475,0.05747326089691793,-0.05747326089691793
27.476000000000003,0.05219522333300324,-0.05219522333300324
27.477,0.042824748010466644,-0.042824748010466644
27.478,0.03142716286848373,-0.03142716286848373
27.479000000000003,0.02007062919815143,-0.02007062919815143
27.48,0.01047570604418233,-0.01047570604418233
27.481,0.003746508649888037,-0.003746508649888037
27.482000000000003,0.0002260384942983481,-0.0002260384942983481
27.483,0.0004994965600017416,0.0004994965600017416
27.484,0.0005538418171712977,-0.0005538418171712977
27.485000000000003,0.002045925352791404,-0.002045925352791404
27.486,0.002660424413116594,-0.002660424413116594
27.487000000000002,0.0014477941834996992,-0.0014477941834996992
27.488000000000003,0.0019174414631903654,0.0019174414631903654
27.489,0.007032864269857251,0.007032864269857251
27.490000000000002,0.01285284628388131,0.01285284628388131
27.491000000000003,0.01795039145981154,0.01795039145981154
27.492,0.02089614646110872,0.02089614646110872
27.493000000000002,0.020657858965070452,0.020657858965070452
27.494000000000003,0.016911161592842252,0.016911161592842252
27.495,0.010170814027054529,0.010170814027054529
27.496000000000002,0.0016977694108210695,0.0016977694108210695
27.497000000000003,0.006800159240141901,-0.006800159240141901
27.498,0.01359563256633697,-0.01359563256633697
27.499000000000002,0.01737866015595279,-0.01737866015595279
27.500000000000004,0.017578593706581432,-0.017578593706581432
27.501,0.014478429440215039,-0.014478429440215039
27.502000000000002,0.00908949346879887,-0.00908949346879887
27.503,0.002826670508904878,-0.002826670508904878
27.504,0.0029147751541456885,0.0029147751541456885
27.505000000000003,0.007149665654875614,0.007149665654875614
27.506,0.009540592133780345,0.009540592133780345
27.507,0.010412196074244493,0.010412196074244493
27.508000000000003,0.010544004055337728,0.010544004055337728
27.509,0.010816264670820015,0.010816264670820015
27.51,0.011831955285981584,0.011831955285981584
27.511000000000003,0.01364667431214577,0.01364667431214577
27.512,0.015703003244812483,0.015703003244812483
27.513,0.016997939457731544,0.016997939457731544
27.514000000000003,0.01643305591512057,0.01643305591512057
27.515,0.013233079104731373,0.013233079104731373
27.516000000000002,0.0072910931724401,0.0072910931724401
27.517000000000003,0.0006825364885680984,-0.0006825364885680984
27.518,0.009270353013500012,-0.009270353013500012
27.519000000000002,0.016697458573509297,-0.016697458573509297
27.520000000000003,0.021322482050975856,-0.021322482050975856
27.521,0.022122717256368222,-0.022122717256368222
27.522000000000002,0.019023032877555114,-0.019023032877555114
27.523000000000003,0.012962335078118769,-0.012962335078118769
27.524,0.0056694605955479845,-0.0056694605955479845
27.525000000000002,0.0007919855955568889,0.0007919855955568889
27.526000000000003,0.0045805468913978666,0.0045805468913978666
27.527,0.00457595649772362,0.00457595649772362
27.528000000000002,0.0006787889654355307,0.0006787889654355307
27.529000000000003,0.006170565786778802,-0.006170565786778802
27.53,0.014251908954931492,-0.014251908954931492
27.531000000000002,0.021522719515731745,-0.021522719515731745
27.532,0.026139113817472068,-0.026139113817472068
27.533,0.0268957661400525,-0.0268957661400525
27.534000000000002,0.023472764890151626,-0.023472764890151626
27.535,0.016440410069158095,-0.016440410069158095
27.536,0.007045272427546367,-0.007045272427546367
27.537000000000003,0.00314035856261772,0.00314035856261772
27.538,0.012595106746351685,0.012595106746351685
27.539,0.020148585165943738,0.020148585165943738
27.540000000000003,0.025140196705334576,0.025140196705334576
27.541,0.02742438817255587,0.02742438817255587
27.542,0.027258244231705545,0.027258244231705545
27.543000000000003,0.025135676860222046,0.025135676860222046
27.544,0.021633953866102153,0.021633953866102153
27.545,0.017316052582718497,0.017316052582718497
27.546000000000003,0.012697771641972474,0.012697771641972474
27.547,0.008256653858005145,0.008256653858005145
27.548000000000002,0.0044432384856270745,0.0044432384856270745
27.549000000000003,0.0016596626491505845,0.0016596626491505845
27.55,0.00019300922246026056,0.00019300922246026056
27.551000000000002,0.00012058716648905467,0.00012058716648905467
27.552000000000003,0.0012280641780781213,0.0012280641780781213
27.553,0.0029879757535621063,0.0029879757535621063
27.554000000000002,0.00463136334877403,0.00463136334877403
27.555000000000003,0.005313540860143575,0.005313540860143575
27.556,0.004337786040175324,0.004337786040175324
27.557000000000002,0.0013725090113935175,0.0013725090113935175
27.558000000000003,0.003410007520784667,-0.003410007520784667
27.559,0.009327237117842169,-0.009327237117842169
27.560000000000002,0.015327562326075066,-0.015327562326075066
27.561000000000003,0.020247002969649514,-0.020247002969649514
27.562,0.023110277486052298,-0.023110277486052298
27.563000000000002,0.023387499238604635,-0.023387499238604635
27.564,0.021129028049108416,-0.021129028049108416
27.565,0.016937908553791972,-0.016937908553791972
27.566000000000003,0.011789975546536,-0.011789975546536
27.567,0.006759211547485948,-0.006759211547485948
27.568,0.0027343474658970126,-0.0027343474658970126
27.569000000000003,0.00021255185654328756,-0.00021255185654328756
27.57,0.000772268941518497,0.000772268941518497
27.571,0.0005754742796265156,0.0005754742796265156
27.572000000000003,0.00024074057091227072,-0.00024074057091227072
27.573,0.0011273058852524058,-0.0011273058852524058
27.574,0.0017271370961161078,-0.0017271370961161078
27.575000000000003,0.001954312627290381,-0.001954312627290381
27.576,0.001954842307086855,-0.001954842307086855
27.577,0.0019750767335060962,-0.0019750767335060962
27.578000000000003,0.0021971810640583323,-0.0021971810640583323
27.579,0.0026111885491481505,-0.0026111885491481505
27.580000000000002,0.0029767943087501765,-0.0029767943087501765
27.581000000000003,0.0028918547507903293,-0.0028918547507903293
27.582,0.001942385346338665,-0.001942385346338665
27.583000000000002,0.00012335130998374248,0.00012335130998374248
27.584000000000003,0.0032641961785000624,0.0032641961785000624
27.585,0.00711069246393189,0.00711069246393189
27.586000000000002,0.011041179085586678,0.011041179085586678
27.587000000000003,0.014343752561205451,0.014343752561205451
27.588,0.01640628913696341,0.01640628913696341
27.589000000000002,0.016866654935311743,0.016866654935311743
27.590000000000003,0.015671358562220846,0.015671358562220846
27.591,0.013027240719558292,0.013027240719558292
27.592000000000002,0.00927340411575068,0.00927340411575068
27.593000000000004,0.004732717020080461,0.004732717020080461
27.594,0.00038929393830870854,-0.00038929393830870854
27.595000000000002,0.0060098773827617176,-0.0060098773827617176
27.596,0.012071580791447625,-0.012071580791447625
27.597,0.018381832670771606,-0.018381832670771606
27.598000000000003,0.024464160151544314,-0.024464160151544314
27.599,0.029502514516122354,-0.029502514516122354
27.6,0.03243391513335276,-0.03243391513335276
27.601000000000003,0.03219216079846313,-0.03219216079846313
27.602,0.028044306422173503,-0.028044306422173503
27.603,0.019914399615439216,-0.019914399615439216
27.604000000000003,0.008574905713544259,-0.008574905713544259
27.605,0.004385865204151682,0.004385865204151682
27.606,0.016847828658129466,0.016847828658129466
27.607000000000003,0.026640839930572046,0.026640839930572046
27.608,0.03209844924143556,0.03209844924143556
27.609,0.03252144521919767,0.03252144521919767
27.610000000000003,0.02840263613529514,0.02840263613529514
27.611,0.021327494782202992,0.021327494782202992
27.612000000000002,0.013560324264660955,0.013560324264660955
27.613000000000003,0.007423237204845124,0.007423237204845124
27.614,0.004643901546981857,0.004643901546981857
27.615000000000002,0.005864258254003819,0.005864258254003819
27.616000000000003,0.010459079026875453,0.010459079026875453
27.617,0.01672229691825924,0.01672229691825924
27.618000000000002,0.02236826542523474,0.02236826542523474
27.619000000000003,0.02519925900122259,0.02519925900122259
27.62,0.023740155982731537,0.023740155982731537
27.621000000000002,0.017652587907431957,0.017652587907431957
27.622000000000003,0.007810389044384295,0.007810389044384295
27.623,0.003976312498473091,-0.003976312498473091
27.624000000000002,0.015493339047487733,-0.015493339047487733
27.625000000000004,0.02474044199236766,-0.02474044199236766
27.626,0.03044450339629112,-0.03044450339629112
27.627000000000002,0.03231841686193797,-0.03231841686193797
27.628,0.03100327903649204,-0.03100327903649204
27.629,0.02773542767120902,-0.02773542767120902
27.630000000000003,0.023866152157489367,-0.023866152157489367
27.631,0.020402814191016756,-0.020402814191016756
27.632,0.017723566505699853,-0.017723566505699853
27.633000000000003,0.01555116869718063,-0.01555116869718063
27.634,0.013178460729683443,-0.013178460729683443
27.635,0.009850967655920865,-0.009850967655920865
27.636000000000003,0.00516021133148732,-0.00516021133148732
27.637,0.0006986690611325666,0.0006986690611325666
27.638,0.006900697567886135,0.006900697567886135
27.639000000000003,0.012209051110857214,0.012209051110857214
27.64,0.015363961974731314,0.015363961974731314
27.641000000000002,0.01550942493481822,0.01550942493481822
27.642000000000003,0.012511025182907622,0.012511025182907622
27.643,0.007054686974995099,0.007054686974995099
27.644000000000002,0.0004894510491850476,0.0004894510491850476
27.645000000000003,0.005537880113575052,-0.005537880113575052
27.646,0.009540888625243677,-0.009540888625243677
27.647000000000002,0.010600976245285405,-0.010600976245285405
27.648000000000003,0.008600029652929534,-0.008600029652929534
27.649,0.004213360712983883,-0.004213360712983883
27.650000000000002,0.0013242091314610263,0.0013242091314610263
27.651000000000003,0.006596086131556709,0.006596086131556709
27.652,0.010402608738524222,0.010402608738524222
27.653000000000002,0.012059853151649584,0.012059853151649584
27.654000000000003,0.011518335397861833,0.011518335397861833
27.655,0.009284793335517764,0.009284793335517764
27.656000000000002,0.0061937123001224335,0.0061937123001224335
27.657,0.003117660507625752,0.003117660507625752
27.658,0.0007143499121452855,0.0007143499121452855
27.659000000000002,0.0007163388139348457,-0.0007163388139348457
27.66,0.0012386217420750141,-0.0012386217420750141
27.661,0.0011734752248310973,-0.0011734752248310973
27.662000000000003,0.000935910974020393,-0.000935910974020393
27.663,0.0008842570105180797,-0.0008842570105180797
27.664,0.0012315230700883173,-0.0012315230700883173
27.665000000000003,0.0020346850645170654,-0.0020346850645170654
27.666,0.003241984232641385,-0.003241984232641385
27.667,0.004756061740721803,-0.004756061740721803
27.668000000000003,0.00647049740786332,-0.00647049740786332
27.669,0.008258005875957585,-0.008258005875957585
27.67,0.009920082582258198,-0.009920082582258198
27.671000000000003,0.01113545530252135,-0.01113545530252135
27.672,0.011454879142189562,-0.011454879142189562
27.673000000000002,0.010376306674412271,-0.010376306674412271
27.674000000000003,0.007500992421477253,-0.007500992421477253
27.675,0.0027303747467262857,-0.0027303747467262857
27.676000000000002,0.003567352436479962,0.003567352436479962
27.677000000000003,0.010498523605042163,0.010498523605042163
27.678,0.016746417578159412,0.016746417578159412
27.679000000000002,0.02083842109636026,0.02083842109636026
27.680000000000003,0.021522302893895097,0.021522302893895097
27.681,0.018148191883489886,0.018148191883489886
27.682000000000002,0.010935415349703718,0.010935415349703718
27.683000000000003,0.0010257265086606362,0.0010257265086606362
27.684,0.009717382489472282,-0.009717382489472282
27.685000000000002,0.019126608724102514,-0.019126608724102514
27.686000000000003,0.025258278623471617,-0.025258278623471617
27.687,0.02688068648055303,-0.02688068648055303
27.688000000000002,0.02377932811551187,-0.02377932811551187
27.689,0.016785840273512546,-0.016785840273512546
27.69,0.007519724808109439,-0.007519724808109439
27.691000000000003,0.0020801011731945767,0.0020801011731945767
27.692,0.010291659636832484,0.010291659636832484
27.693,0.016051029052892532,0.016051029052892532
27.694000000000003,0.01916600842488828,0.01916600842488828
27.695,0.02024335808164148,0.02024335808164148
27.696,0.020362737444264662,0.020362737444264662
27.697000000000003,0.020611549193960667,0.020611549193960667
27.698,0.021638607840949963,0.021638607840949963
27.699,0.02337669287879899,0.02337669287879899
27.700000000000003,0.02502732722323462,0.02502732722323462
27.701,0.025314224333898454,0.025314224333898454
27.702,0.022923231773345636,0.022923231773345636
27.703000000000003,0.01698509626640939,0.01698509626640939
27.704,0.00744273558731312,0.00744273558731312
27.705000000000002,0.004818768792197496,-0.004818768792197496
27.706000000000003,0.018125888789753592,-0.018125888789753592
27.707,0.030411031597085064,-0.030411031597085064
27.708000000000002,0.03972976297736459,-0.03972976297736459
27.709000000000003,0.04474646362937634,-0.04474646362937634
27.71,0.04504632149822958,-0.04504632149822958
27.711000000000002,0.04118757001554331,-0.04118757001554331
27.712000000000003,0.03448863634968437,-0.03448863634968437
27.713,0.02662421822241422,-0.02662421822241422
27.714000000000002,0.01915757335434228,-0.01915757335434228
27.715000000000003,0.013148100873561,-0.013148100873561
27.716,0.00894205689129043,-0.00894205689129043
27.717000000000002,0.006192071380569589,-0.006192071380569589
27.718000000000004,0.004079199498328796,-0.004079199498328796
27.719,0.001652535538584651,-0.001652535538584651
27.720000000000002,0.0018267237943463575,0.0018267237943463575
27.721,0.006640975233465319,0.006640975233465319
27.722,0.01253564941248945,0.01253564941248945
27.723000000000003,0.018810084330144985,0.018810084330144985
27.724,0.024534295767936875,0.024534295767936875
27.725,0.0288125135941938,0.0288125135941938
27.726000000000003,0.0310091819339166,0.0310091819339166
27.727,0.030875174666952478,0.030875174666952478
27.728,0.0285512988518839,0.0285512988518839
27.729000000000003,0.02446807294813221,0.02446807294813221
27.73,0.01919116430595687,0.01919116430595687
27.731,0.013271867123830772,0.013271867123830772
27.732000000000003,0.007150460837625439,0.007150460837625439
27.733,0.0011335195995346432,0.0011335195995346432
27.734,0.004564794312882054,-0.004564794312882054
27.735000000000003,0.009751266063256811,-0.009751266063256811
27.736,0.014194482133634221,-0.014194482133634221
27.737000000000002,0.017611984192273136,-0.017611984192273136
27.738000000000003,0.019716211186026213,-0.019716211186026213
27.739,0.020305763141824973,-0.020305763141824973
27.740000000000002,0.019367738383545486,-0.019367738383545486
27.741000000000003,0.017148675310187645,-0.017148675310187645
27.742,0.01415875347642971,-0.01415875347642971
27.743000000000002,0.011093894129494082,-0.011093894129494082
27.744000000000003,0.008686612761416215,-0.008686612761416215
27.745,0.0075204948787846735,-0.0075204948787846735
27.746000000000002,0.007857527473769558,-0.007857527473769558
27.747000000000003,0.009527930318255697,-0.009527930318255697
27.748,0.011918525312012063,-0.011918525312012063
27.749000000000002,0.014071920467222587,-0.014071920467222587
27.750000000000004,0.014881274568489634,-0.014881274568489634
27.751,0.013341179303039824,-0.013341179303039824
27.752000000000002,0.0088000639312219,-0.0088000639312219
27.753,0.0011568235816686659,-0.0011568235816686659
27.754,0.009045548476873905,0.009045548476873905
27.755000000000003,0.020656056709008944,0.020656056709008944
27.756,0.032081721323115736,0.032081721323115736
27.757,0.04155649048813787,0.04155649048813787
27.758000000000003,0.04746350831894254,0.04746350831894254
27.759,0.04864795075956388,0.04864795075956388
27.76,0.04465662489883775,0.04465662489883775
27.761000000000003,0.035852567961209725,0.035852567961209725
27.762,0.023376318697805022,0.023376318697805022
27.763,0.008956237653537428,0.008956237653537428
27.764000000000003,0.005397857423837685,-0.005397857423837685
27.765,0.017757365920387052,-0.017757365920387052
27.766000000000002,0.02661952783414068,-0.02661952783414068
27.767000000000003,0.03116184638352097,-0.03116184638352097
27.768,0.03135304392151895,-0.03135304392151895
27.769000000000002,0.027899185101952165,-0.027899185101952165
27.770000000000003,0.022041272527309627,-0.022041272527309627
27.771,0.015254870999413628,-0.015254870999413628
27.772000000000002,0.008924375204452802,-0.008924375204452802
27.773000000000003,0.004068504031943568,-0.004068504031943568
27.774,0.001178254305373976,-0.001178254305373976
27.775000000000002,0.00019785738510035152,-0.00019785738510035152
27.776000000000003,0.0006414799174456803,-0.0006414799174456803
27.777,0.0018037234021357582,-0.0018037234021357582
27.778000000000002,0.002999747783120597,-0.002999747783120597
27.779000000000003,0.0037668538835950774,-0.0037668538835950774
27.78,0.003974189654812368,-0.003974189654812368
27.781000000000002,0.003816171056020947,-0.003816171056020947
27.782,0.003699654588332529,-0.003699654588332529
