Czas,AbsSum,Sum
86.286,0.019023772530608177,0.019023772530608177
86.287,0.01217822966917193,0.01217822966917193
86.28800000000001,0.002927335096484589,0.002927335096484589
86.289,0.007037203927606927,-0.007037203927606927
86.29,0.01591149007412432,-0.01591149007412432
86.29100000000001,0.02218505005829929,-0.02218505005829929
86.292,0.024960097314542486,-0.024960097314542486
86.293,0.024108220552789963,-0.024108220552789963
86.29400000000001,0.020234314847648018,-0.020234314847648018
86.295,0.014469426279941557,-0.014469426279941557
86.296,0.008157048850718707,-0.008157048850718707
86.29700000000001,0.002519983866413655,-0.002519983866413655
86.298,0.0016075396675711763,0.0016075396675711763
86.299,0.003922363169151609,0.003922363169151609
86.30000000000001,0.00464730625849188,0.00464730625849188
86.301,0.004395863394153183,0.004395863394153183
86.302,0.0039545771770589265,0.0039545771770589265
86.30300000000001,0.0040455679369308575,0.0040455679369308575
86.304,0.00512888146771118,0.00512888146771118
86.305,0.007287522994344274,0.007287522994344274
86.30600000000001,0.010213774325362232,0.010213774325362232
86.307,0.013290746065115953,0.013290746065115953
86.308,0.015743675894360334,0.015743675894360334
86.30900000000001,0.016824164474028087,0.016824164474028087
86.31,0.0159876382220568,0.0159876382220568
86.311,0.013028424843153575,0.013028424843153575
86.31200000000001,0.008145961877750851,0.008145961877750851
86.313,0.0019281557780329633,0.0019281557780329633
86.31400000000001,0.004747466115030557,-0.004747466115030557
86.31500000000001,0.010878664311022879,-0.010878664311022879
86.316,0.015538834078283912,-0.015538834078283912
86.31700000000001,0.018071584668661225,-0.018071584668661225
86.31800000000001,0.018235050773123405,-0.018235050773123405
86.319,0.016258197269738702,-0.016258197269738702
86.32000000000001,0.012788848947379406,-0.012788848947379406
86.32100000000001,0.008738779654062404,-0.008738779654062404
86.322,0.00505902789904144,-0.00505902789904144
86.32300000000001,0.0025006974299978356,-0.0025006974299978356
86.32400000000001,0.00142520287558532,-0.00142520287558532
86.325,0.0017186852235564671,-0.0017186852235564671
86.32600000000001,0.002838838591889316,-0.002838838591889316
86.32700000000001,0.0039851356686774085,-0.0039851356686774085
86.328,0.004346206664519596,-0.004346206664519596
86.32900000000001,0.0033528074094183805,-0.0033528074094183805
86.33000000000001,0.0008604210160365482,-0.0008604210160365482
86.331,0.0027951515492491722,0.0027951515492491722
86.33200000000001,0.006887779315806097,0.006887779315806097
86.33300000000001,0.010509814619339775,0.010509814619339775
86.334,0.012835008459897898,0.012835008459897898
86.33500000000001,0.013353014525947953,0.013353014525947953
86.33600000000001,0.01200191796729026,0.01200191796729026
86.337,0.00915863723895861,0.00915863723895861
86.33800000000001,0.005494211397827421,0.005494211397827421
86.33900000000001,0.0017461329177105732,0.0017461329177105732
86.34,0.001512510610644016,-0.001512510610644016
86.34100000000001,0.004027126117860294,-0.004027126117860294
86.34200000000001,0.005886748038074651,-0.005886748038074651
86.343,0.007414538951442263,-0.007414538951442263
86.34400000000001,0.00896716760596473,-0.00896716760596473
86.34500000000001,0.010720986956339149,-0.010720986956339149
86.346,0.012529874839201588,-0.012529874839201588
86.34700000000001,0.013915749044520302,-0.013915749044520302
86.34800000000001,0.014205655211446743,-0.014205655211446743
86.349,0.012775001309420596,-0.012775001309420596
86.35000000000001,0.009314149243769903,-0.009314149243769903
86.35100000000001,0.004020804978221899,-0.004020804978221899
86.352,0.0023600470827825444,0.0023600470827825444
86.35300000000001,0.008678781880747687,0.008678781880747687
86.35400000000001,0.013674992030131007,0.013674992030131007
86.355,0.016337115704250605,0.016337115704250605
86.35600000000001,0.016214548595848637,0.016214548595848637
86.35700000000001,0.013577933135288068,0.013577933135288068
86.358,0.009367486937181226,0.009367486937181226
86.35900000000001,0.004935056612796528,0.004935056612796528
86.36000000000001,0.0016519319548431743,0.0016519319548431743
86.361,0.0004995544389161284,0.0004995544389161284
86.36200000000001,0.0017689389822640985,0.0017689389822640985
86.363,0.004963452301984901,0.004963452301984901
86.364,0.008938055888618063,0.008938055888618063
86.36500000000001,0.01223561131824853,0.01223561131824853
86.366,0.013520303745354007,0.013520303745354007
86.367,0.011978703597184354,0.011978703597184354
86.36800000000001,0.00756947013438558,0.00756947013438558
86.369,0.0010494242882477733,0.0010494242882477733
86.37,0.0062284527414995456,-0.0062284527414995456
86.37100000000001,0.012682009752193819,-0.012682009752193819
86.372,0.01692228960638116,-0.01692228960638116
86.373,0.0181095777372182,-0.0181095777372182
86.37400000000001,0.016146060248791144,-0.016146060248791144
86.375,0.011660106507562768,-0.011660106507562768
86.376,0.005799542416284884,-0.005799542416284884
86.37700000000001,9.5490253516405e-05,9.5490253516405e-05
86.378,0.004840737793836782,0.004840737793836782
86.379,0.007680246116637231,0.007680246116637231
86.38000000000001,0.008416558306398744,0.008416558306398744
86.381,0.007379062175292785,0.007379062175292785
86.382,0.005258441546893035,0.005258441546893035
86.38300000000001,0.002869300406960943,0.002869300406960943
86.384,0.0009150264033524697,0.0009150264033524697
86.385,0.00018202284814713138,-0.00018202284814713138
86.38600000000001,0.0003495505111864402,-0.0003495505111864402
86.387,0.00016831220896519635,0.00016831220896519635
86.388,0.000920709654782999,0.000920709654782999
86.38900000000001,0.0013936850378281499,0.0013936850378281499
86.39,0.001145370520304278,0.001145370520304278
86.391,9.741700643888005e-05,-9.741700643888005e-05
86.39200000000001,0.0023933019246387493,-0.0023933019246387493
86.393,0.005586764641710794,-0.005586764641710794
86.394,0.00934067750280317,-0.00934067750280317
86.39500000000001,0.013185617726459986,-0.013185617726459986
86.396,0.01657599703129331,-0.01657599703129331
86.397,0.01895058116920858,-0.01895058116920858
86.39800000000001,0.019799940974394397,-0.019799940974394397
86.399,0.0187427929515153,-0.0187427929515153
86.4,0.015606982095277274,-0.015606982095277274
86.40100000000001,0.010501830650531497,-0.010501830650531497
86.402,0.0038611937987214637,-0.0038611937987214637
86.403,0.0035648673911750604,0.0035648673911750604
86.40400000000001,0.010784989016680771,0.010784989016680771
86.405,0.01670856305608262,0.01670856305608262
86.406,0.02033677919467033,0.02033677919467033
86.40700000000001,0.020967079092575048,0.020967079092575048
86.408,0.01836509956549711,0.01836509956549711
86.409,0.01285895809244345,0.01285895809244345
86.41000000000001,0.005323787458856491,0.005323787458856491
86.411,0.0029525103919713935,-0.0029525103919713935
86.412,0.010503441070461746,-0.010503441070461746
86.41300000000001,0.01597331491892064,-0.01597331491892064
86.414,0.018400078538957244,-0.018400078538957244
86.415,0.017426474898129166,-0.017426474898129166
86.41600000000001,0.013386729381289127,-0.013386729381289127
86.417,0.007242023860165975,-0.007242023860165975
86.418,0.00037247334131764375,-0.00037247334131764375
86.41900000000001,0.005731688795555377,0.005731688795555377
86.42,0.009810111139576073,0.009810111139576073
86.421,0.011122467681581528,0.011122467681581528
86.42200000000001,0.009615875540531274,0.009615875540531274
86.423,0.005924017727609793,0.005924017727609793
86.424,0.0011933057358204271,0.0011933057358204271
86.42500000000001,0.0032237588004193412,-0.0032237588004193412
86.426,0.006130831147841124,-0.006130831147841124
86.427,0.006809878280342863,-0.006809878280342863
86.42800000000001,0.005214161864831187,-0.005214161864831187
86.429,0.0019748281754882273,-0.0019748281754882273
86.43,0.001786166668693642,0.001786166668693642
86.43100000000001,0.004789088483818942,0.004789088483818942
86.432,0.005983373162305377,0.005983373162305377
86.433,0.0048765689578998935,0.0048765689578998935
86.43400000000001,0.0017054665004669592,0.0017054665004669592
86.435,0.0026078658532288856,-0.0026078658532288856
86.436,0.0067104876321981205,-0.0067104876321981205
86.43700000000001,0.009215147607246623,-0.009215147607246623
86.438,0.009124770182458624,-0.009124770182458624
86.43900000000001,0.0061574334226977435,-0.0061574334226977435
86.44000000000001,0.0008696333404950824,-0.0008696333404950824
86.441,0.005466766467978515,0.005466766467978515
86.44200000000001,0.011205047464490745,0.011205047464490745
86.44300000000001,0.014785720984755904,0.014785720984755904
86.444,0.015184816729441733,0.015184816729441733
86.44500000000001,0.012214275513482491,0.012214275513482491
86.44600000000001,0.006583044014018794,0.006583044014018794
86.447,0.00030088544003549565,-0.00030088544003549565
86.44800000000001,0.006728663037054504,-0.006728663037054504
86.44900000000001,0.011169311248794998,-0.011169311248794998
86.45,0.012685545972316789,-0.012685545972316789
86.45100000000001,0.011164248329550574,-0.011164248329550574
86.45200000000001,0.0072982389358652745,-0.0072982389358652745
86.453,0.002334157818131244,-0.002334157818131244
86.45400000000001,0.002326737420207426,0.002326737420207426
86.45500000000001,0.005545272395226582,0.005545272395226582
86.456,0.006748794614047758,0.006748794614047758
86.45700000000001,0.006035199274488603,0.006035199274488603
86.45800000000001,0.0040571729505430995,0.0040571729505430995
86.459,0.0017398139874353472,0.0017398139874353472
86.46000000000001,6.318816381364386e-05,-6.318816381364386e-05
86.46100000000001,0.0008549664115460218,-0.0008549664115460218
86.462,0.0006291378724730235,-0.0006291378724730235
86.46300000000001,0.00018430003576045184,0.00018430003576045184
86.46400000000001,0.0009294133384108884,0.0009294133384108884
86.465,0.001005884388020912,0.001005884388020912
86.46600000000001,0.00011472335958990189,0.00011472335958990189
86.46700000000001,0.0016216720891506667,-0.0016216720891506667
86.468,0.003706021203234615,-0.003706021203234615
86.46900000000001,0.0054577373899830925,-0.0054577373899830925
86.47000000000001,0.006274928953439338,-0.006274928953439338
86.471,0.005867319247899987,-0.005867319247899987
86.47200000000001,0.004372606071835556,-0.004372606071835556
86.47300000000001,0.00231280332056784,-0.00231280332056784
86.474,0.0004066922586343312,-0.0004066922586343312
86.47500000000001,0.0006922882688251906,0.0006922882688251906
86.47600000000001,0.0006360048959048005,0.0006360048959048005
86.477,0.0004889352620963662,-0.0004889352620963662
86.47800000000001,0.0021898575185280837,-0.0021898575185280837
86.47900000000001,0.0037442110118711017,-0.0037442110118711017
86.48,0.004458575617015885,-0.004458575617015885
86.48100000000001,0.0039156074970709475,-0.0039156074970709475
86.48200000000001,0.0021188726956770164,-0.0021188726956770164
86.483,0.0005164702272357397,0.0005164702272357397
86.48400000000001,0.003322008475031158,0.003322008475031158
86.48500000000001,0.005623078962651096,0.005623078962651096
86.486,0.006981232438205975,0.006981232438205975
86.48700000000001,0.0073407202155709676,0.0073407202155709676
86.488,0.007023469920123077,0.007023469920123077
86.489,0.006573964522029839,0.006573964522029839
86.49000000000001,0.0065124728623180495,0.0065124728623180495
86.491,0.007091031817816446,0.007091031817816446
86.492,0.008147849483852228,0.008147849483852228
86.49300000000001,0.009121405855355381,0.009121405855355381
86.494,0.009227582279548383,0.009227582279548383
86.495,0.007742538964343678,0.007742538964343678
86.49600000000001,0.004292896263875576,0.004292896263875576
86.497,0.0009516387700720015,-0.0009516387700720015
86.498,0.00725685242050737,-0.00725685242050737
86.49900000000001,0.013489325855789052,-0.013489325855789052
86.5,0.018419380235783753,-0.018419380235783753
86.501,0.021064461335171588,-0.021064461335171588
86.50200000000001,0.02096122986498468,-0.02096122986498468
86.503,0.018278860954277873,-0.018278860954277873
86.504,0.01374041662829485,-0.01374041662829485
86.50500000000001,0.00838430424349006,-0.00838430424349006
86.506,0.00325071726849546,-0.00325071726849546
86.507,0.0008999128447174304,0.0008999128447174304
86.50800000000001,0.0037453526216852198,0.0037453526216852198
86.509,0.005393368240143936,0.005393368240143936
86.51,0.006224903114631986,0.006224903114631986
86.51100000000001,0.006659636689366079,0.006659636689366079
86.512,0.006940294785547713,0.006940294785547713
86.513,0.007021025728173155,0.007021025728173155
86.51400000000001,0.006602306339410577,0.006602306339410577
86.515,0.005296457419023442,0.005296457419023442
86.516,0.0028558055830468295,0.0028558055830468295
86.51700000000001,0.0006307192010551212,-0.0006307192010551212
86.518,0.004657308747303502,-0.004657308747303502
86.519,0.008380195829667555,-0.008380195829667555
86.52000000000001,0.010839558385725333,-0.010839558385725333
86.521,0.011253581333628965,-0.011253581333628965
86.522,0.009283864186068178,-0.009283864186068178
86.52300000000001,0.005177343048461954,-0.005177343048461954
86.524,0.0002698163179198541,0.0002698163179198541
86.525,0.005920384271487878,0.005920384271487878
86.52600000000001,0.010611031147936083,0.010611031147936083
86.527,0.01347185749474031,0.01347185749474031
86.528,0.014146772933627141,0.014146772933627141
86.52900000000001,0.012845526558678084,0.012845526558678084
86.53,0.010216440285202204,0.010216440285202204
86.531,0.007090226361170981,0.007090226361170981
86.53200000000001,0.004188073799811187,0.004188073799811187
86.533,0.001896602695009634,0.001896602695009634
86.534,0.00018543232667018957,0.00018543232667018957
86.53500000000001,0.0013099854134029833,-0.0013099854134029833
86.536,0.0030777169845649117,-0.0030777169845649117
86.537,0.005473942859235306,-0.005473942859235306
86.53800000000001,0.008520899159637496,-0.008520899159637496
86.539,0.011835743892491356,-0.011835743892491356
86.54,0.014719582446699105,-0.014719582446699105
86.54100000000001,0.016377294326433454,-0.016377294326433454
86.542,0.016190992943647408,-0.016190992943647408
86.543,0.013949889969784853,-0.013949889969784853
86.54400000000001,0.009953948353397546,-0.009953948353397546
86.545,0.004952541212905798,-0.004952541212905798
86.546,6.334676444834e-05,6.334676444834e-05
86.54700000000001,0.004146339706520957,0.004146339706520957
86.548,0.006660234761945924,0.006660234761945924
86.549,0.0074420293992811274,0.0074420293992811274
86.55000000000001,0.006807944242107316,0.006807944242107316
86.551,0.005407040276576342,0.005407040276576342
86.552,0.003977608597908535,0.003977608597908535
86.55300000000001,0.003092718833614154,0.003092718833614154
86.554,0.002981777320371514,0.002981777320371514
86.555,0.003485293146413012,0.003485293146413012
86.55600000000001,0.004151442032213647,0.004151442032213647
86.557,0.0044329977896639975,0.0044329977896639975
86.558,0.003909380624651289,0.003909380624651289
86.55900000000001,0.0024524340130883926,0.0024524340130883926
86.56,0.00027753600052812355,0.00027753600052812355
86.561,0.0021351007741390628,-0.0021351007741390628
86.56200000000001,0.004216440622534115,-0.004216440622534115
86.563,0.005514512544726559,-0.005514512544726559
86.56400000000001,0.005852812641924819,-0.005852812641924819
86.56500000000001,0.005382180183813575,-0.005382180183813575
86.566,0.004506842638896548,-0.004506842638896548
86.56700000000001,0.0037121100010341383,-0.0037121100010341383
86.56800000000001,0.0033582508002440266,-0.0033582508002440266
86.569,0.0035190959244907213,-0.0035190959244907213
86.57000000000001,0.0039296771200902645,-0.0039296771200902645
86.57100000000001,0.004069365907282574,-0.004069365907282574
86.572,0.0033584290513380163,-0.0033584290513380163
86.57300000000001,0.0014033782284813996,-0.0014033782284813996
86.57400000000001,0.001795164893734555,0.001795164893734555
86.575,0.005751131984811865,0.005751131984811865
86.57600000000001,0.009562666256794439,0.009562666256794439
86.57700000000001,0.01213595894768625,0.01213595894768625
86.578,0.012504751793848162,0.012504751793848162
86.57900000000001,0.010151602430788723,0.010151602430788723
86.58000000000001,0.0052297387618150245,0.0052297387618150245
86.581,0.0013916462452745197,-0.0013916462452745197
86.58200000000001,0.008286957833069873,-0.008286957833069873
86.58300000000001,0.013807395219790158,-0.013807395219790158
86.584,0.01650390658360512,-0.01650390658360512
86.58500000000001,0.015525964976882998,-0.015525964976882998
86.58600000000001,0.010883981299943791,-0.010883981299943791
86.587,0.0034968456945828974,-0.0034968456945828974
86.58800000000001,0.004997337064263582,0.004997337064263582
86.58900000000001,0.01262531211019954,0.01262531211019954
86.59,0.017561867148122565,0.017561867148122565
86.59100000000001,0.018587923419980848,0.018587923419980848
86.59200000000001,0.015403807677794153,0.015403807677794153
86.593,0.008714540220298907,0.008714540220298907
86.59400000000001,6.288424666772245e-05,6.288424666772245e-05
86.59500000000001,0.008548500218350937,-0.008548500218350937
86.596,0.015149593436801183,-0.015149593436801183
86.59700000000001,0.018284434533856697,-0.018284434533856697
86.59800000000001,0.017359022904320832,-0.017359022904320832
86.599,0.012768694210675162,-0.012768694210675162
86.60000000000001,0.005775806211055247,-0.005775806211055247
86.60100000000001,0.0018265810305577316,0.0018265810305577316
86.602,0.008174706717192864,0.008174706717192864
86.60300000000001,0.011797392979022419,0.011797392979022419
86.60400000000001,0.011964327095504702,0.011964327095504702
86.605,0.00883423692437792,0.00883423692437792
86.60600000000001,0.0033725771188288485,0.0033725771188288485
86.60700000000001,0.0029305980396807847,-0.0029305980396807847
86.608,0.00846112858502437,-0.00846112858502437
86.60900000000001,0.011891060273846255,-0.011891060273846255
86.61000000000001,0.01249323388966758,-0.01249323388966758
86.611,0.010285586417205957,-0.010285586417205957
86.61200000000001,0.0059796565427629325,-0.0059796565427629325
86.613,0.0007604302638571488,-0.0007604302638571488
86.614,0.004033836718542669,0.004033836718542669
86.61500000000001,0.007243459136378308,0.007243459136378308
86.616,0.008148143082356342,0.008148143082356342
86.617,0.006601167778695972,0.006601167778695972
86.61800000000001,0.0030198547605930744,0.0030198547605930744
86.619,0.0017469785272892558,-0.0017469785272892558
86.62,0.006627474294452468,-0.006627474294452468
86.62100000000001,0.010554659134359174,-0.010554659134359174
86.622,0.012664674399256868,-0.012664674399256868
86.623,0.012434310256213405,-0.012434310256213405
86.62400000000001,0.009747600381691115,-0.009747600381691115
86.625,0.004897123188788312,-0.004897123188788312
86.626,0.0014672130490861778,0.0014672130490861778
86.62700000000001,0.008429960316411904,0.008429960316411904
86.628,0.014934829479562923,0.014934829479562923
86.629,0.019936597722512005,0.019936597722512005
86.63000000000001,0.02257025308717515,0.02257025308717515
86.631,0.022316989436733495,0.022316989436733495
86.632,0.019134625199787977,0.019134625199787977
86.63300000000001,0.013513583541201777,0.013513583541201777
86.634,0.006425461185214194,0.006425461185214194
86.635,0.0008478069803907088,-0.0008478069803907088
86.63600000000001,0.006983492578237333,-0.006983492578237333
86.637,0.010930606095923872,-0.010930606095923872
86.638,0.012184943413828257,-0.012184943413828257
86.63900000000001,0.01094303449242532,-0.01094303449242532
86.64,0.008075229712257463,-0.008075229712257463
86.641,0.004905378563422412,-0.004905378563422412
86.64200000000001,0.0028425702962158877,-0.0028425702962158877
86.643,0.002961084594072707,-0.002961084594072707
86.644,0.0056502135221622885,-0.0056502135221622885
86.64500000000001,0.010444813470999757,-0.010444813470999757
86.646,0.01610044522879198,-0.01610044522879198
86.647,0.020906123935799048,-0.020906123935799048
86.64800000000001,0.023154356546900224,-0.023154356546900224
86.649,0.021635915762321132,-0.021635915762321132
86.65,0.016013691345052976,-0.016013691345052976
86.65100000000001,0.0069619320648899,-0.0069619320648899
86.652,0.0039744344145017894,0.0039744344145017894
86.653,0.014761917056356861,0.014761917056356861
86.65400000000001,0.0233909090194563,0.0233909090194563
86.655,0.028369346424141413,0.028369346424141413
86.656,0.029057301096064685,0.029057301096064685
86.65700000000001,0.025754747156010834,0.025754747156010834
86.658,0.019533257006452923,0.019533257006452923
86.659,0.011880716228841116,0.011880716228841116
86.66000000000001,0.0042805873598527585,0.0042805873598527585
86.661,0.00214260752094648,-0.00214260752094648
86.662,0.00681360840623413,-0.00681360840623413
86.66300000000001,0.009698445411522445,-0.009698445411522445
86.664,0.011134402533668023,-0.011134402533668023
86.665,0.011585749973968005,-0.011585749973968005
86.66600000000001,0.01142845373607883,-0.01142845373607883
86.667,0.01084260806653667,-0.01084260806653667
86.668,0.009838383404435543,-0.009838383404435543
86.66900000000001,0.008381658193639778,-0.008381658193639778
86.67,0.0065431003919812075,-0.0065431003919812075
86.671,0.004586079912435152,-0.004586079912435152
86.67200000000001,0.002937626814350641,-0.002937626814350641
86.673,0.0020409718353626375,-0.0020409718353626375
86.674,0.002145766245063497,-0.002145766245063497
86.67500000000001,0.003128679349229746,-0.003128679349229746
86.676,0.004436104087707993,-0.004436104087707993
86.677,0.005200002471931917,-0.005200002471931917
86.67800000000001,0.004511251400868666,-0.004511251400868666
86.679,0.0017672244816359954,-0.0017672244816359954
86.68,0.003031173907727981,0.003031173907727981
86.68100000000001,0.009154544956583237,0.009154544956583237
86.682,0.015262991072317456,0.015262991072317456
86.683,0.01975537530170583,0.01975537530170583
86.68400000000001,0.02125223552500203,0.02125223552500203
86.685,0.019057287621005135,0.019057287621005135
86.686,0.013436684164821858,0.013436684164821858
86.68700000000001,0.0056067024582010915,0.0056067024582010915
86.688,0.002585722141310712,-0.002585722141310712
86.68900000000001,0.009200400735775105,-0.009200400735775105
86.69000000000001,0.01279086934093018,-0.01279086934093018
86.691,0.012848279242605488,-0.012848279242605488
86.69200000000001,0.00995093986538065,-0.00995093986538065
86.69300000000001,0.005563288683908418,-0.005563288683908418
86.694,0.0015452711269927184,-0.0015452711269927184
86.69500000000001,0.00046773419265275587,0.00046773419265275587
86.69600000000001,0.00039184366928458707,-0.00039184366928458707
86.697,0.003939681830223,-0.003939681830223
86.69800000000001,0.009010025785742394,-0.009010025785742394
86.69900000000001,0.013855590186389452,-0.013855590186389452
86.7,0.016739293201832695,-0.016739293201832695
86.70100000000001,0.016514987029300845,-0.016514987029300845
86.70200000000001,0.012999385516152361,-0.012999385516152361
86.703,0.007011148631009195,-0.007011148631009195
86.70400000000001,6.979109644862858e-05,-6.979109644862858e-05
86.70500000000001,0.006134287789512335,0.006134287789512335
86.706,0.010308612783902793,0.010308612783902793
86.70700000000001,0.011965122780404819,0.011965122780404819
86.70800000000001,0.011523452975136305,0.011523452975136305
86.709,0.01008014880881454,0.01008014880881454
86.71000000000001,0.008933403398007344,0.008933403398007344
86.71100000000001,0.00904075064573845,0.00904075064573845
86.712,0.010611014097106266,0.010611014097106266
86.71300000000001,0.012983229525942223,0.012983229525942223
86.71400000000001,0.014841655677184883,0.014841655677184883
86.715,0.014694439973222322,0.014694439973222322
86.71600000000001,0.011447452164227389,0.011447452164227389
86.71700000000001,0.004868495723832281,0.004868495723832281
86.718,0.004226578176569977,-0.004226578176569977
86.71900000000001,0.014138417915021505,-0.014138417915021505
86.72000000000001,0.022750554182022986,-0.022750554182022986
86.721,0.028144824414788338,-0.028144824414788338
86.72200000000001,0.029162817996293052,-0.029162817996293052
86.72300000000001,0.02573071631880038,-0.02573071631880038
86.724,0.018847609224801415,-0.018847609224801415
86.72500000000001,0.010252240877374051,-0.010252240877374051
86.72600000000001,0.0018893252806638015,-0.0018893252806638015
86.727,0.004642676204029271,0.004642676204029271
86.72800000000001,0.008484709503690938,0.008484709503690938
86.72900000000001,0.009638794649687216,0.009638794649687216
86.73,0.008806133879760206,0.008806133879760206
86.73100000000001,0.007027716797208852,0.007027716797208852
86.73200000000001,0.005274307284032321,0.005274307284032321
86.733,0.00413622739872449,0.00413622739872449
86.73400000000001,0.0037115388278859056,0.0037115388278859056
86.73500000000001,0.0037065256331732703,0.0037065256331732703
86.736,0.0036787028426907326,0.0036787028426907326
86.73700000000001,0.0033020840853206584,0.0033020840853206584
86.738,0.002535346572404243,0.002535346572404243
86.739,0.0016234026511121708,0.0016234026511121708
86.74000000000001,0.0009400059388152758,0.0009400059388152758
86.741,0.000751170281696424,0.000751170281696424
86.742,0.0010164475636737327,0.0010164475636737327
86.74300000000001,0.0013317467653928075,0.0013317467653928075
86.744,0.0010581294339497235,0.0010581294339497235
86.745,0.00040054904432265513,-0.00040054904432265513
86.74600000000001,0.003278887215584406,-0.003278887215584406
86.747,0.007227528315942481,-0.007227528315942481
86.748,0.01129883177929102,-0.01129883177929102
86.74900000000001,0.014178309773947894,-0.014178309773947894
86.75,0.014603845880774326,-0.014603845880774326
86.751,0.011834049914065259,-0.011834049914065259
86.75200000000001,0.0059940732579278596,-0.0059940732579278596
86.753,0.0018423532300724918,0.0018423532300724918
86.754,0.009889748706890737,0.009889748706890737
86.75500000000001,0.016149174717009322,0.016149174717009322
86.756,0.019012449422844274,0.019012449422844274
86.757,0.017770104186952386,0.017770104186952386
86.75800000000001,0.012845280113365843,0.012845280113365843
86.759,0.005665142936249326,0.005665142936249326
86.76,0.001794387890462836,-0.001794387890462836
86.76100000000001,0.0076396753007217065,-0.0076396753007217065
86.762,0.010651124896068127,-0.010651124896068127
86.763,0.010631955080972907,-0.010631955080972907
86.76400000000001,0.008394610207290732,-0.008394610207290732
86.765,0.005393777663426975,-0.005393777663426975
86.766,0.003141647855107757,-0.003141647855107757
86.76700000000001,0.002620174602996759,-0.002620174602996759
86.768,0.003907198045437369,-0.003907198045437369
86.769,0.0061564206026216255,-0.0061564206026216255
86.77000000000001,0.007942111960763868,-0.007942111960763868
86.771,0.007844252799517419,-0.007844252799517419
86.772,0.005057785273955397,-0.005057785273955397
86.77300000000001,0.00020493738335049152,0.00020493738335049152
86.774,0.006679713681032536,0.006679713681032536
86.775,0.012414940814154818,0.012414940814154818
86.77600000000001,0.01542081088456711,0.01542081088456711
86.777,0.0143815018242939,0.0143815018242939
86.778,0.009177838071128324,0.009177838071128324
86.77900000000001,0.0010264998265498695,0.0010264998265498695
86.78,0.007829388193629156,-0.007829388193629156
86.781,0.014789001888087348,-0.014789001888087348
86.78200000000001,0.017706504084247787,-0.017706504084247787
86.783,0.015579043432293289,-0.015579043432293289
86.784,0.008880226378705973,-0.008880226378705973
86.78500000000001,0.0005730271209931862,0.0005730271209931862
86.786,0.010176320388313394,0.010176320388313394
86.787,0.01733206023792417,0.01733206023792417
86.78800000000001,0.020221466266786933,0.020221466266786933
86.789,0.018306499104205374,0.018306499104205374
86.79,0.012410279462315935,0.012410279462315935
86.79100000000001,0.004369592610183499,0.004369592610183499
86.792,0.0036043725374676114,-0.0036043725374676114
86.793,0.00962993237505533,-0.00962993237505533
86.79400000000001,0.012686822499349994,-0.012686822499349994
86.795,0.012811855712672458,-0.012811855712672458
86.796,0.010919955648759552,-0.010919955648759552
86.79700000000001,0.00834515533844041,-0.00834515533844041
86.798,0.006288727068164558,-0.006288727068164558
86.799,0.005382385646638143,-0.005382385646638143
86.80000000000001,0.005518956181464239,-0.005518956181464239
86.801,0.005994288423853869,-0.005994288423853869
86.802,0.005884391806966918,-0.005884391806966918
86.80300000000001,0.004495442356081006,-0.004495442356081006
86.804,0.0017025286932540855,-0.0017025286932540855
86.805,0.0019579314811249927,0.0019579314811249927
86.80600000000001,0.005477492818081253,0.005477492818081253
86.807,0.007770542317320016,0.007770542317320016
86.808,0.008117674113172433,0.008117674113172433
86.80900000000001,0.006480718151280648,0.006480718151280648
86.81,0.0035608990075316825,0.0035608990075316825
86.811,0.0005694701004625838,0.0005694701004625838
86.81200000000001,0.0012095727424954533,-0.0012095727424954533
86.813,0.0009040998947407304,-0.0009040998947407304
86.81400000000001,0.0015959559436935563,0.0015959559436935563
86.81500000000001,0.005557647155898589,0.005557647155898589
86.816,0.009630383834692693,0.009630383834692693
86.81700000000001,0.012302224871054679,0.012302224871054679
86.81800000000001,0.012426038502607187,0.012426038502607187
86.819,0.0096273553686163,0.0096273553686163
86.82000000000001,0.0044472133062844685,0.0044472133062844685
86.82100000000001,0.0018317641151776704,-0.0018317641151776704
86.822,0.007614112260203446,-0.007614112260203446
86.82300000000001,0.011522149234398373,-0.011522149234398373
86.82400000000001,0.01284021927379678,-0.01284021927379678
86.825,0.011717160688320466,-0.011717160688320466
86.82600000000001,0.009060223718993466,-0.009060223718993466
86.82700000000001,0.00616542114761964,-0.00616542114761964
86.828,0.00422344285620175,-0.00422344285620175
86.82900000000001,0.003882857320281763,-0.003882857320281763
86.83000000000001,0.005028507475333619,-0.005028507475333619
86.831,0.0068522328909682165,-0.0068522328909682165
86.83200000000001,0.008185342969384076,-0.008185342969384076
86.83300000000001,0.007967061655947913,-0.007967061655947913
86.834,0.00567484354931769,-0.00567484354931769
86.83500000000001,0.0015579237091294335,-0.0015579237091294335
86.83600000000001,0.003411761599340284,0.003411761599340284
86.837,0.00785419615638705,0.00785419615638705
86.83800000000001,0.01044886256200795,0.01044886256200795
86.83900000000001,0.010388943901956701,0.010388943901956701
86.84,0.007662406061838002,0.007662406061838002
86.84100000000001,0.0030636188557636966,0.0030636188557636966
86.84200000000001,0.002064542755283242,-0.002064542755283242
86.843,0.00626421342496951,-0.00626421342496951
86.84400000000001,0.008419593084400134,-0.008419593084400134
86.84500000000001,0.00808275411950198,-0.00808275411950198
86.846,0.005565264761307489,-0.005565264761307489
86.84700000000001,0.0017785927722656183,-0.0017785927722656183
86.84800000000001,0.0021058984721335993,0.0021058984721335993
86.849,0.005048358700804089,0.005048358700804089
86.85000000000001,0.0064453148137026675,0.0064453148137026675
86.85100000000001,0.006251146091095816,0.006251146091095816
86.852,0.0048928889048954595,0.0048928889048954595
86.85300000000001,0.003032290729191601,0.003032290729191601
86.85400000000001,0.0012809587473234436,0.0012809587473234436
86.855,1.7092137770110937e-05,-1.7092137770110937e-05
86.85600000000001,0.0008571853580333949,-0.0008571853580333949
86.85700000000001,0.001486161072411908,-0.001486161072411908
86.858,0.00220763225138711,-0.00220763225138711
86.85900000000001,0.0031751886362244323,-0.0031751886362244323
86.86000000000001,0.004270222670467451,-0.004270222670467451
86.861,0.005122556448475078,-0.005122556448475078
86.86200000000001,0.005269336097817507,-0.005269336097817507
86.863,0.004386314751619578,-0.004386314751619578
86.864,0.002490684676929891,-0.002490684676929891
86.86500000000001,2.069637695436189e-05,-2.069637695436189e-05
86.866,0.002257061243917266,0.002257061243917266
86.867,0.003493803230846144,0.003493803230846144
86.86800000000001,0.003075073119123761,0.003075073119123761
86.869,0.0008898298004708387,0.0008898298004708387
86.87,0.0025564413887286612,-0.0025564413887286612
86.87100000000001,0.006241603303156592,-0.006241603303156592
86.872,0.008920919853793055,-0.008920919853793055
86.873,0.009523981683202279,-0.009523981683202279
86.87400000000001,0.007521091807498341,-0.007521091807498341
86.875,0.0031304162158097442,-0.0031304162158097442
86.876,0.002711699685746785,0.002711699685746785
86.87700000000001,0.00861476254916169,0.00861476254916169
86.878,0.013149109359796811,0.013149109359796811
86.879,0.015275474094815233,0.015275474094815233
86.88000000000001,0.014646793483468895,0.014646793483468895
86.881,0.011683238121367963,0.011683238121367963
86.882,0.007398978751412644,0.007398978751412644
86.88300000000001,0.0030437210251502583,0.0030437210251502583
86.884,0.0003159384146613196,-0.0003159384146613196
86.885,0.0021321108851749338,-0.0021321108851749338
86.88600000000001,0.0025163615138255524,-0.0025163615138255524
86.887,0.0021431276318933765,-0.0021431276318933765
86.888,0.001955911739630465,-0.001955911739630465
86.88900000000001,0.002783394220105244,-0.002783394220105244
86.89,0.005001395848259187,-0.005001395848259187
86.891,0.008358235320768124,-0.008358235320768124
86.89200000000001,0.01202306772769632,-0.01202306772769632
86.893,0.01484018638443919,-0.01484018638443919
86.894,0.015703571924235632,-0.015703571924235632
86.89500000000001,0.013927976447118474,-0.013927976447118474
86.896,0.009496923940731728,-0.009496923940731728
86.897,0.0031108373847471837,-0.0031108373847471837
86.89800000000001,0.003976071867041775,0.003976071867041775
86.899,0.010276152142239361,0.010276152142239361
86.9,0.014447638257720503,0.014447638257720503
86.90100000000001,0.015623975544198516,0.015623975544198516
86.902,0.013607296326234265,0.013607296326234265
86.903,0.008886423383232905,0.008886423383232905
86.90400000000001,0.002491980756537184,0.002491980756537184
86.905,0.004257503512806109,-0.004257503512806109
86.906,0.010045139496769067,-0.010045139496769067
86.90700000000001,0.013811845136533442,-0.013811845136533442
86.908,0.014932016188414617,-0.014932016188414617
86.909,0.013290066425611853,-0.013290066425611853
86.91000000000001,0.009263610651001715,-0.009263610651001715
86.911,0.0036329922964306216,-0.0036329922964306216
86.912,0.0025600109178925395,0.0025600109178925395
86.91300000000001,0.008184512340505816,0.008184512340505816
86.914,0.012206925467815235,0.012206925467815235
86.915,0.013872729927951957,0.013872729927951957
86.91600000000001,0.012858460328150533,0.012858460328150533
86.917,0.009362279694802073,0.009362279694802073
86.918,0.004101672254078738,0.004101672254078738
86.91900000000001,0.0018010034977914578,-0.0018010034977914578
86.92,0.007039535007548653,-0.007039535007548653
86.921,0.010414058158929264,-0.010414058158929264
86.92200000000001,0.011124742340246411,-0.011124742340246411
86.923,0.008990139987814411,-0.008990139987814411
86.924,0.004521521482117863,-0.004521521482117863
86.92500000000001,0.0011815002622071042,0.0011815002622071042
86.926,0.006699106289811485,0.006699106289811485
86.927,0.010657826579952998,0.010657826579952998
86.92800000000001,0.012095839496390728,0.012095839496390728
86.929,0.01072182740412476,0.01072182740412476
86.93,0.0069893258905606446,0.0069893258905606446
86.93100000000001,0.0019612493875731506,0.0019612493875731506
86.932,0.0029983224428237303,-0.0029983224428237303
86.933,0.006615700931680873,-0.006615700931680873
86.93400000000001,0.008067748766630576,-0.008067748766630576
86.935,0.007205776845767403,-0.007205776845767403
86.936,0.004580165380576835,-0.004580165380576835
86.93700000000001,0.0012629661305312689,-0.0012629661305312689
86.938,0.001474817565143133,0.001474817565143133
86.93900000000001,0.0025343562129110783,0.0025343562129110783
86.94000000000001,0.0013020963588021898,0.0013020963588021898
86.941,0.002179273087657318,-0.002179273087657318
86.94200000000001,0.007220975430091246,-0.007220975430091246
86.94300000000001,0.012665946036917366,-0.012665946036917366
86.944,0.017177322621850788,-0.017177322621850788
86.94500000000001,0.01955786950285973,-0.01955786950285973
86.94600000000001,0.019022188761316495,-0.019022188761316495
86.947,0.015365159884059775,-0.015365159884059775
86.94800000000001,0.009001742849625082,-0.009001742849625082
86.94900000000001,0.0008840915543795146,-0.0008840915543795146
86.95,0.007676138348041646,0.007676138348041646
86.95100000000001,0.015242060542826374,0.015242060542826374
86.95200000000001,0.02050314719885271,0.02050314719885271
86.953,0.02250826944354664,0.02250826944354664
86.95400000000001,0.020847920373272166,0.020847920373272166
86.95500000000001,0.0157560540363657,0.0157560540363657
86.956,0.008106295647883404,0.008106295647883404
86.95700000000001,0.0007123890353388001,-0.0007123890353388001
86.95800000000001,0.009036002864551744,-0.009036002864551744
86.959,0.015249730303886561,-0.015249730303886561
86.96000000000001,0.018134977179442426,-0.018134977179442426
86.96100000000001,0.01715819725163224,-0.01715819725163224
86.962,0.012620181786808338,-0.012620181786808338
86.96300000000001,0.005609771099626268,-0.005609771099626268
86.96400000000001,0.0022458543685743427,0.0022458543685743427
86.965,0.009183069353893184,0.009183069353893184
86.96600000000001,0.013753191341162816,0.013753191341162816
86.96700000000001,0.01519571826363689,0.01519571826363689
86.968,0.013619488666797273,0.013619488666797273
86.96900000000001,0.009930103801879017,0.009930103801879017
86.97000000000001,0.005518890325965066,0.005518890325965066
86.971,0.0018061780857887295,0.0018061780857887295
86.97200000000001,0.0002168765044893082,-0.0002168765044893082
86.97300000000001,0.00029791847751726097,-0.00029791847751726097
86.974,0.0010206317494577965,0.0010206317494577965
86.97500000000001,0.0026214087803118854,0.0026214087803118854
86.97600000000001,0.003235793744788406,0.003235793744788406
86.977,0.001926757827218936,0.001926757827218936
86.97800000000001,0.0015386400396917097,-0.0015386400396917097
86.97900000000001,0.006562520689486667,-0.006562520689486667
86.98,0.011887336635329038,-0.011887336635329038
86.98100000000001,0.01601224717780849,-0.01601224717780849
86.98200000000001,0.017712478906914533,-0.017712478906914533
86.983,0.01647782756953174,-0.01647782756953174
86.98400000000001,0.012709628828770548,-0.012709628828770548
86.98500000000001,0.0075975431868117544,-0.0075975431868117544
86.986,0.002710893494661974,-0.002710893494661974
86.98700000000001,0.0005558566160755053,0.0005558566160755053
86.988,0.0014859564528224788,0.0014859564528224788
86.989,0.0003058179318308679,0.0003058179318308679
86.99000000000001,0.0018927823719463988,-0.0018927823719463988
86.991,0.0035580207617836564,-0.0035580207617836564
86.992,0.003274454928768803,-0.003274454928768803
86.99300000000001,0.000338246143333413,-0.000338246143333413
86.994,0.004902944857723007,0.004902944857723007
86.995,0.011083577100985698,0.011083577100985698
86.99600000000001,0.016236217678723668,0.016236217678723668
86.997,0.018460529171978643,0.018460529171978643
86.998,0.016618150947757176,0.016618150947757176
86.99900000000001,0.010805779968687718,0.010805779968687718
87.0,0.002425670624723146,0.002425670624723146
87.001,0.006193326535847761,-0.006193326535847761
87.00200000000001,0.012515229488579268,-0.012515229488579268
87.003,0.014624452391611678,-0.014624452391611678
87.004,0.011882353381458596,-0.011882353381458596
87.00500000000001,0.00518275387430757,-0.00518275387430757
87.006,0.003293406357597036,0.003293406357597036
87.007,0.010755891185848614,0.010755891185848614
87.00800000000001,0.014698339746056827,0.014698339746056827
87.009,0.01371229766711288,0.01371229766711288
87.01,0.007949651084010505,0.007949651084010505
87.01100000000001,0.000923617092704044,-0.000923617092704044
87.012,0.010269219789922087,-0.010269219789922087
87.013,0.017333689396616968,-0.017333689396616968
87.01400000000001,0.0201340693850207,-0.0201340693850207
87.015,0.01807631864051507,-0.01807631864051507
87.016,0.01210235230827704,-0.01210235230827704
87.01700000000001,0.004322860562672288,-0.004322860562672288
87.018,0.0027317807143590945,0.0027317807143590945
87.019,0.006981369818018574,0.006981369818018574
87.02000000000001,0.007487075671269717,0.007487075671269717
87.021,0.004729491281568745,0.004729491281568745
87.022,0.0003841988402551176,0.0003841988402551176
87.02300000000001,0.003319896810880774,-0.003319896810880774
87.024,0.004430727681283179,-0.004430727681283179
87.025,0.001999957743113326,-0.001999957743113326
87.02600000000001,0.0035466693996456205,0.0035466693996456205
87.027,0.010523196396042774,0.010523196396042774
87.028,0.01654083447787549,0.01654083447787549
87.02900000000001,0.019315736916844226,0.019315736916844226
87.03,0.017449942833165175,0.017449942833165175
87.031,0.010920499486096854,0.010920499486096854
87.03200000000001,0.0011145478990421918,0.0011145478990421918
87.033,0.009595505600256474,-0.009595505600256474
87.034,0.018587502486443013,-0.018587502486443013
87.03500000000001,0.023785840258013308,-0.023785840258013308
87.036,0.02425565331782753,-0.02425565331782753
87.037,0.02040860222142194,-0.02040860222142194
87.03800000000001,0.013771343237496939,-0.013771343237496939
87.039,0.006416585425752346,-0.006416585425752346
87.04,0.00026533442897568027,-0.00026533442897568027
87.04100000000001,0.003498531174372774,0.003498531174372774
87.042,0.004712051835564625,0.004712051835564625
87.043,0.004140779478917797,0.004140779478917797
87.04400000000001,0.0030704985102764744,0.0030704985102764744
87.045,0.0027503090693953625,0.0027503090693953625
87.046,0.003896834008270432,0.003896834008270432
87.04700000000001,0.006435312311252215,0.006435312311252215
87.048,0.009558343329130319,0.009558343329130319
87.049,0.012063700546193904,0.012063700546193904
87.05000000000001,0.012832831426063517,0.012832831426063517
87.051,0.011266517078479595,0.011266517078479595
87.052,0.007517708054540913,0.007517708054540913
87.05300000000001,0.0024424235680907997,0.0024424235680907997
87.054,0.0027039101763399074,-0.0027039101763399074
87.055,0.0067050283454523135,-0.0067050283454523135
87.05600000000001,0.00879274374623224,-0.00879274374623224
87.057,0.00887875862356804,-0.00887875862356804
87.058,0.0075324366744707804,-0.0075324366744707804
87.05900000000001,0.005723638135901489,-0.005723638135901489
87.06,0.004435001107628167,-0.004435001107628167
87.061,0.004291548290509746,-0.004291548290509746
87.06200000000001,0.005342717322244206,-0.005342717322244206
87.063,0.007069719667357474,-0.007069719667357474
87.06400000000001,0.008604511815203636,-0.008604511815203636
87.06500000000001,0.009068837623436665,-0.009068837623436665
87.066,0.007901565185078412,-0.007901565185078412
87.06700000000001,0.005053591616913811,-0.005053591616913811
87.06800000000001,0.0009858032244099777,-0.0009858032244099777
87.069,0.0035161223360577086,0.0035161223360577086
87.07000000000001,0.0076267343910257105,0.0076267343910257105
87.07100000000001,0.010748144906215626,0.010748144906215626
87.072,0.012655707690071145,0.012655707690071145
87.07300000000001,0.013472777685431288,0.013472777685431288
87.07400000000001,0.01349861371744983,0.01349861371744983
87.075,0.012975731333088035,0.012975731333088035
87.07600000000001,0.01190894750975942,0.01190894750975942
87.07700000000001,0.010027100768117638,0.010027100768117638
87.078,0.006917784397005719,0.006917784397005719
87.07900000000001,0.0022890620863710294,0.0022890620863710294
87.08000000000001,0.003749402061253811,-0.003749402061253811
87.081,0.010514373292357989,-0.010514373292357989
87.08200000000001,0.016784523783756177,-0.016784523783756177
87.08300000000001,0.021068839378069602,-0.021068839378069602
87.084,0.022043706405881137,-0.022043706405881137
87.08500000000001,0.019021088625981956,-0.019021088625981956
87.08600000000001,0.012282059145068648,-0.012282059145068648
87.087,0.00314043873303478,-0.00314043873303478
87.08800000000001,0.006317006009433198,0.006317006009433198
87.08900000000001,0.013760709769792726,0.013760709769792726
87.09,0.017270402023963575,0.017270402023963575
87.09100000000001,0.01591043007352988,0.01591043007352988
87.09200000000001,0.010043361046716905,0.010043361046716905
87.093,0.0012723387112112052,0.0012723387112112052
87.09400000000001,0.007983713141295836,-0.007983713141295836
87.09500000000001,0.015162876056559024,-0.015162876056559024
87.096,0.01828292669437613,-0.01828292669437613
87.09700000000001,0.016498891139083847,-0.016498891139083847
87.09800000000001,0.010330844559508496,-0.010330844559508496
87.099,0.0014985302061635245,-0.0014985302061635245
87.10000000000001,0.007581471665027398,0.007581471665027398
87.10100000000001,0.014481070226080637,0.014481070226080637
87.102,0.017424688417643084,0.017424688417643084
87.10300000000001,0.01574304962272433,0.01574304962272433
87.10400000000001,0.009998893082700806,0.009998893082700806
87.105,0.001769227488447313,0.001769227488447313
87.10600000000001,0.006830878058774311,-0.006830878058774311
87.10700000000001,0.013730259335731099,-0.013730259335731099
87.108,0.017419825777116798,-0.017419825777116798
87.10900000000001,0.01727216148762045,-0.01727216148762045
87.11000000000001,0.013598678505199942,-0.013598678505199942
87.111,0.0074620509938627755,-0.0074620509938627755
87.11200000000001,0.00032785859136872676,-0.00032785859136872676
87.113,0.006328143418120552,0.006328143418120552
87.114,0.011347285437439111,0.011347285437439111
87.11500000000001,0.01407774275075513,0.01407774275075513
87.116,0.014407025757191612,0.014407025757191612
87.117,0.012665258172075962,0.012665258172075962
87.11800000000001,0.009456362552939367,0.009456362552939367
87.119,0.00547908004554416,0.00547908004554416
87.12,0.0013841603792001816,0.0013841603792001816
87.12100000000001,0.002311670637507117,-0.002311670637507117
87.122,0.005258465777569628,-0.005258465777569628
87.123,0.007270021481024661,-0.007270021481024661
87.12400000000001,0.008303964429461023,-0.008303964429461023
87.125,0.008436258172461946,-0.008436258172461946
87.126,0.0078317084222998,-0.0078317084222998
87.12700000000001,0.006706795136959954,-0.006706795136959954
87.128,0.005283413041964344,-0.005283413041964344
87.129,0.0037400903453661274,-0.0037400903453661274
87.13000000000001,0.0021755375868498755,-0.0021755375868498755
87.131,0.0006017680928756278,-0.0006017680928756278
87.132,0.0010230710484764958,0.0010230710484764958
87.13300000000001,0.002727438941739769,0.002727438941739769
87.134,0.004447800834559653,0.004447800834559653
87.135,0.005973604359640025,0.005973604359640025
87.13600000000001,0.006949491407636749,0.006949491407636749
87.137,0.006951736438589467,0.006951736438589467
87.138,0.005628021438184469,0.005628021438184469
87.13900000000001,0.0028603681006830494,0.0028603681006830494
87.14,0.0011076787328821282,-0.0011076787328821282
87.141,0.005637266482847799,-0.005637266482847799
87.14200000000001,0.00978756421863101,-0.00978756421863101
87.143,0.012529209090122539,-0.012529209090122539
87.144,0.013026525422764975,-0.013026525422764975
87.14500000000001,0.01090525407136996,-0.01090525407136996
87.146,0.006416206959548098,-0.006416206959548098
87.147,0.0004295997857001862,-0.0004295997857001862
87.14800000000001,0.005755786543766748,0.005755786543766748
87.149,0.010745073471285985,0.010745073471285985
87.15,0.013428230571958601,0.013428230571958601
87.15100000000001,0.013294257964086934,0.013294257964086934
87.152,0.010578079939208625,0.010578079939208625
87.153,0.006188270743260723,0.006188270743260723
87.15400000000001,0.0014316744545066944,0.0014316744545066944
87.155,0.0023836257972025716,-0.0023836257972025716
87.156,0.004344506404182355,-0.004344506404182355
87.15700000000001,0.004203363500753383,-0.004203363500753383
87.158,0.002436385312261509,-0.002436385312261509
87.159,6.983964102857928e-05,-6.983964102857928e-05
87.16000000000001,0.0016710392909168672,0.0016710392909168672
87.161,0.0017785690492190607,0.0017785690492190607
87.162,0.000189116414624991,-0.000189116414624991
87.16300000000001,0.003940387053255337,-0.003940387053255337
87.164,0.00851786374513427,-0.00851786374513427
87.165,0.012581414005337454,-0.012581414005337454
87.16600000000001,0.014817917532563226,-0.014817917532563226
87.167,0.014349610589759063,-0.014349610589759063
87.168,0.011014067526001259,-0.011014067526001259
87.16900000000001,0.005430085302645231,-0.005430085302645231
87.17,0.0011688918897746778,0.0011688918897746778
87.171,0.007280467834394109,0.007280467834394109
87.17200000000001,0.011551358006364879,0.011551358006364879
87.173,0.013142086288891755,0.013142086288891755
87.174,0.01193274131490958,0.01193274131490958
87.17500000000001,0.008515776316778731,0.008515776316778731
87.176,0.003987565009604684,0.003987565009604684
87.177,0.00039048072739338605,-0.00039048072739338605
87.17800000000001,0.0035556303785452235,-0.0035556303785452235
87.179,0.004925464197741359,-0.004925464197741359
87.18,0.004520976930311237,-0.004520976930311237
87.18100000000001,0.002905796676584671,-0.002905796676584671
87.182,0.0009711654990866869,-0.0009711654990866869
87.183,0.00036127875713007845,0.00036127875713007845
87.18400000000001,0.00042849295573273215,0.00042849295573273215
87.185,0.0009747574489621159,-0.0009747574489621159
87.186,0.0035369267686686705,-0.0035369267686686705
87.18700000000001,0.006519120997801847,-0.006519120997801847
87.188,0.008960547197167873,-0.008960547197167873
87.18900000000001,0.009939716833424697,-0.009939716833424697
87.19000000000001,0.008821884293978538,-0.008821884293978538
87.191,0.005432572124551442,-0.005432572124551442
87.19200000000001,0.00012003094086333771,-0.00012003094086333771
87.19300000000001,0.0063016268081715785,0.0063016268081715785
87.194,0.01270990542650287,0.01270990542650287
87.19500000000001,0.017894012978404338,0.017894012978404338
87.19600000000001,0.020790638272070238,0.020790638272070238
87.197,0.020689709876410098,0.020689709876410098
87.19800000000001,0.01737352833795842,0.01737352833795842
87.19900000000001,0.011166641783623163,0.011166641783623163
87.2,0.002889864625339334,0.002889864625339334
87.20100000000001,0.006272316602265756,-0.006272316602265756
87.20200000000001,0.01496777402899828,-0.01496777402899828
87.203,0.021902535514652363,-0.021902535514652363
87.20400000000001,0.026057135154381347,-0.026057135154381347
87.20500000000001,0.026855057913464007,-0.026855057913464007
87.206,0.024252547949785416,-0.024252547949785416
87.20700000000001,0.018733166506925147,-0.018733166506925147
87.20800000000001,0.01120877246594273,-0.01120877246594273
87.209,0.0028473800737884177,-0.0028473800737884177
87.21000000000001,0.005136731705222453,0.005136731705222453
87.21100000000001,0.011688053278422065,0.011688053278422065
87.212,0.01606994346559585,0.01606994346559585
87.21300000000001,0.017951509165755407,0.017951509165755407
87.21400000000001,0.017410975714521222,0.017410975714521222
87.215,0.014864630695118853,0.014864630695118853
87.21600000000001,0.01094602846532687,0.01094602846532687
87.21700000000001,0.006368072806404099,0.006368072806404099
87.218,0.0017993525463236171,0.0017993525463236171
87.21900000000001,0.0022230290633690466,-0.0022230290633690466
87.22000000000001,0.005335396914291165,-0.005335396914291165
87.221,0.007348856391362438,-0.007348856391362438
87.22200000000001,0.008223947596932546,-0.008223947596932546
87.22300000000001,0.008035415472377504,-0.008035415472377504
87.224,0.00694062335268381,-0.00694062335268381
87.22500000000001,0.005157841549136189,-0.005157841549136189
87.22600000000001,0.0029526598996163504,-0.0029526598996163504
87.227,0.0006252882494124752,-0.0006252882494124752
87.22800000000001,0.0015095434531495907,0.0015095434531495907
87.22900000000001,0.0031548913305914513,0.0031548913305914513
87.23,0.004074523446029571,0.004074523446029571
87.23100000000001,0.004138224381145639,0.004138224381145639
87.23200000000001,0.0033569867826932823,0.0033569867826932823
87.233,0.001895499494150835,0.001895499494150835
87.23400000000001,5.367610730038587e-05,5.367610730038587e-05
87.23500000000001,0.0017834698955005123,-0.0017834698955005123
87.236,0.00321973146289324,-0.00321973146289324
87.23700000000001,0.003930455535031521,-0.003930455535031521
87.238,0.0037356448015215624,-0.0037356448015215624
87.239,0.0026459156052216428,-0.0026459156052216428
87.24000000000001,0.000869151828533203,-0.000869151828533203
87.241,0.0012258646992513375,0.0012258646992513375
87.242,0.0031829552522927287,0.0031829552522927287
87.24300000000001,0.004554653577133146,0.004554653577133146
87.244,0.00500067538027126,0.00500067538027126
87.245,0.004367024197858107,0.004367024197858107
87.24600000000001,0.0027272975249896915,0.0027272975249896915
87.247,0.0003753592722935378,0.0003753592722935378
87.248,0.0022309474739338046,-0.0022309474739338046
87.24900000000001,0.004564154843603828,-0.004564154843603828
87.25,0.006139372037045318,-0.006139372037045318
87.251,0.0066191183138127295,-0.0066191183138127295
87.25200000000001,0.005886516475346396,-0.005886516475346396
87.253,0.0040696705488895675,-0.0040696705488895675
87.254,0.0015118212373788163,-0.0015118212373788163
87.25500000000001,0.0013046317835910082,0.0013046317835910082
87.256,0.0038606396481921587,0.0038606396481921587
87.257,0.005703803317061634,0.005703803317061634
87.25800000000001,0.006527886824464565,0.006527886824464565
87.259,0.006212170346173122,0.006212170346173122
87.26,0.004816926839255621,0.004816926839255621
87.26100000000001,0.002544272766572533,0.002544272766572533
87.262,0.00031744473094814067,-0.00031744473094814067
87.263,0.003445726703977513,-0.003445726703977513
87.26400000000001,0.006518204550791661,-0.006518204550791661
87.265,0.009225802808947685,-0.009225802808947685
87.266,0.011273120384404183,-0.011273120384404183
87.26700000000001,0.012381762439528744,-0.012381762439528744
87.268,0.012311948368794281,-0.012311948368794281
87.269,0.010908981077378225,-0.010908981077378225
87.27000000000001,0.008167060634231189,-0.008167060634231189
87.271,0.004289084716346811,-0.004289084716346811
87.272,0.00028622890999795066,0.00028622890999795066
87.27300000000001,0.004914896584641035,0.004914896584641035
87.274,0.008845680743338736,0.008845680743338736
87.275,0.011372586582315053,0.011372586582315053
87.27600000000001,0.012006198292771773,0.012006198292771773
87.277,0.010614335087323047,0.010614335087323047
87.278,0.007484024314076486,0.007484024314076486
87.27900000000001,0.003275406481257954,0.003275406481257954
87.28,0.0011304869615514632,-0.0011304869615514632
87.281,0.0048536535156103785,-0.0048536535156103785
87.28200000000001,0.007244396883443819,-0.007244396883443819
87.283,0.008050171293124629,-0.008050171293124629
87.284,0.007465496133903885,-0.007465496133903885
87.28500000000001,0.006045135412736083,-0.006045135412736083
87.286,0.0045044162976248464,-0.0045044162976248464
87.287,0.0034689061668175514,-0.0034689061668175514
87.28800000000001,0.0032552203508163153,-0.0032552203508163153
87.289,0.0037576952890404003,-0.0037576952890404003
87.29,0.0044829834349905135,-0.0044829834349905135
87.29100000000001,0.004726174048315673,-0.004726174048315673
87.292,0.003833631339993089,-0.003833631339993089
87.293,0.0014659071858219863,-0.0014659071858219863
87.29400000000001,0.002229629672818824,0.002229629672818824
87.295,0.0066000789567872776,0.0066000789567872776
87.296,0.010636719197059746,0.010636719197059746
87.29700000000001,0.013252124478422887,0.013252124478422887
87.298,0.013600357447754511,0.013600357447754511
87.299,0.011339706609499149,0.011339706609499149
87.30000000000001,0.006754264533094944,0.006754264533094944
87.301,0.0006952320562214945,0.0006952320562214945
87.302,0.005639628981238571,-0.005639628981238571
87.30300000000001,0.011018818366413325,-0.011018818366413325
87.304,0.014485033932808217,-0.014485033932808217
87.305,0.015566092377569483,-0.015566092377569483
87.30600000000001,0.014332100684138944,-0.014332100684138944
87.307,0.011295150222127763,-0.011295150222127763
87.308,0.007199697008520357,-0.007199697008520357
87.30900000000001,0.0027845312878068554,-0.0027845312878068554
87.31,0.001400106409352382,0.001400106409352382
87.311,0.005064104525286566,0.005064104525286566
87.31200000000001,0.008128145287061583,0.008128145287061583
87.313,0.010591806548483877,0.010591806548483877
87.31400000000001,0.012388784943091896,0.012388784943091896
87.31500000000001,0.013301932934120067,0.013301932934120067
87.316,0.012984472760241715,0.012984472760241715
87.31700000000001,0.011088169767479485,0.011088169767479485
87.31800000000001,0.007451917082273885,0.007451917082273885
87.319,0.0022735483952286088,0.0022735483952286088
87.32000000000001,0.003813749156301938,-0.003813749156301938
87.32100000000001,0.009809540539165737,-0.009809540539165737
87.322,0.014557265972205472,-0.014557265972205472
87.32300000000001,0.017043202757930108,-0.017043202757930108
87.32400000000001,0.016691122002760343,-0.016691122002760343
87.325,0.013554507163622397,-0.013554507163622397
87.32600000000001,0.00833660659954199,-0.00833660659954199
87.32700000000001,0.00222250407653767,-0.00222250407653767
87.328,0.003431398983819751,0.003431398983819751
87.32900000000001,0.007457721074246622,0.007457721074246622
87.33000000000001,0.009178494905959974,0.009178494905959974
87.331,0.008555279547297236,0.008555279547297236
87.33200000000001,0.006147851715268494,0.006147851715268494
87.33300000000001,0.0029023486729534216,0.0029023486729534216
87.334,0.00015668882329939246,-0.00015668882329939246
87.33500000000001,0.002228776961658122,-0.002228776961658122
87.33600000000001,0.002940573571204429,-0.002940573571204429
87.337,0.0023943691713955847,-0.0023943691713955847
87.33800000000001,0.0010617600357783873,-0.0010617600357783873
87.33900000000001,0.00042621482744344775,0.00042621482744344775
87.34,0.0015109560720100806,0.0015109560720100806
87.34100000000001,0.0018791402638517853,0.0018791402638517853
87.34200000000001,0.0015245067615847507,0.0015245067615847507
87.343,0.0006918824653863888,0.0006918824653863888
87.34400000000001,0.00025948126853629443,-0.00025948126853629443
87.34500000000001,0.0010101676881021416,-0.0010101676881021416
87.346,0.0013898336630377467,-0.0013898336630377467
87.34700000000001,0.0014039052123351631,-0.0014039052123351631
87.34800000000001,0.001178509614289644,-0.001178509614289644
87.349,0.0008597333371483199,-0.0008597333371483199
87.35000000000001,0.0005211242621552195,-0.0005211242621552195
87.35100000000001,0.00012670190625471245,-0.00012670190625471245
87.352,0.0004311660447044513,0.0004311660447044513
87.35300000000001,0.001236680821962898,0.001236680821962898
87.35400000000001,0.0022459875601995517,0.0022459875601995517
87.355,0.003230132609714355,0.003230132609714355
87.35600000000001,0.003806372929331604,0.003806372929331604
87.35700000000001,0.003561894691841493,0.003561894691841493
87.358,0.002231319269915914,0.002231319269915914
87.35900000000001,0.00014141456808634023,-0.00014141456808634023
87.36000000000001,0.003130888146854881,-0.003130888146854881
87.361,0.005995854516228843,-0.005995854516228843
87.36200000000001,0.0078816343690048,-0.0078816343690048
87.363,0.008103310312473593,-0.008103310312473593
87.364,0.006414369322773015,-0.006414369322773015
87.36500000000001,0.0031584184308200342,-0.0031584184308200342
87.366,0.0007672436734238418,0.0007672436734238418
87.367,0.004146358070186294,0.004146358070186294
87.36800000000001,0.005816115970305023,0.005816115970305023
87.369,0.005061399226993399,0.005061399226993399
87.37,0.0018966630327734244,0.0018966630327734244
87.37100000000001,0.0028708845606713164,-0.0028708845606713164
87.372,0.007835923117397264,-0.007835923117397264
87.373,0.011401258811658363,-0.011401258811658363
87.37400000000001,0.012274824923103885,-0.012274824923103885
87.375,0.009899176907634668,-0.009899176907634668
87.376,0.004669608620869425,-0.004669608620869425
87.37700000000001,0.0021395358367332644,0.0021395358367332644
87.378,0.00872806012658248,0.00872806012658248
87.379,0.013298750128352734,0.013298750128352734
87.38000000000001,0.014598328448164633,0.014598328448164633
87.381,0.012299896645488827,0.012299896645488827
87.382,0.007104816437683851,0.007104816437683851
87.38300000000001,0.0005307336507886267,0.0005307336507886267
87.384,0.005547718749079655,-0.005547718749079655
87.385,0.009460916847940447,-0.009460916847940447
87.38600000000001,0.01023344729988854,-0.01023344729988854
87.387,0.007850926524411687,-0.007850926524411687
87.388,0.003228152420193428,-0.003228152420193428
87.38900000000001,0.0021018848792213273,0.0021018848792213273
87.39,0.006472017703296734,0.006472017703296734
87.391,0.008582229625459025,0.008582229625459025
87.39200000000001,0.007864604671360432,0.007864604671360432
87.393,0.004608858667772275,0.004608858667772275
87.394,0.00017417236234312927,-0.00017417236234312927
87.39500000000001,0.005091276228261045,-0.005091276228261045
87.396,0.008790390969286452,-0.008790390969286452
87.397,0.010335523597635643,-0.010335523597635643
87.39800000000001,0.00942729311771032,-0.00942729311771032
87.399,0.006421690212038712,-0.006421690212038712
87.4,0.0021666703543421124,-0.0021666703543421124
87.40100000000001,0.0022711202024125678,0.0022711202024125678
87.402,0.0058947008325922895,0.0058947008325922895
87.403,0.007996872367744426,0.007996872367744426
87.40400000000001,0.008265593550888675,0.008265593550888675
87.405,0.006773673696731566,0.006773673696731566
87.406,0.0038883700438223953,0.0038883700438223953
87.40700000000001,0.00015192321221734763,0.00015192321221734763
87.408,0.003823858568153279,-0.003823858568153279
87.409,0.007429663585586276,-0.007429663585586276
87.41000000000001,0.010104449570651505,-0.010104449570651505
87.411,0.011377788544712657,-0.011377788544712657
87.412,0.010929659236483215,-0.010929659236483215
87.41300000000001,0.008670423960395744,-0.008670423960395744
87.414,0.00481906370423035,-0.00481906370423035
87.415,6.0159655327076775e-05,6.0159655327076775e-05
87.41600000000001,0.0051026224287598915,0.0051026224287598915
87.417,0.00928876185405533,0.00928876185405533
87.418,0.011672579508360514,0.011672579508360514
87.41900000000001,0.01163786674182188,0.01163786674182188
87.42,0.00910337569104269,0.00910337569104269
87.421,0.004601237025393908,0.004601237025393908
87.42200000000001,0.0008149551413070317,-0.0008149551413070317
87.423,0.005823529013396886,-0.005823529013396886
87.424,0.00918541575653579,-0.00918541575653579
87.42500000000001,0.010089827261000781,-0.010089827261000781
87.426,0.00838689227361675,-0.00838689227361675
87.427,0.004630139710393793,-0.004630139710393793
87.42800000000001,8.949841075216988e-05,8.949841075216988e-05
87.429,0.004469146740996178,0.004469146740996178
87.43,0.007377136440678123,0.007377136440678123
87.43100000000001,0.008172633423954577,0.008172633423954577
87.432,0.006861802060487458,0.006861802060487458
87.433,0.004045660352664226,0.004045660352664226
87.43400000000001,0.0006847751010878386,0.0006847751010878386
87.435,0.0022335239794691077,-0.0022335239794691077
87.436,0.0040097371515093695,-0.0040097371515093695
87.43700000000001,0.004423656623774066,-0.004423656623774066
87.438,0.0037448527984520596,-0.0037448527984520596
87.43900000000001,0.002570440544801392,-0.002570440544801392
87.44000000000001,0.0015594898859845746,-0.0015594898859845746
87.441,0.0011676639666186287,-0.0011676639666186287
87.44200000000001,0.0014811614425369521,-0.0014811614425369521
87.44300000000001,0.002208283609425905,-0.002208283609425905
87.444,0.0028256794940242887,-0.0028256794940242887
87.44500000000001,0.0028176248821427698,-0.0028176248821427698
87.44600000000001,0.0019123738978449312,-0.0019123738978449312
87.447,0.0002221385090756624,-0.0002221385090756624
87.44800000000001,0.0017688537518516238,0.0017688537518516238
87.44900000000001,0.0033652019802294137,0.0033652019802294137
87.45,0.003910132142549841,0.003910132142549841
87.45100000000001,0.0030305481884217184,0.0030305481884217184
87.45200000000001,0.000785592092618703,0.000785592092618703
87.453,0.0023363853524221052,-0.0023363853524221052
87.45400000000001,0.005570428212761322,-0.005570428212761322
87.45500000000001,0.008119462161284376,-0.008119462161284376
87.456,0.009399953289913561,-0.009399953289913561
87.45700000000001,0.009200083318547573,-0.009200083318547573
87.45800000000001,0.007697772261674046,-0.007697772261674046
87.459,0.00534152565407406,-0.00534152565407406
87.46000000000001,0.002650477654452899,-0.002650477654452899
87.46100000000001,2.0071197822434406e-05,-2.0071197822434406e-05
87.462,0.00238543813702542,0.00238543813702542
87.46300000000001,0.004611160260598079,0.004611160260598079
87.46400000000001,0.006774808171300166,0.006774808171300166
87.465,0.008881529728212838,0.008881529728212838
87.46600000000001,0.010682628497162864,0.010682628497162864
87.46700000000001,0.011657969474306792,0.011657969474306792
87.468,0.01115410593472477,0.01115410593472477
87.46900000000001,0.008644431492473308,0.008644431492473308
87.47000000000001,0.004019396456027744,0.004019396456027744
87.471,0.002211909896916439,-0.002211909896916439
87.47200000000001,0.008909439432192252,-0.008909439432192252
87.47300000000001,0.014520068207731775,-0.014520068207731775
87.474,0.017484663893847383,-0.017484663893847383
87.47500000000001,0.01671816851311795,-0.01671816851311795
87.47600000000001,0.01200664291809942,-0.01200664291809942
87.477,0.004177854975352667,-0.004177854975352667
87.47800000000001,0.005033698778090031,0.005033698778090031
87.47900000000001,0.013409970443927546,0.013409970443927546
87.48,0.01884667316961281,0.01884667316961281
87.48100000000001,0.01994723346220951,0.01994723346220951
87.48200000000001,0.016428918086334558,0.016428918086334558
87.483,0.009210573617161008,0.009210573617161008
87.48400000000001,0.00014976427645101248,0.00014976427645101248
87.48500000000001,0.0084921416291131,-0.0084921416291131
87.486,0.014692017574803297,-0.014692017574803297
87.48700000000001,0.017216227066824196,-0.017216227066824196
87.488,0.015914571631927107,-0.015914571631927107
87.489,0.0116756189648358,-0.0116756189648358
87.49000000000001,0.0060722429404866,-0.0060722429404866
87.491,0.0008243590290873821,-0.0008243590290873821
87.492,0.002740444490102258,0.002740444490102258
87.49300000000001,0.004055254639495472,0.004055254639495472
87.494,0.0034026482894891816,0.0034026482894891816
87.495,0.0017135907163370809,0.0017135907163370809
87.49600000000001,0.00016339934851517058,0.00016339934851517058
87.497,0.00028463707004746215,-0.00028463707004746215
87.498,0.0007721190257821689,0.0007721190257821689
87.49900000000001,0.0030492810512038884,0.0030492810512038884
87.5,0.005703105259025423,0.005703105259025423
87.501,0.007654383752051286,0.007654383752051286
87.50200000000001,0.007985609939692108,0.007985609939692108
87.503,0.006269306655953403,0.006269306655953403
87.504,0.002716716818993533,0.002716716818993533
87.50500000000001,0.001895625486558272,-0.001895625486558272
87.506,0.006484493873270576,-0.006484493873270576
87.507,0.010004842816324917,-0.010004842816324917
87.50800000000001,0.011758576428876953,-0.011758576428876953
87.509,0.01156598631949081,-0.01156598631949081
87.51,0.009754234702122572,-0.009754234702122572
87.51100000000001,0.006985213071408784,-0.006985213071408784
87.512,0.004000002770117522,-0.004000002770117522
87.513,0.0013797487083195997,-0.0013797487083195997
87.51400000000001,0.0005932470727127164,0.0005932470727127164
87.515,0.0019365615323441519,0.0019365615323441519
87.516,0.0028501283128460047,0.0028501283128460047
87.51700000000001,0.0035447391787270933,0.0035447391787270933
87.518,0.0040977500620387654,0.0040977500620387654
87.519,0.004399931473698063,0.004399931473698063
87.52000000000001,0.0042145669574403955,0.0042145669574403955
87.521,0.003319548991160167,0.003319548991160167
87.522,0.0016659790430761216,0.0016659790430761216
87.52300000000001,0.0005222889625658887,-0.0005222889625658887
87.524,0.002760948001191783,-0.002760948001191783
87.525,0.004436615321787748,-0.004436615321787748
87.52600000000001,0.005014371585179145,-0.005014371585179145
87.527,0.004243941575630666,-0.004243941575630666
87.528,0.0022821757082000247,-0.0022821757082000247
87.52900000000001,0.00032281343145134197,0.00032281343145134197
87.53,0.002790221184549178,0.002790221184549178
87.531,0.004358180969437342,0.004358180969437342
87.53200000000001,0.00454170698202906,0.00454170698202906
87.533,0.0033045212822415027,0.0033045212822415027
87.534,0.0010808792932270675,0.0010808792932270675
87.53500000000001,0.001363800901922199,-0.001363800901922199
87.536,0.003187099210928784,-0.003187099210928784
87.537,0.0037508456410872675,-0.0037508456410872675
87.53800000000001,0.002832029191627384,-0.002832029191627384
87.539,0.0006913157873768387,-0.0006913157873768387
87.54,0.0020217945122321377,0.0020217945122321377
87.54100000000001,0.004490241890072166,0.004490241890072166
87.542,0.005996685402331618,0.005996685402331618
87.543,0.0061429039613743715,0.0061429039613743715
87.54400000000001,0.004948308579108499,0.004948308579108499
87.545,0.0028012059287242305,0.0028012059287242305
87.546,0.00029089157987417845,0.00029089157987417845
87.54700000000001,0.0020096510005238343,-0.0020096510005238343
87.548,0.003726970901818054,-0.003726970901818054
87.549,0.0047713835246043605,-0.0047713835246043605
87.55000000000001,0.005299956594356554,-0.005299956594356554
87.551,0.005585382605289041,-0.005585382605289041
87.552,0.005854376665623923,-0.005854376665623923
87.55300000000001,0.006168581799594325,-0.006168581799594325
87.554,0.0063998179556144135,-0.0063998179556144135
87.555,0.006308793151792655,-0.006308793151792655
87.55600000000001,0.005689765071854775,-0.005689765071854775
87.557,0.004512527094494413,-0.004512527094494413
87.558,0.0029909298542454546,-0.0029909298542454546
87.55900000000001,0.0015358592134065818,-0.0015358592134065818
87.56,0.0005994992152287168,-0.0005994992152287168
87.561,0.000467419753099221,-0.000467419753099221
87.56200000000001,0.0010848687532966908,-0.0010848687532966908
87.563,0.001999859844472949,-0.001999859844472949
87.56400000000001,0.002467174114529105,-0.002467174114529105
87.56500000000001,0.0016969396230398005,-0.0016969396230398005
87.566,0.0008287794399251012,0.0008287794399251012
87.56700000000001,0.005084359915322283,0.005084359915322283
87.56800000000001,0.010383534589029065,0.010383534589029065
87.569,0.015481333548337976,0.015481333548337976
87.57000000000001,0.01888649277158377,0.01888649277158377
87.57100000000001,0.019299716894043306,0.019299716894043306
87.572,0.016041618698665976,0.016041618698665976
87.57300000000001,0.009327114120239415,0.009327114120239415
87.57400000000001,0.00028546055305823345,0.00028546055305823345
87.575,0.009295564390980376,-0.009295564390980376
87.57600000000001,0.017432781745197558,-0.017432781745197558
87.57700000000001,0.02247946092005383,-0.02247946092005383
87.578,0.023562035367560477,-0.023562035367560477
87.57900000000001,0.020786825596474868,-0.020786825596474868
87.58000000000001,0.015156089050643683,-0.015156089050643683
87.581,0.008227131845972456,-0.008227131845972456
87.58200000000001,0.0016307214435415005,-0.0016307214435415005
87.58300000000001,0.003392490922701577,0.003392490922701577
87.584,0.0062905903831993884,0.0062905903831993884
87.58500000000001,0.007248362949627109,0.007248362949627109
87.58600000000001,0.006987656631464756,0.006987656631464756
87.587,0.006408032556353177,0.006408032556353177
87.58800000000001,0.006206867371100849,0.006206867371100849
87.58900000000001,0.006618367557772797,0.006618367557772797
87.59,0.007361268855186937,0.007361268855186937
87.59100000000001,0.0078041848012177385,0.0078041848012177385
87.59200000000001,0.007275477265912608,0.007275477265912608
87.593,0.005391134938459801,0.005391134938459801
87.59400000000001,0.00226875441383993,0.00226875441383993
87.59500000000001,0.0014600260003033618,-0.0014600260003033618
87.596,0.004848924033946056,-0.004848924033946056
87.59700000000001,0.006976734176928606,-0.006976734176928606
87.59800000000001,0.007300027101302166,-0.007300027101302166
87.599,0.005882618389785535,-0.005882618389785535
87.60000000000001,0.00340764587232496,-0.00340764587232496
87.60100000000001,0.0009563906004104717,-0.0009563906004104717
87.602,0.00037557110767639227,0.00037557110767639227
87.60300000000001,0.00010885713445328342,-0.00010885713445328342
87.60400000000001,0.0024166934370166136,-0.0024166934370166136
87.605,0.005807128566914575,-0.005807128566914575
87.60600000000001,0.009001236125856822,-0.009001236125856822
87.60700000000001,0.010599238896808175,-0.010599238896808175
87.608,0.009570157435319273,-0.009570157435319273
87.60900000000001,0.005648353330099591,-0.005648353330099591
87.61000000000001,0.0005025516556311265,0.0005025516556311265
87.611,0.007423733390035665,0.007423733390035665
87.61200000000001,0.013260922708520516,0.013260922708520516
87.613,0.016309328680798398,0.016309328680798398
87.614,0.01553395795045079,0.01553395795045079
87.61500000000001,0.010901698506166728,0.010901698506166728
87.616,0.0034206967118646987,0.0034206967118646987
87.617,0.005125253509898441,-0.005125253509898441
87.61800000000001,0.012664943138295947,-0.012664943138295947
87.619,0.01740178609442601,-0.01740178609442601
87.62,0.01828308568829161,-0.01828308568829161
87.62100000000001,0.015244717126916127,-0.015244717126916127
87.622,0.009173252445378663,-0.009173252445378663
87.623,0.0016149524986812677,-0.0016149524986812677
87.62400000000001,0.00566650120009406,0.00566650120009406
87.625,0.011146035698152323,0.011146035698152323
87.626,0.013879039199037874,0.013879039199037874
87.62700000000001,0.013648826370805186,0.013648826370805186
87.628,0.010906466378406305,0.010906466378406305
87.629,0.006552394903137067,0.006552394903137067
87.63000000000001,0.0016478697183116868,0.0016478697183116868
87.631,0.0028506100970756214,-0.0028506100970756214
87.632,0.006266332632216674,-0.006266332632216674
87.63300000000001,0.008262167130136945,-0.008262167130136945
87.634,0.008803047379137098,-0.008803047379137098
87.635,0.008066133075773474,-0.008066133075773474
87.63600000000001,0.0063477498983294375,-0.0063477498983294375
87.637,0.0039997797348938265,-0.0039997797348938265
87.638,0.0014015056826257183,-0.0014015056826257183
87.63900000000001,0.001050646843357664,0.001050646843357664
87.64,0.0029628335405686404,0.0029628335405686404
87.641,0.003992694772246752,0.003992694772246752
87.64200000000001,0.003926565578534299,0.003926565578534299
87.643,0.0027610487424167113,0.0027610487424167113
87.644,0.0007512113189519485,0.0007512113189519485
87.64500000000001,0.0016089760008478717,-0.0016089760008478717
87.646,0.003687353973561115,-0.003687353973561115
87.647,0.004877648012813464,-0.004877648012813464
87.64800000000001,0.004780184994585766,-0.004780184994585766
87.649,0.003338455907340232,-0.003338455907340232
87.65,0.0008789053669873479,-0.0008789053669873479
87.65100000000001,0.001969266687471287,0.001969266687471287
87.652,0.004456453257790536,0.004456453257790536
87.653,0.00594141463955623,0.00594141463955623
87.65400000000001,0.0060905925757676425,0.0060905925757676425
87.655,0.004978315656657087,0.004978315656657087
87.656,0.003050091651213588,0.003050091651213588
87.65700000000001,0.0009582454818921515,0.0009582454818921515
87.658,0.0006750480535239539,-0.0006750480535239539
87.659,0.0014844735598074582,-0.0014844735598074582
87.66000000000001,0.0014960881661858383,-0.0014960881661858383
87.661,0.001118052676127809,-0.001118052676127809
87.662,0.0009858437192728426,-0.0009858437192728426
87.66300000000001,0.0017123248296860934,-0.0017123248296860934
87.664,0.003628944755680225,-0.003628944755680225
87.665,0.0066108514235819526,-0.0066108514235819526
87.66600000000001,0.010052847303996,-0.010052847303996
87.667,0.013013211810961618,-0.013013211810961618
87.668,0.014485372981664038,-0.014485372981664038
87.66900000000001,0.013712804396540613,-0.013712804396540613
87.67,0.010445782843943117,-0.010445782843943117
87.671,0.005055659045453402,-0.005055659045453402
87.67200000000001,0.0015326086560026031,0.0015326086560026031
87.673,0.008070950328859253,0.008070950328859253
87.674,0.013311619609250988,0.013311619609250988
87.67500000000001,0.016325586804493277,0.016325586804493277
87.676,0.016722169046492274,0.016722169046492274
87.677,0.014710218767699195,0.014710218767699195
87.67800000000001,0.010992736810436771,0.010992736810436771
87.679,0.006538150376904698,0.006538150376904698
87.68,0.002305868006619169,0.002305868006619169
87.68100000000001,0.000989172042813761,-0.000989172042813761
87.682,0.0030088948630419346,-0.0030088948630419346
87.683,0.003796808724153653,-0.003796808724153653
87.68400000000001,0.0036739119342200266,-0.0036739119342200266
87.685,0.0030770476424470334,-0.0030770476424470334
87.686,0.0024021968704428407,-0.0024021968704428407
87.68700000000001,0.0019034213231112142,-0.0019034213231112142
87.688,0.0016699167304963034,-0.0016699167304963034
87.68900000000001,0.0016708966508604739,-0.0016708966508604739
87.69000000000001,0.0018334672286818927,-0.0018334672286818927
87.691,0.0021108818858450755,-0.0021108818858450755
87.69200000000001,0.0025091307822317287,-0.0025091307822317287
87.69300000000001,0.0030630250853747464,-0.0030630250853747464
87.694,0.0037784046429257157,-0.0037784046429257157
87.69500000000001,0.004574030885244632,-0.004574030885244632
87.69600000000001,0.005258170060054377,-0.005258170060054377
87.697,0.005560362635809118,-0.005560362635809118
87.69800000000001,0.005214497859305248,-0.005214497859305248
87.69900000000001,0.004065197737669709,-0.004065197737669709
87.7,0.0021557839802499265,-0.0021557839802499265
87.70100000000001,0.00024115108642783553,0.00024115108642783553
87.70200000000001,0.002670694653442952,0.002670694653442952
87.703,0.004612015619732664,0.004612015619732664
87.70400000000001,0.005629232048647921,0.005629232048647921
87.70500000000001,0.005506539722977586,0.005506539722977586
87.706,0.004320113704409145,0.004320113704409145
87.70700000000001,0.0024195481891940073,0.0024195481891940073
87.70800000000001,0.00032241355533116557,0.00032241355533116557
87.709,0.001444152152481609,-0.001444152152481609
87.71000000000001,0.002502073399465333,-0.002502073399465333
87.71100000000001,0.00272808664866039,-0.00272808664866039
87.712,0.0022719055139611656,-0.0022719055139611656
87.71300000000001,0.0014827390546851575,-0.0014827390546851575
87.71400000000001,0.0007720285439659587,-0.0007720285439659587
87.715,0.00046207221382002517,-0.00046207221382002517
87.71600000000001,0.0006741639124048793,-0.0006741639124048793
87.71700000000001,0.001294722357221718,-0.001294722357221718
87.718,0.0020292532741573986,-0.0020292532741573986
87.71900000000001,0.002522279883665274,-0.002522279883665274
87.72000000000001,0.002498000129244277,-0.002498000129244277
87.721,0.0018696538961133382,-0.0018696538961133382
87.72200000000001,0.0007776137787500561,-0.0007776137787500561
87.72300000000001,0.00045752551018882155,0.00045752551018882155
87.724,0.0014496992496955243,0.0014496992496955243
87.72500000000001,0.0018884125623300852,0.0018884125623300852
87.72600000000001,0.0016552236619630744,0.0016552236619630744
87.727,0.0008737163564053686,0.0008737163564053686
87.72800000000001,0.0001253663853083193,-0.0001253663853083193
87.72900000000001,0.0009123921314664109,-0.0009123921314664109
87.73,0.0011037459729943894,-0.0011037459729943894
87.73100000000001,0.0004944553509553248,-0.0004944553509553248
87.73200000000001,0.0008654917955238491,0.0008654917955238491
87.733,0.002675432863587909,0.002675432863587909
87.73400000000001,0.004465970777301856,0.004465970777301856
87.73500000000001,0.005730491494190512,0.005730491494190512
87.736,0.006063647313643802,0.006063647313643802
87.73700000000001,0.005264626327259132,0.005264626327259132
87.738,0.0033773564912036704,0.0033773564912036704
87.739,0.0006621686410135673,0.0006621686410135673
87.74000000000001,0.0024844156355858537,-0.0024844156355858537
87.741,0.005630813927840487,-0.005630813927840487
87.742,0.008399290973600246,-0.008399290973600246
87.74300000000001,0.010519013393039286,-0.010519013393039286
87.744,0.011836192087587787,-0.011836192087587787
87.745,0.012291046130143592,-0.012291046130143592
87.74600000000001,0.01188197898678782,-0.01188197898678782
87.747,0.01063837449118736,-0.01063837449118736
87.748,0.008615299571005194,-0.008615299571005194
87.74900000000001,0.005910219667667416,-0.005910219667667416
87.75,0.0026894516676719783,-0.0026894516676719783
87.751,0.0007942565913591427,0.0007942565913591427
87.75200000000001,0.004209351986175842,0.004209351986175842
87.753,0.007184786371242959,0.007184786371242959
87.754,0.00937420116625306,0.00937420116625306
87.75500000000001,0.01052695186672935,0.01052695186672935
87.756,0.010543420149934694,0.010543420149934694
87.757,0.00949618107045991,0.00949618107045991
87.75800000000001,0.007609827294240224,0.007609827294240224
87.759,0.0052062553603587506,0.0052062553603587506
87.76,0.002633564781457397,0.002633564781457397
87.76100000000001,0.00020106137760771413,0.00020106137760771413
87.762,0.0018613591319822504,-0.0018613591319822504
87.763,0.0034120895844229303,-0.0034120895844229303
87.76400000000001,0.004380702063825356,-0.004380702063825356
87.765,0.004740525875921344,-0.004740525875921344
87.766,0.004489251412240838,-0.004489251412240838
87.76700000000001,0.003650176549068511,-0.003650176549068511
87.768,0.0022949419427823583,-0.0022949419427823583
87.769,0.0005757205654964716,-0.0005757205654964716
87.77000000000001,0.0012535430503836222,0.0012535430503836222
87.771,0.0028470455468469725,0.0028470455468469725
87.772,0.003818821571913713,0.003818821571913713
87.77300000000001,0.0038308879808257776,0.0038308879808257776
87.774,0.002695913272667472,0.002695913272667472
87.775,0.0004618147672517853,0.0004618147672517853
87.77600000000001,0.0025542588921275426,-0.0025542588921275426
87.777,0.005803125774762445,-0.005803125774762445
87.778,0.008611720416976068,-0.008611720416976068
87.77900000000001,0.010338873452066794,-0.010338873452066794
87.78,0.010537795337860634,-0.010537795337860634
87.781,0.00907859534063073,-0.00907859534063073
87.78200000000001,0.006192963551207982,-0.006192963551207982
87.783,0.002424404055632276,-0.002424404055632276
87.784,0.0015051543885424231,0.0015051543885424231
87.78500000000001,0.004876437743569912,0.004876437743569912
87.786,0.007150861402422757,0.007150861402422757
87.787,0.008095109943131111,0.008095109943131111
87.78800000000001,0.007817392663703448,0.007817392663703448
87.789,0.006706579670459343,0.006706579670459343
87.79,0.005294074672979186,0.005294074672979186
87.79100000000001,0.004080810226149686,0.004080810226149686
87.792,0.003381434831449207,0.003381434831449207
87.793,0.0032318842290884244,0.0032318842290884244
87.79400000000001,0.00338711431707335,0.00338711431707335
87.795,0.0034088260640837012,0.0034088260640837012
87.796,0.0028165842357880787,0.0028165842357880787
87.79700000000001,0.0012574529427224538,0.0012574529427224538
87.798,0.001355858720279656,-0.001355858720279656
87.799,0.004779273168587802,-0.004779273168587802
87.80000000000001,0.008464672540619476,-0.008464672540619476
87.801,0.011675316473542328,-0.011675316473542328
87.802,0.013660589461303638,-0.013660589461303638
87.80300000000001,0.013845553364315383,-0.013845553364315383
87.804,0.01198685494476115,-0.01198685494476115
87.805,0.00825501545545639,-0.00825501545545639
87.80600000000001,0.00322143059557027,-0.00322143059557027
87.807,0.002248316934508657,0.002248316934508657
87.808,0.007170776109607272,0.007170776109607272
87.80900000000001,0.010650199643180409,0.010650199643180409
87.81,0.012066452214399677,0.012066452214399677
87.811,0.01120284708160796,0.01120284708160796
87.81200000000001,0.008285777595707413,0.008285777595707413
87.813,0.003928583496993953,0.003928583496993953
87.81400000000001,0.0010058801212791885,-0.0010058801212791885
87.81500000000001,0.005591164839457412,-0.005591164839457412
87.816,0.009028474993980485,-0.009028474993980485
87.81700000000001,0.010800114153118417,-0.010800114153118417
87.81800000000001,0.010752388447349968,-0.010752388447349968
87.819,0.009093308628220352,-0.009093308628220352
87.82000000000001,0.006311595994109179,-0.006311595994109179
87.82100000000001,0.0030422502431490042,-0.0030422502431490042
87.822,8.461505596187077e-05,8.461505596187077e-05
87.82300000000001,0.0025737338137117923,0.0025737338137117923
87.82400000000001,0.004144525701639896,0.004144525701639896
87.825,0.004748206554525332,0.004748206554525332
87.82600000000001,0.004528086060779268,0.004528086060779268
87.82700000000001,0.003743998983546881,0.003743998983546881
87.828,0.002688880641994603,0.002688880641994603
87.82900000000001,0.0016228219481269506,0.0016228219481269506
87.83000000000001,0.0007390829560094405,0.0007390829560094405
87.831,0.00016189219733111107,0.00016189219733111107
87.83200000000001,3.690451557842801e-05,-3.690451557842801e-05
87.83300000000001,0.00017876269179251065,0.00017876269179251065
87.834,0.0008100009758474523,0.0008100009758474523
87.83500000000001,0.0018031372000504612,0.0018031372000504612
87.83600000000001,0.0030185400660467285,0.0030185400660467285
87.837,0.004208440568878019,0.004208440568878019
87.83800000000001,0.005026713499713739,0.005026713499713739
87.83900000000001,0.005085264274050113,0.005085264274050113
87.84,0.004054298622292544,0.004054298622292544
87.84100000000001,0.0017832383102254219,0.0017832383102254219
87.84200000000001,0.0015965808865870978,-0.0015965808865870978
87.843,0.0056297831847609385,-0.0056297831847609385
87.84400000000001,0.009585572579976756,-0.009585572579976756
87.84500000000001,0.01260142320132963,-0.01260142320132963
87.846,0.013894103669681274,-0.013894103669681274
87.84700000000001,0.012982793862730959,-0.012982793862730959
87.84800000000001,0.009856585072660885,-0.009856585072660885
87.849,0.005027556532259545,-0.005027556532259545
87.85000000000001,0.0005596539907635929,0.0005596539907635929
87.85100000000001,0.005748243687286043,0.005748243687286043
87.852,0.009463730868372062,0.009463730868372062
87.85300000000001,0.0109989241309236,0.0109989241309236
87.85400000000001,0.010203115957856246,0.010203115957856246
87.855,0.0075144366764127845,0.0075144366764127845
87.85600000000001,0.0038208315510976803,0.0038208315510976803
87.85700000000001,0.00018881380580800653,0.00018881380580800653
87.858,0.0024574527064559473,-0.0024574527064559473
87.85900000000001,0.0036060284743058752,-0.0036060284743058752
87.86000000000001,0.0032896016323435465,-0.0032896016323435465
87.861,0.0020373004588016158,-0.0020373004588016158
87.86200000000001,0.0006617482787227653,-0.0006617482787227653
87.863,4.7455779213681615e-05,4.7455779213681615e-05
87.864,0.00038030949372962056,-0.00038030949372962056
87.86500000000001,0.001914092688826256,-0.001914092688826256
87.866,0.004018588513266858,-0.004018588513266858
87.867,0.0058374772867711274,-0.0058374772867711274
87.86800000000001,0.006504911668911998,-0.006504911668911998
87.869,0.00548051327181131,-0.00548051327181131
87.87,0.0027906825987988066,-0.0027906825987988066
87.87100000000001,0.0009139840678366287,0.0009139840678366287
87.872,0.00451662673566894,0.00451662673566894
87.873,0.006767120751264758,0.006767120751264758
87.87400000000001,0.006688849267055004,0.006688849267055004
87.875,0.003928453709972132,0.003928453709972132
87.876,0.0010694358866850334,-0.0010694358866850334
87.87700000000001,0.007128438517644948,-0.007128438517644948
87.878,0.0126384114571059,-0.0126384114571059
87.879,0.01600177899920991,-0.01600177899920991
87.88000000000001,0.01609570595880024,-0.01609570595880024
87.881,0.012609871118179707,-0.012609871118179707
87.882,0.006156060908095717,-0.006156060908095717
87.88300000000001,0.0018849743946990946,0.0018849743946990946
87.884,0.009734029265425648,0.009734029265425648
87.885,0.015690694445603226,0.015690694445603226
87.88600000000001,0.018576580088202378,0.018576580088202378
87.887,0.01801754460756812,0.01801754460756812
87.888,0.01449032467308014,0.01449032467308014
87.88900000000001,0.009132283578761915,0.009132283578761915
87.89,0.0033835215737118294,0.0033835215737118294
87.891,0.001423675514357722,-0.001423675514357722
87.89200000000001,0.004405268358969037,-0.004405268358969037
87.893,0.005303454906563777,-0.005303454906563777
87.894,0.004466616892579688,-0.004466616892579688
87.89500000000001,0.0026588055330920963,-0.0026588055330920963
87.896,0.0007753714288797854,-0.0007753714288797854
87.897,0.0004383770416044459,0.0004383770416044459
87.89800000000001,0.0005810998895386631,0.0005810998895386631
87.899,0.0003443409903314628,-0.0003443409903314628
87.9,0.002002039476908396,-0.002002039476908396
87.90100000000001,0.003881589128907801,-0.003881589128907801
87.902,0.005478547732468626,-0.005478547732468626
87.903,0.006435156407548853,-0.006435156407548853
87.90400000000001,0.006604270118784125,-0.006604270118784125
87.905,0.00603339496695886,-0.00603339496695886
87.906,0.004895217007218073,-0.004895217007218073
87.90700000000001,0.003405366431426842,-0.003405366431426842
87.908,0.0017636381684405864,-0.0017636381684405864
87.909,0.00013562949701484208,-0.00013562949701484208
87.91000000000001,0.0013323648704126657,0.0013323648704126657
87.911,0.002490065560780598,0.002490065560780598
87.912,0.0031797631736775077,0.0031797631736775077
87.91300000000001,0.0032686748081284397,0.0032686748081284397
87.914,0.0027109555498048207,0.0027109555498048207
87.915,0.001611743727991474,0.001611743727991474
87.91600000000001,0.00025546306041731524,0.00025546306041731524
87.917,0.0009319662526816961,-0.0009319662526816961
87.918,0.0014934585255682667,-0.0014934585255682667
87.91900000000001,0.0010982509469136135,-0.0010982509469136135
87.92,0.0003057007159924324,0.0003057007159924324
87.921,0.002406290531570424,0.002406290531570424
87.92200000000001,0.004556506448530436,0.004556506448530436
87.923,0.005930487147535794,0.005930487147535794
87.924,0.005772692875420549,0.005772692875420549
87.92500000000001,0.00366677301450286,0.00366677301450286
87.926,0.00026712330480159176,-0.00026712330480159176
87.927,0.0053246906401356675,-0.0053246906401356675
87.92800000000001,0.010354923536509823,-0.010354923536509823
87.929,0.014058450203356198,-0.014058450203356198
87.93,0.01536538895232155,-0.01536538895232155
87.93100000000001,0.013777091018495785,-0.013777091018495785
87.932,0.009558378994476889,-0.009558378994476889
87.933,0.0037075168544664647,-0.0037075168544664647
87.93400000000001,0.0023011709649858416,0.0023011709649858416
87.935,0.006933649916357822,0.006933649916357822
87.936,0.009048218968213196,0.009048218968213196
87.93700000000001,0.008242847557917168,0.008242847557917168
87.938,0.0049853340926359424,0.0049853340926359424
87.93900000000001,0.0004792464504985099,0.0004792464504985099
87.94000000000001,0.0036987615688665173,-0.0036987615688665173
87.941,0.006081410454466269,-0.006081410454466269
87.94200000000001,0.005764409382153243,-0.005764409382153243
87.94300000000001,0.0026898207929329596,-0.0026898207929329596
87.944,0.002329754242829069,0.002329754242829069
87.94500000000001,0.007853964835028421,0.007853964835028421
87.94600000000001,0.012248551974649743,0.012248551974649743
87.947,0.014175002090507843,0.014175002090507843
87.94800000000001,0.012984820885516956,0.012984820885516956
87.94900000000001,0.00889938943687902,0.00889938943687902
87.95,0.0029256520563857255,0.0029256520563857255
87.95100000000001,0.0034585990765324264,-0.0034585990765324264
87.95200000000001,0.00874547412492916,-0.00874547412492916
87.953,0.011824076483921487,-0.011824076483921487
87.95400000000001,0.012264507511758815,-0.012264507511758815
87.95500000000001,0.010380359334783429,-0.010380359334783429
87.956,0.00706497219481996,-0.00706497219481996
87.95700000000001,0.0034682821415836047,-0.0034682821415836047
87.95800000000001,0.0006272709549706708,-0.0006272709549706708
87.959,0.0008300424372107896,0.0008300424372107896
87.96000000000001,0.0008197367472008821,0.0008197367472008821
87.96100000000001,0.00025186001883889173,-0.00025186001883889173
87.962,0.001694511802590635,-0.001694511802590635
87.96300000000001,0.0028084776849668586,-0.0028084776849668586
87.96400000000001,0.0031265719974857883,-0.0031265719974857883
87.965,0.0025431020792145357,-0.0025431020792145357
87.96600000000001,0.001295332487110704,-0.001295332487110704
87.96700000000001,0.0001813182820824128,0.0001813182820824128
87.968,0.0014585106377579973,0.0014585106377579973
87.96900000000001,0.0022964515905630097,0.0022964515905630097
87.97000000000001,0.0027307673378750086,0.0027307673378750086
87.971,0.0030330177255672493,0.0030330177255672493
87.97200000000001,0.00356287545429486,0.00356287545429486
87.97300000000001,0.004572117246447786,0.004572117246447786
87.974,0.006039852257515599,0.006039852257515599
87.97500000000001,0.007608139797892704,0.007608139797892704
87.97600000000001,0.00865126485922095,0.00865126485922095
87.977,0.008463413729192527,0.008463413729192527
87.97800000000001,0.006505585026178765,0.006505585026178765
87.97900000000001,0.0026287296882547507,0.0026287296882547507
87.98,0.0028053590940210413,-0.0028053590940210413
87.98100000000001,0.008952545328068402,-0.008952545328068402
87.98200000000001,0.014663897171797162,-0.014663897171797162
87.983,0.01876425423416874,-0.01876425423416874
87.98400000000001,0.020351580298301784,-0.020351580298301784
87.98500000000001,0.019030311624326522,-0.019030311624326522
87.986,0.015012478426196232,-0.015012478426196232
87.98700000000001,0.00906068310273382,-0.00906068310273382
87.988,0.002293643847706484,-0.002293643847706484
87.989,0.004086811874784456,0.004086811874784456
87.99000000000001,0.009069931450620882,0.009069931450620882
87.991,0.01203951730124117,0.01203951730124117
87.992,0.012860736699821781,0.012860736699821781
87.99300000000001,0.01184098657665942,0.01184098657665942
87.994,0.009590893166166764,0.009590893166166764
87.995,0.006835094653605802,0.006835094653605802
87.99600000000001,0.004228653295265316,0.004228653295265316
87.997,0.002224318248396772,0.002224318248396772
87.998,0.001014169006534227,0.001014169006534227
87.99900000000001,0.0005448103352990143,0.0005448103352990143
88.0,0.0005861462586667516,0.0005861462586667516
88.001,0.0008246301712061605,0.0008246301712061605
88.00200000000001,0.0009533420745234961,0.0009533420745234961
88.003,0.0007401607100983323,0.0007401607100983323
88.004,6.66676450554059e-05,6.66676450554059e-05
88.00500000000001,0.0010604172648945485,-0.0010604172648945485
88.006,0.0025190649411207513,-0.0025190649411207513
88.007,0.004096984730565912,-0.004096984730565912
88.00800000000001,0.005528241407219368,-0.005528241407219368
88.009,0.006539454839727639,-0.006539454839727639
88.01,0.006902529914860126,-0.006902529914860126
88.01100000000001,0.006487093390365515,-0.006487093390365515
88.012,0.0053013823615338015,-0.0053013823615338015
88.013,0.003508289460613658,-0.003508289460613658
88.01400000000001,0.0014061231947865708,-0.0014061231947865708
88.015,0.0006280699877003767,0.0006280699877003767
88.016,0.00222306624462436,0.00222306624462436
88.01700000000001,0.003105264788612986,0.003105264788612986
88.018,0.0031711960736106304,0.0031711960736106304
88.019,0.00251673254830134,0.00251673254830134
88.02000000000001,0.0014102900528260426,0.0014102900528260426
88.021,0.00021436861825415966,0.00021436861825415966
88.022,0.0007229145501166009,-0.0007229145501166009
88.02300000000001,0.001173261830571625,-0.001173261830571625
88.024,0.001096619262176213,-0.001096619262176213
88.025,0.0006491762445498027,-0.0006491762445498027
88.02600000000001,0.00012662095170479923,-0.00012662095170479923
88.027,0.00014025500470799044,0.00014025500470799044
88.028,9.590978637180997e-05,-9.590978637180997e-05
88.02900000000001,0.0009054646919420533,-0.0009054646919420533
88.03,0.0021447114182213344,-0.0021447114182213344
88.031,0.0034887246880984713,-0.0034887246880984713
88.03200000000001,0.004524362958139351,-0.004524362958139351
88.033,0.004873952816912132,-0.004873952816912132
88.034,0.00431020294770618,-0.00431020294770618
88.03500000000001,0.0028262603707484998,-0.0028262603707484998
88.036,0.0006401881743590705,-0.0006401881743590705
88.037,0.001864940637269911,0.001864940637269911
88.03800000000001,0.004243367300885843,0.004243367300885843
88.039,0.006096966900395685,0.006096966900395685
88.04,0.00715908600091166,0.00715908600091166
88.04100000000001,0.007329335274539106,0.007329335274539106
88.042,0.006655915165565778,0.006655915165565778
88.043,0.005281147221335751,0.005281147221335751
88.04400000000001,0.0033778264214502514,0.0033778264214502514
88.045,0.0011044925703165174,0.0011044925703165174
88.046,0.00140317480075058,-0.00140317480075058
88.04700000000001,0.00400545912474499,-0.00400545912474499
88.048,0.00651443423245485,-0.00651443423245485
88.049,0.008660950888214605,-0.008660950888214605
88.05000000000001,0.010099544458344035,-0.010099544458344035
88.051,0.010464461314226351,-0.010464461314226351
88.052,0.009469147403174213,-0.009469147403174213
88.05300000000001,0.007021057073322376,-0.007021057073322376
88.054,0.0033115096104464167,-0.0033115096104464167
88.055,0.0011580746992576317,0.0011580746992576317
88.05600000000001,0.0056361963222984705,0.0056361963222984705
88.057,0.009264200778272292,0.009264200778272292
88.058,0.011271065906121978,0.011271065906121978
88.05900000000001,0.011168979635665587,0.011168979635665587
88.06,0.008893484495282595,0.008893484495282595
88.061,0.004844269304189059,0.004844269304189059
88.06200000000001,0.00019064923052448374,-0.00019064923052448374
88.063,0.005211481439627109,-0.005211481439627109
88.06400000000001,0.009238668593756586,-0.009238668593756586
88.06500000000001,0.011538546871430747,-0.011538546871430747
88.066,0.011782516891265424,-0.011782516891265424
88.06700000000001,0.010098892434893104,-0.010098892434893104
88.06800000000001,0.0070076654487191015,-0.0070076654487191015
88.069,0.003261675295626568,-0.003261675295626568
88.07000000000001,0.0003569721784345694,0.0003569721784345694
88.07100000000001,0.00322636011173071,0.00322636011173071
88.072,0.005009025589699993,0.005009025589699993
88.07300000000001,0.00568255275477636,0.00568255275477636
88.07400000000001,0.0054778454824779225,0.0054778454824779225
88.075,0.004754031203657687,0.004754031203657687
88.07600000000001,0.0038559106602493445,0.0038559106602493445
88.07700000000001,0.0030014582555183637,0.0030014582555183637
88.078,0.0022333684704247507,0.0022333684704247507
88.07900000000001,0.0014450385246817478,0.0014450385246817478
88.08000000000001,0.00046565297927154476,0.00046565297927154476
88.081,0.0008304753030310463,-0.0008304753030310463
88.08200000000001,0.002432392484410207,-0.002432392484410207
88.08300000000001,0.004153905516546384,-0.004153905516546384
88.084,0.005664357193411077,-0.005664357193411077
88.08500000000001,0.006581206511521738,-0.006581206511521738
88.08600000000001,0.006595231740263236,-0.006595231740263236
88.087,0.005586906317970473,-0.005586906317970473
88.08800000000001,0.003693516578667416,-0.003693516578667416
88.08900000000001,0.0013006828313843603,-0.0013006828313843603
88.09,0.0010451313411586488,0.0010451313411586488
88.09100000000001,0.00278173451660232,0.00278173451660232
88.09200000000001,0.0034934420843927053,0.0034934420843927053
88.093,0.0030424169544566552,0.0030424169544566552
88.09400000000001,0.0016277546691378778,0.0016277546691378778
88.09500000000001,0.00024982172410346356,-0.00024982172410346356
88.096,0.0019132706603393068,-0.0019132706603393068
88.09700000000001,0.0026938376819609635,-0.0026938376819609635
88.09800000000001,0.002125723047195316,-0.002125723047195316
88.099,9.638140944707563e-05,-9.638140944707563e-05
88.10000000000001,0.0030919534095564948,0.0030919534095564948
88.10100000000001,0.006771050025785705,0.006771050025785705
88.102,0.010057611967393139,0.010057611967393139
88.10300000000001,0.012069813065563054,0.012069813065563054
88.10400000000001,0.012153740481299,0.012153740481299
88.105,0.010059713551981405,0.010059713551981405
88.10600000000001,0.00602048306910331,0.00602048306910331
88.10700000000001,0.0007087461089296976,0.0007087461089296976
88.108,0.00491655574985625,-0.00491655574985625
88.10900000000001,0.009835828933981576,-0.009835828933981576
88.11000000000001,0.01320762110511634,-0.01320762110511634
88.111,0.014558541122048805,-0.014558541122048805
88.11200000000001,0.013875862073055308,-0.013875862073055308
88.113,0.011581223317005694,-0.011581223317005694
88.114,0.008396360799141305,-0.008396360799141305
88.11500000000001,0.005140753981055416,-0.005140753981055416
88.116,0.0025183146859603894,-0.0025183146859603894
88.117,0.0009510273846206162,-0.0009510273846206162
88.11800000000001,0.0005018819102084391,-0.0005018819102084391
88.119,0.0009024002046920094,-0.0009024002046920094
88.12,0.001669719727805454,-0.001669719727805454
88.12100000000001,0.0022735291264878218,-0.0022735291264878218
88.122,0.002301208704029872,-0.002301208704029872
88.123,0.0015733377253515377,-0.0015733377253515377
88.12400000000001,0.00017946629467917804,-0.00017946629467917804
88.125,0.0015702762745682922,0.0015702762745682922
88.126,0.003256719533295319,0.003256719533295319
88.12700000000001,0.004487832506785899,0.004487832506785899
88.128,0.00501640299947151,0.00501640299947151
88.129,0.004804910489776717,0.004804910489776717
88.13000000000001,0.0040219831273263975,0.0040219831273263975
88.131,0.0029768837581777233,0.0029768837581777233
88.132,0.002016757819009108,0.002016757819009108
88.13300000000001,0.0014204851715128052,0.0014204851715128052
88.134,0.001320854389876154,0.001320854389876154
88.135,0.0016751535451820833,0.0016751535451820833
88.13600000000001,0.002287791881839213,0.002287791881839213
88.137,0.0028729913358031367,0.0028729913358031367
88.138,0.0031357413776352664,0.0031357413776352664
88.13900000000001,0.002847429663386754,0.002847429663386754
88.14,0.0018981441071923971,0.0018981441071923971
88.141,0.000317453334029933,0.000317453334029933
88.14200000000001,0.001734618045534008,-0.001734618045534008
88.143,0.003998138084919938,-0.003998138084919938
88.144,0.006155337907509845,-0.006155337907509845
88.14500000000001,0.007876519106305978,-0.007876519106305978
88.146,0.008865989009099495,-0.008865989009099495
88.147,0.008906808123357483,-0.008906808123357483
88.14800000000001,0.00790266015071354,-0.00790266015071354
88.149,0.005911781844438583,-0.005911781844438583
88.15,0.00316371884311565,-0.00316371884311565
88.15100000000001,4.7785790980245594e-05,-4.7785790980245594e-05
88.152,0.002934931532961,0.002934931532961
88.153,0.005255743336291439,0.005255743336291439
88.15400000000001,0.006466407509222178,0.006466407509222178
88.155,0.006307355067687395,0.006307355067687395
88.156,0.004786361834337255,0.004786361834337255
88.15700000000001,0.002200943576030941,0.002200943576030941
88.158,0.0009095345896648141,-0.0009095345896648141
88.159,0.0038765720825314227,-0.0038765720825314227
88.16000000000001,0.006054306789584329,-0.006054306789584329
88.161,0.00697045455708993,-0.00697045455708993
88.162,0.0064341030053724595,-0.0064341030053724595
88.16300000000001,0.0045692230469255996,-0.0045692230469255996
88.164,0.0017647105243627352,-0.0017647105243627352
88.165,0.0014423678387627625,0.0014423678387627625
88.16600000000001,0.004512576492695183,0.004512576492695183
88.167,0.007032426015016669,0.007032426015016669
88.168,0.008785662199869647,0.008785662199869647
88.16900000000001,0.009748775710675006,0.009748775710675006
88.17,0.010019509456362713,0.010019509456362713
88.171,0.009711650835893572,0.009711650835893572
88.17200000000001,0.008861842070011058,0.008861842070011058
88.173,0.007389553118058085,0.007389553118058085
88.174,0.005130848408587253,0.005130848408587253
88.17500000000001,0.0019371938107821882,0.0019371938107821882
88.176,0.0021970454293684656,-0.0021970454293684656
88.177,0.007030074244755006,-0.007030074244755006
88.17800000000001,0.012039332269506006,-0.012039332269506006
88.179,0.01648556570255128,-0.01648556570255128
88.18,0.01956693608375504,-0.01956693608375504
88.18100000000001,0.02062226747886434,-0.02062226747886434
88.182,0.01932125258175571,-0.01932125258175571
88.183,0.0157787545565687,-0.0157787545565687
88.18400000000001,0.010551572286629434,-0.010551572286629434
88.185,0.004512706100416902,-0.004512706100416902
88.186,0.001361965259134962,0.001361965259134962
88.18700000000001,0.0062304129655881835,0.0062304129655881835
88.188,0.009572221475925069,0.009572221475925069
88.18900000000001,0.01127123468464707,0.01127123468464707
88.19000000000001,0.011572331526352364,0.011572331526352364
88.191,0.010934049190152279,0.010934049190152279
88.19200000000001,0.009833497994761192,0.009833497994761192
88.19300000000001,0.008594708756323717,0.008594708756323717
88.194,0.0073009173641974045,0.0073009173641974045
88.19500000000001,0.005819019380845458,0.005819019380845458
88.19600000000001,0.003922033423813375,0.003922033423813375
88.197,0.001458199531299449,0.001458199531299449
88.19800000000001,0.0015030654875036252,-0.0015030654875036252
88.19900000000001,0.004610734912316922,-0.004610734912316922
88.2,0.007288716586347106,-0.007288716586347106
88.20100000000001,0.008897260950766922,-0.008897260950766922
88.20200000000001,0.008946587672425415,-0.008946587672425415
88.203,0.007287484559560719,-0.007287484559560719
88.20400000000001,0.004207656952730325,-0.004207656952730325
88.20500000000001,0.0003925104580915438,-0.0003925104580915438
88.206,0.0032452395602008345,0.0032452395602008345
88.20700000000001,0.005817146161780356,0.005817146161780356
88.20800000000001,0.006712481110959978,0.006712481110959978
88.209,0.005771762132927368,0.005771762132927368
88.21000000000001,0.0033241280060218917,0.0033241280060218917
88.21100000000001,7.724576888014205e-05,7.724576888014205e-05
88.212,0.0031028531482997354,-0.0031028531482997354
88.21300000000001,0.005448987714475633,-0.005448987714475633
88.21400000000001,0.006503764579885903,-0.006503764579885903
88.215,0.0062191478009100245,-0.0062191478009100245
88.21600000000001,0.004919496533682064,-0.004919496533682064
88.21700000000001,0.003150101017825476,-0.003150101017825476
88.218,0.0014709725582524803,-0.0014709725582524803
88.21900000000001,0.0002708745767693135,-0.0002708745767693135
88.22000000000001,0.0003353569884427215,0.0003353569884427215
88.221,0.0004970391861761695,0.0004970391861761695
88.22200000000001,0.0005190261643360481,0.0005190261643360481
88.22300000000001,0.000703577833890545,0.000703577833890545
88.224,0.001207750179823928,0.001207750179823928
88.22500000000001,0.001971873278189014,0.001971873278189014
88.22600000000001,0.0027444035039781655,0.0027444035039781655
88.227,0.003189478817570782,0.003189478817570782
88.22800000000001,0.003031060835073057,0.003031060835073057
88.22900000000001,0.0021740482491899153,0.0021740482491899153
88.23,0.0007531359657520503,0.0007531359657520503
88.23100000000001,0.0009099285397721003,-0.0009099285397721003
88.23200000000001,0.002422683996061445,-0.002422683996061445
88.233,0.003463983833087079,-0.003463983833087079
88.23400000000001,0.0038933974199383,-0.0038933974199383
88.23500000000001,0.0037831014447859096,-0.0037831014447859096
88.236,0.003359527354752429,-0.003359527354752429
88.23700000000001,0.002880134828647264,-0.002880134828647264
88.238,0.002499254360601121,-0.002499254360601121
88.239,0.00218386396340321,-0.00218386396340321
88.24000000000001,0.0017216277570522441,-0.0017216277570522441
88.241,0.0008258684823621216,-0.0008258684823621216
88.242,0.0007002286734041208,0.0007002286734041208
88.24300000000001,0.002807861682103336,0.002807861682103336
88.244,0.00512738348627548,0.00512738348627548
88.245,0.007020661116402842,0.007020661116402842
88.24600000000001,0.007761237993388486,0.007761237993388486
88.247,0.006790574076714895,0.006790574076714895
88.248,0.00396157250571768,0.00396157250571768
88.24900000000001,0.00032586628861385126,-0.00032586628861385126
88.25,0.005163205807779601,-0.005163205807779601
88.251,0.00935439886910344,-0.00935439886910344
88.25200000000001,0.011762789213713987,-0.011762789213713987
88.253,0.011675874840254948,-0.011675874840254948
88.254,0.009063791001489553,-0.009063791001489553
88.25500000000001,0.004634254118862632,-0.004634254118862632
88.256,0.00034999267306461503,0.00034999267306461503
88.257,0.004445682521872076,0.004445682521872076
88.25800000000001,0.006481350624838463,0.006481350624838463
88.259,0.005940410303744211,0.005940410303744211
88.26,0.0031439220953059935,0.0031439220953059935
88.26100000000001,0.0008362805775181706,-0.0008362805775181706
88.262,0.004515391159053584,-0.004515391159053584
88.263,0.006480537901247114,-0.006480537901247114
88.26400000000001,0.005866137210957974,-0.005866137210957974
88.265,0.0026615299395194233,-0.0026615299395194233
88.266,0.0022554564016623946,0.0022554564016623946
88.26700000000001,0.007376555284426893,0.007376555284426893
88.268,0.011033737112657845,0.011033737112657845
88.269,0.011931816356665424,0.011931816356665424
88.27000000000001,0.009569930815968512,0.009569930815968512
88.271,0.004413896681895776,0.004413896681895776
88.272,0.0022374191405712613,-0.0022374191405712613
88.27300000000001,0.008648390205121547,-0.008648390205121547
88.274,0.013176603450389526,-0.013176603450389526
88.275,0.014765016121736634,-0.014765016121736634
88.27600000000001,0.013239374277900442,-0.013239374277900442
88.277,0.009320199758489368,-0.009320199758489368
88.278,0.004353703794619243,-0.004353703794619243
88.27900000000001,0.00014241255207375557,0.00014241255207375557
88.28,0.002964741931663124,0.002964741931663124
88.281,0.0035829553790490604,0.0035829553790490604
88.28200000000001,0.0022607522966839023,0.0022607522966839023
88.283,8.89422092212335e-05,-8.89422092212335e-05
88.284,0.00225344416316184,-0.00225344416316184
88.28500000000001,0.003148508287921897,-0.003148508287921897
88.286,0.0021796138123813657,-0.0021796138123813657
88.287,0.0005791252836141767,0.0005791252836141767
88.28800000000001,0.004436390904252587,0.004436390904252587
88.289,0.008333475960965484,0.008333475960965484
88.29,0.011196251848083715,0.011196251848083715
88.29100000000001,0.012265706112204781,0.012265706112204781
88.292,0.011300330536600145,0.011300330536600145
88.293,0.008596049883605237,0.008596049883605237
88.29400000000001,0.004836546666317943,0.004836546666317943
88.295,0.0008438777677361569,0.0008438777677361569
88.296,0.00267356853963267,-0.00267356853963267
88.29700000000001,0.005289136862628736,-0.005289136862628736
88.298,0.006896663683586347,-0.006896663683586347
88.299,0.007628977737603983,-0.007628977737603983
88.30000000000001,0.00771083348754051,-0.00771083348754051
88.301,0.007320622774254022,-0.007320622774254022
88.302,0.006522622608696896,-0.006522622608696896
88.30300000000001,0.005293552100309574,-0.005293552100309574
88.304,0.0036207127985359634,-0.0036207127985359634
88.305,0.001613972364807044,-0.001613972364807044
88.30600000000001,0.00043464815649994044,0.00043464815649994044
88.307,0.0020880270653526574,0.0020880270653526574
88.308,0.0028981556292803504,0.0028981556292803504
88.30900000000001,0.0025907306736766586,0.0025907306736766586
88.31,0.0012228058535092533,0.0012228058535092533
88.311,0.0007632749103932476,-0.0007632749103932476
88.31200000000001,0.002632583124131442,-0.002632583124131442
88.313,0.003584027788818897,-0.003584027788818897
88.31400000000001,0.0030407679142098677,-0.0030407679142098677
88.31500000000001,0.0009000309666023558,-0.0009000309666023558
88.316,0.002359310780182656,0.002359310780182656
88.31700000000001,0.005770142650867546,0.005770142650867546
88.31800000000001,0.008160502656306192,0.008160502656306192
88.319,0.008543838105973083,0.008543838105973083
88.32000000000001,0.006485446070812998,0.006485446070812998
88.32100000000001,0.0023111027228126893,0.0023111027228126893
88.322,0.0029307186988837886,-0.0029307186988837886
88.32300000000001,0.007760709275245128,-0.007760709275245128
88.32400000000001,0.010732810135659016,-0.010732810135659016
88.325,0.010922163803878997,-0.010922163803878997
88.32600000000001,0.008270153204231816,-0.008270153204231816
88.32700000000001,0.003658623227556921,-0.003658623227556921
88.328,0.0013290905155587734,0.0013290905155587734
88.32900000000001,0.004898039178513064,0.004898039178513064
88.33000000000001,0.005631723249853887,0.005631723249853887
88.331,0.0029904935418987016,0.0029904935418987016
88.33200000000001,0.002451533972633452,-0.002451533972633452
88.33300000000001,0.009121034863730131,-0.009121034863730131
88.334,0.014889032543838337,-0.014889032543838337
88.33500000000001,0.017712765569285766,-0.017712765569285766
88.33600000000001,0.01627735099379401,-0.01627735099379401
88.337,0.010434439098565222,-0.010434439098565222
88.33800000000001,0.0012964755299152053,-0.0012964755299152053
88.33900000000001,0.009047350240974498,0.009047350240974498
88.34,0.018108842864799392,0.018108842864799392
88.34100000000001,0.023696477943168703,0.023696477943168703
88.34200000000001,0.024518768539779464,0.024518768539779464
88.343,0.020517434069428096,0.020517434069428096
88.34400000000001,0.012839893415361797,0.012839893415361797
88.34500000000001,0.0034735471558057437,0.0034735471558057437
88.346,0.005334189751909932,-0.005334189751909932
88.34700000000001,0.011688051106655275,-0.011688051106655275
88.34800000000001,0.01450903341121457,-0.01450903341121457
88.349,0.01372808290666423,-0.01372808290666423
88.35000000000001,0.010178898411979614,-0.010178898411979614
88.35100000000001,0.005253443460291643,-0.005253443460291643
88.352,0.0004493545457272065,-0.0004493545457272065
88.35300000000001,0.003043431205455698,0.003043431205455698
88.35400000000001,0.004600497205143819,0.004600497205143819
88.355,0.0042139208704181025,0.0042139208704181025
88.35600000000001,0.002358727335227661,0.002358727335227661
88.35700000000001,0.00024680051119139394,-0.00024680051119139394
88.358,0.0028876581525906727,-0.0028876581525906727
88.35900000000001,0.0050236850659505965,-0.0050236850659505965
88.36000000000001,0.006349104606413323,-0.006349104606413323
88.361,0.006754695652061875,-0.006754695652061875
88.36200000000001,0.006244713426042381,-0.006244713426042381
88.363,0.0048700298861001565,-0.0048700298861001565
88.364,0.0027187231327164404,-0.0027187231327164404
88.36500000000001,3.3596423389558976e-05,3.3596423389558976e-05
88.366,0.003050650717681115,0.003050650717681115
88.367,0.00579771903173147,0.00579771903173147
88.36800000000001,0.007590125687238519,0.007590125687238519
88.369,0.007744699980644919,0.007744699980644919
88.37,0.005803072640260401,0.005803072640260401
88.37100000000001,0.0017540259587049154,0.0017540259587049154
88.372,0.003834743925691076,-0.003834743925691076
88.373,0.009847382512589063,-0.009847382512589063
88.37400000000001,0.014836153258562936,-0.014836153258562936
88.375,0.01738196134809699,-0.01738196134809699
88.376,0.0165011444933586,-0.0165011444933586
88.37700000000001,0.011973049173544442,-0.011973049173544442
88.378,0.004476820188831629,-0.004476820188831629
88.379,0.004520991935581457,0.004520991935581457
88.38000000000001,0.013110239064574274,0.013110239064574274
88.381,0.019420539295858085,0.019420539295858085
88.382,0.022105480234470978,0.022105480234470978
88.38300000000001,0.020685739714513013,0.020685739714513013
88.384,0.015651422998165486,0.015651422998165486
88.385,0.008297931559725734,0.008297931559725734
88.38600000000001,0.00035109650158879005,0.00035109650158879005
88.387,0.006500607660196789,-0.006500607660196789
88.388,0.011026088361854411,-0.011026088361854411
88.38900000000001,0.01270587795236527,-0.01270587795236527
88.39,0.011761586274672468,-0.011761586274672468
88.391,0.008975811625314904,-0.008975811625314904
88.39200000000001,0.0053818284183020735,-0.0053818284183020735
88.393,0.0019354410795208402,-0.0019354410795208402
88.394,0.0007256709499381779,0.0007256709499381779
88.39500000000001,0.002371745514958604,0.002371745514958604
88.396,0.003116187853214333,0.003116187853214333
88.397,0.0032476142827574032,0.0032476142827574032
88.39800000000001,0.0030409615774535147,0.0030409615774535147
88.399,0.0026272799290295713,0.0026272799290295713
88.4,0.001968979175515035,0.001968979175515035
88.40100000000001,0.0009387331159801697,0.0009387331159801697
88.402,0.0005443329098644715,-0.0005443329098644715
88.403,0.002390820144634667,-0.002390820144634667
88.40400000000001,0.004292762306324757,-0.004292762306324757
88.405,0.005781150646162504,-0.005781150646162504
88.406,0.006373944727367101,-0.006373944727367101
88.40700000000001,0.005759294812983662,-0.005759294812983662
88.408,0.003940506655778245,-0.003940506655778245
88.409,0.0012803297916223666,-0.0012803297916223666
88.41000000000001,0.0015814688136564872,0.0015814688136564872
88.411,0.0039153749289605,0.0039153749289605
88.412,0.005131326009627821,0.005131326009627821
88.41300000000001,0.004968691579449951,0.004968691579449951
88.414,0.0035778633820489564,0.0035778633820489564
88.415,0.001462447712844788,0.001462447712844788
88.41600000000001,0.0006985765904105802,-0.0006985765904105802
88.417,0.002285512717181869,-0.002285512717181869
88.418,0.0029452776289162976,-0.0029452776289162976
88.41900000000001,0.0026972632772445312,-0.0026972632772445312
88.42,0.0019009259850759,-0.0019009259850759
88.421,0.0010992442737096158,-0.0010992442737096158
88.42200000000001,0.0007978452834733671,-0.0007978452834733671
88.423,0.0012630189580956522,-0.0012630189580956522
88.424,0.002414305826206376,-0.002414305826206376
88.42500000000001,0.003851658507175486,-0.003851658507175486
88.426,0.005006626979277142,-0.005006626979277142
88.427,0.005360444639110467,-0.005360444639110467
88.42800000000001,0.004646679641164902,-0.004646679641164902
88.429,0.0029617093671614066,-0.0029617093671614066
88.43,0.0007406472559541906,-0.0007406472559541906
88.43100000000001,0.0013932716001568888,0.0013932716001568888
88.432,0.0028502440022709387,0.0028502440022709387
88.433,0.0032837981145526544,0.0032837981145526544
88.43400000000001,0.0027102764533461993,0.0027102764533461993
88.435,0.0014925670238729826,0.0014925670238729826
88.436,0.00019349891038723864,0.00019349891038723864
88.43700000000001,0.000646425388443807,-0.000646425388443807
88.438,0.0007229523260758408,-0.0007229523260758408
88.43900000000001,9.142326079660913e-05,-9.142326079660913e-05
88.44000000000001,0.0008500314678750944,0.0008500314678750944
88.441,0.0015151649381612811,0.0015151649381612811
88.44200000000001,0.0013677105674171463,0.0013677105674171463
88.44300000000001,0.0001552731547731539,0.0001552731547731539
88.444,0.0019502699444964233,-0.0019502699444964233
88.44500000000001,0.004364035381014936,-0.004364035381014936
88.44600000000001,0.006256038439807798,-0.006256038439807798
88.447,0.006824174460096418,-0.006824174460096418
88.44800000000001,0.005581049488968549,-0.005581049488968549
88.44900000000001,0.002555007717622131,-0.002555007717622131
88.45,0.001668059774333479,0.001668059774333479
88.45100000000001,0.006083400480029661,0.006083400480029661
88.45200000000001,0.009547643702763007,0.009547643702763007
88.453,0.011113990729974741,0.011113990729974741
88.45400000000001,0.010316783569836736,0.010316783569836736
88.45500000000001,0.007315834438507636,0.007315834438507636
88.456,0.0028559873812129496,0.0028559873812129496
88.45700000000001,0.0019438844619547166,-0.0019438844619547166
88.45800000000001,0.005905534475517547,-0.005905534475517547
88.459,0.00811306101623745,-0.00811306101623745
88.46000000000001,0.00814711695373413,-0.00814711695373413
88.46100000000001,0.006168511785341324,-0.006168511785341324
88.462,0.0028371912095684314,-0.0028371912095684314
88.46300000000001,0.0008976229456747866,0.0008976229456747866
88.46400000000001,0.004065747679924778,0.004065747679924778
88.465,0.005922631762952956,0.005922631762952956
