Czas,AbsSum,Sum
251.369,0.06660978801834216,-0.06660978801834216
251.37,0.05892002009532793,-0.05892002009532793
251.371,0.04828553461815832,-0.04828553461815832
251.372,0.036174025479901784,-0.036174025479901784
251.373,0.023786067329492178,-0.023786067329492178
251.374,0.012037761345481068,-0.012037761345481068
251.375,0.0016055673657588976,-0.0016055673657588976
251.376,0.007030880763150282,0.007030880763150282
251.377,0.01358290366175674,0.01358290366175674
251.378,0.017978649929083934,0.017978649929083934
251.379,0.020385384421915287,0.020385384421915287
251.38,0.0211868192493887,0.0211868192493887
251.381,0.020893929273063883,0.020893929273063883
251.382,0.02000278433337055,0.02000278433337055
251.383,0.018845634033530567,0.018845634033530567
251.384,0.017495161157123684,0.017495161157123684
251.385,0.015768327560268025,0.015768327560268025
251.386,0.0133395969123693,0.0133395969123693
251.387,0.009928158310804402,0.009928158310804402
251.388,0.005489203596296788,0.005489203596296788
251.389,0.0003308449368399913,0.0003308449368399913
251.39,0.004898850527954912,-0.004898850527954912
251.391,0.00936348982292634,-0.00936348982292634
251.392,0.012284357272790758,-0.012284357272790758
251.393,0.013197768917853292,-0.013197768917853292
251.394,0.012131922035298226,-0.012131922035298226
251.395,0.009636622717523635,-0.009636622717523635
251.396,0.006649589100461983,-0.006649589100461983
251.397,0.004239701578475419,-0.004239701578475419
251.398,0.0033094775939919163,-0.0033094775939919163
251.399,0.004350896609316757,-0.004350896609316757
251.4,0.007326926263122813,-0.007326926263122813
251.401,0.011705061101157987,-0.011705061101157987
251.402,0.016617214539662584,-0.016617214539662584
251.403,0.021082249692772725,-0.021082249692772725
251.404,0.02421671170707318,-0.02421671170707318
251.405,0.025377718570115282,-0.025377718570115282
251.406,0.024219276714963933,-0.024219276714963933
251.407,0.020681930765164447,-0.020681930765164447
251.408,0.014958326711914882,-0.014958326711914882
251.409,0.007474440868511345,-0.007474440868511345
251.41,0.0010996395920643831,0.0010996395920643831
251.411,0.009830911938083942,0.009830911938083942
251.412,0.017544395847433503,0.017544395847433503
251.413,0.022933038330240185,0.022933038330240185
251.414,0.024777388351142626,0.024777388351142626
251.415,0.02224619855410359,0.02224619855410359
251.416,0.01519811312285313,0.01519811312285313
251.417,0.004375731215040979,0.004375731215040979
251.418,0.008606130752904173,-0.008606130752904173
251.419,0.021523245966926785,-0.021523245966926785
251.42,0.032020070688697055,-0.032020070688697055
251.421,0.03818571118954184,-0.03818571118954184
251.422,0.039059421945093487,-0.039059421945093487
251.423,0.03490012424459987,-0.03490012424459987
251.424,0.027116123087657873,-0.027116123087657873
251.425,0.017855303862830407,-0.017855303862830407
251.426,0.00936901623893005,-0.00936901623893005
251.427,0.003345057865909218,-0.003345057865909218
251.428,0.0004253486066830847,-0.0004253486066830847
251.429,7.098334721011845e-05,-7.098334721011845e-05
251.43,0.0008258082036417536,-0.0008258082036417536
251.431,0.0008955940980894805,-0.0008955940980894805
251.432,0.0011508378591900126,0.0011508378591900126
251.433,0.00579989451220797,0.00579989451220797
251.434,0.012337916676024907,0.012337916676024907
251.435,0.01902210736029053,0.01902210736029053
251.436,0.023632389754865812,0.023632389754865812
251.437,0.024225328444610117,0.024225328444610117
251.438,0.019835896319987167,0.019835896319987167
251.439,0.010883322417433394,0.010883322417433394
251.44,0.0008681229049232186,-0.0008681229049232186
251.441,0.012794616534127834,-0.012794616534127834
251.442,0.022194350191964585,-0.022194350191964585
251.443,0.027111903258064785,-0.027111903258064785
251.444,0.02693326067835866,-0.02693326067835866
251.445,0.022552037114395906,-0.022552037114395906
251.446,0.016048019466104124,-0.016048019466104124
251.447,0.009980562958251005,-0.009980562958251005
251.448,0.0065275240416095,-0.0065275240416095
251.449,0.006752368217313176,-0.006752368217313176
251.45,0.010240651267639844,-0.010240651267639844
251.451,0.015226370838191228,-0.015226370838191228
251.452,0.019169114808243126,-0.019169114808243126
251.453,0.019597270933721544,-0.019597270933721544
251.454,0.01494816854005332,-0.01494816854005332
251.455,0.005139227232637045,-0.005139227232637045
251.456,0.008307911852027061,0.008307911852027061
251.457,0.02262606756355634,0.02262606756355634
251.458,0.034530258751829024,0.034530258751829024
251.459,0.041091579853385074,0.041091579853385074
251.46,0.04049834410976172,0.04049834410976172
251.461,0.03249088732256178,0.03249088732256178
251.462,0.01836462117402693,0.01836462117402693
251.463,0.0005697812779175138,0.0005697812779175138
251.464,0.017947410936398622,-0.017947410936398622
251.465,0.03445375619276714,-0.03445375619276714
251.466,0.046984796527275496,-0.046984796527275496
251.467,0.05461068655889589,-0.05461068655889589
251.468,0.057378708204014806,-0.057378708204014806
251.469,0.056002807559484724,-0.056002807559484724
251.47,0.05144230729761379,-0.05144230729761379
251.471,0.04453126181586131,-0.04453126181586131
251.472,0.0357845054995094,-0.0357845054995094
251.473,0.02543149892141572,-0.02543149892141572
251.474,0.013641307353612242,-0.013641307353612242
251.475,0.0008306323443467711,-0.0008306323443467711
251.476,0.012085650024487693,0.012085650024487693
251.477,0.023625934221311873,0.023625934221311873
251.478,0.031920814086545235,0.031920814086545235
251.479,0.035121506995487106,0.035121506995487106
251.48,0.031937320599200625,0.031937320599200625
251.481,0.022145524408431205,0.022145524408431205
251.482,0.006905118164057589,0.006905118164057589
251.483,0.011255613279039012,-0.011255613279039012
251.484,0.02882706389975187,-0.02882706389975187
251.485,0.04202786436545891,-0.04202786436545891
251.486,0.04768383821408384,-0.04768383821408384
251.487,0.04405888268062996,-0.04405888268062996
251.488,0.03140933172302718,-0.03140933172302718
251.489,0.012085012454948085,-0.012085012454948085
251.49,0.00989374715331759,0.00989374715331759
251.491,0.029717740169037166,0.029717740169037166
251.492,0.04293277306120857,0.04293277306120857
251.493,0.046561355071591315,0.046561355071591315
251.494,0.03990166281916219,0.03990166281916219
251.495,0.02477057160368279,0.02477057160368279
251.496,0.00509614444369344,0.00509614444369344
251.497,0.014059542147110249,-0.014059542147110249
251.498,0.027802585548103553,-0.027802585548103553
251.499,0.03268703288651709,-0.03268703288651709
251.5,0.02761774722533772,-0.02761774722533772
251.501,0.01411844630533532,-0.01411844630533532
251.502,0.004116309918617667,0.004116309918617667
251.503,0.02225957844358528,0.02225957844358528
251.504,0.0356806678970345,0.0356806678970345
251.505,0.04117650200383505,0.04117650200383505
251.506,0.03774856455932496,0.03774856455932496
251.507,0.026709511255972318,0.026709511255972318
251.508,0.011112982551864548,0.011112982551864548
251.509,0.005288531600681101,-0.005288531600681101
251.51,0.01920852049554278,-0.01920852049554278
251.511,0.028735390745952993,-0.028735390745952993
251.512,0.033703199182985144,-0.033703199182985144
251.513,0.03543186860469183,-0.03543186860469183
251.514,0.03596381142053551,-0.03596381142053551
251.515,0.037096723776009144,-0.037096723776009144
251.516,0.0395781296650628,-0.0395781296650628
251.517,0.042762160364827606,-0.042762160364827606
251.518,0.04485526815589147,-0.04485526815589147
251.519,0.043656640375369316,-0.043656640375369316
251.52,0.03751076799251585,-0.03751076799251585
251.521,0.026103584702714677,-0.026103584702714677
251.522,0.010783791228245576,-0.010783791228245576
251.523,0.005737739086131732,0.005737739086131732
251.524,0.0202254424927919,0.0202254424927919
251.525,0.030000055181288676,0.030000055181288676
251.526,0.03386388805866303,0.03386388805866303
251.527,0.03251138492666117,0.03251138492666117
251.528,0.02824328020640876,0.02824328020640876
251.529,0.024056881058557522,0.024056881058557522
251.53,0.022424867412454086,0.022424867412454086
251.531,0.024210663743069682,0.024210663743069682
251.532,0.02814452963977776,0.02814452963977776
251.533,0.03110196047754732,0.03110196047754732
251.534,0.029143965299031516,0.029143965299031516
251.535,0.018995485849873317,0.018995485849873317
251.536,0.0005433872125574224,-0.0005433872125574224
251.537,0.02776813457390559,-0.02776813457390559
251.538,0.058163082292791435,-0.058163082292791435
251.539,0.08545441281089439,-0.08545441281089439
251.54,0.103329778872562,-0.103329778872562
251.541,0.10728969134172117,-0.10728969134172117
251.542,0.09603044038699593,-0.09603044038699593
251.543,0.07189696953012181,-0.07189696953012181
251.544,0.040243411870091395,-0.040243411870091395
251.545,0.007898143465345786,-0.007898143465345786
251.546,0.018774201560097348,0.018774201560097348
251.547,0.035591916537574875,0.035591916537574875
251.548,0.04151679104806694,0.04151679104806694
251.549,0.03858088373610524,0.03858088373610524
251.55,0.030858501060141208,0.030858501060141208
251.551,0.022881623552658326,0.022881623552658326
251.552,0.0180698072468235,0.0180698072468235
251.553,0.017713326169883414,0.017713326169883414
251.554,0.020826325108627808,0.020826325108627808
251.555,0.024858509164072062,0.024858509164072062
251.556,0.02694053596241619,0.02694053596241619
251.557,0.02515423056256516,0.02515423056256516
251.558,0.019329785467327554,0.019329785467327554
251.559,0.011071200005497994,0.011071200005497994
251.56,0.0030211826241071105,0.0030211826241071105
251.561,0.0023210120362562314,-0.0023210120362562314
251.562,0.0037365445351452697,-0.0037365445351452697
251.563,0.0019004656756033134,-0.0019004656756033134
251.564,0.0008034595876091899,0.0008034595876091899
251.565,0.00122553104948242,0.00122553104948242
251.566,0.003199221044713929,-0.003199221044713929
251.567,0.01322313842360745,-0.01322313842360745
251.568,0.027190611245223262,-0.027190611245223262
251.569,0.04136372734863636,-0.04136372734863636
251.57,0.051113247203694256,-0.051113247203694256
251.571,0.05257972394631638,-0.05257972394631638
251.572,0.044204298587664836,-0.044204298587664836
251.573,0.027541153724799594,-0.027541153724799594
251.574,0.006998289198294039,-0.006998289198294039
251.575,0.011468466531788124,0.011468466531788124
251.576,0.022296507711640823,0.022296507711640823
251.577,0.022228477344545805,0.022228477344545805
251.578,0.011511308857796942,0.011511308857796942
251.579,0.006073321722393277,-0.006073321722393277
251.58,0.024401032350416463,-0.024401032350416463
251.581,0.0370386211911965,-0.0370386211911965
251.582,0.03942830133616715,-0.03942830133616715
251.583,0.030459379992539892,-0.030459379992539892
251.584,0.012864432036868156,-0.012864432036868156
251.585,0.007717200565480198,0.007717200565480198
251.586,0.024695478540930127,0.024695478540930127
251.587,0.03282498584684834,0.03282498584684834
251.588,0.030028746662661865,0.030028746662661865
251.589,0.018097116750054987,0.018097116750054987
251.59,0.0020018636800616108,0.0020018636800616108
251.591,0.01194195183583946,-0.01194195183583946
251.592,0.01841712357518588,-0.01841712357518588
251.593,0.015108980915983783,-0.015108980915983783
251.594,0.003641445885708805,-0.003641445885708805
251.595,0.010916730685937903,0.010916730685937903
251.596,0.021830781641334784,0.021830781641334784
251.597,0.02315635467373145,0.02315635467373145
251.598,0.012011755411696079,0.012011755411696079
251.599,0.010149097343971847,-0.010149097343971847
251.6,0.03774320541169829,-0.03774320541169829
251.601,0.06271636083359067,-0.06271636083359067
251.602,0.07711896173170596,-0.07711896173170596
251.603,0.07574066333391838,-0.07574066333391838
251.604,0.057912744564340146,-0.057912744564340146
251.605,0.02786073547014334,-0.02786073547014334
251.606,0.006525031813109372,0.006525031813109372
251.607,0.03610374025580976,0.03610374025580976
251.608,0.053293253123479545,0.053293253123479545
251.609,0.054360281989991543,0.054360281989991543
251.61,0.04046104426791164,0.04046104426791164
251.611,0.01712482175702501,0.01712482175702501
251.612,0.007612521111917903,-0.007612521111917903
251.613,0.025786938895645428,-0.025786938895645428
251.614,0.031952538908695094,-0.031952538908695094
251.615,0.024731393550817105,-0.024731393550817105
251.616,0.0070282672520977085,-0.0070282672520977085
251.617,0.015076969438840848,0.015076969438840848
251.618,0.03432713204051652,0.03432713204051652
251.619,0.044494063117906046,0.044494063117906046
251.62,0.042103487893208724,0.042103487893208724
251.621,0.027205161637732678,0.027205161637732678
251.622,0.003064827713334717,0.003064827713334717
251.623,0.024993667933402075,-0.024993667933402075
251.624,0.051133988639497474,-0.051133988639497474
251.625,0.07042993833169808,-0.07042993833169808
251.626,0.07978498787571542,-0.07978498787571542
251.627,0.07820753692870708,-0.07820753692870708
251.628,0.06654468285380088,-0.06654468285380088
251.629,0.04693258205552053,-0.04693258205552053
251.63,0.022240308934469377,-0.022240308934469377
251.631,0.004320135017432891,0.004320135017432891
251.632,0.029407607310496964,0.029407607310496964
251.633,0.049714876790134976,0.049714876790134976
251.634,0.06224693455020014,0.06224693455020014
251.635,0.06480548250057172,0.06480548250057172
251.636,0.056615803163293954,0.056615803163293954
251.637,0.0388750197622747,0.0388750197622747
251.638,0.0149257598166177,0.0149257598166177
251.639,0.01017962162243613,-0.01017962162243613
251.64,0.03076543596308734,-0.03076543596308734
251.641,0.04204944937565014,-0.04204944937565014
251.642,0.04164442435252236,-0.04164442435252236
251.643,0.03051160984495982,-0.03051160984495982
251.644,0.012942290114043131,-0.012942290114043131
251.645,0.004566467915663397,0.004566467915663397
251.646,0.01529363539319828,0.01529363539319828
251.647,0.01454628006238634,0.01454628006238634
251.648,0.0014311156778972212,0.0014311156778972212
251.649,0.020513849099378256,-0.020513849099378256
251.65,0.04414982508905185,-0.04414982508905185
251.651,0.06086994131275747,-0.06086994131275747
251.652,0.06340853441042094,-0.06340853441042094
251.653,0.048420015252404136,-0.048420015252404136
251.654,0.01793572989294112,-0.01793572989294112
251.655,0.020866836075291717,0.020866836075291717
251.656,0.05760753737852786,0.05760753737852786
251.657,0.08180616335330737,0.08180616335330737
251.658,0.08617271794520742,0.08617271794520742
251.659,0.06900827346406557,0.06900827346406557
251.66,0.03489476302512795,0.03489476302512795
251.661,0.006605657867621684,-0.006605657867621684
251.662,0.043867838786624924,-0.043867838786624924
251.663,0.06681861551746193,-0.06681861551746193
251.664,0.07008158213199034,-0.07008158213199034
251.665,0.05462097808616584,-0.05462097808616584
251.666,0.027338016681018318,-0.027338016681018318
251.667,0.001254786476734271,0.001254786476734271
251.668,0.02051979284794192,0.02051979284794192
251.669,0.023194185890820895,0.023194185890820895
251.67,0.0077532069260950465,0.0077532069260950465
251.671,0.021133879832599844,-0.021133879832599844
251.672,0.054189809478443984,-0.054189809478443984
251.673,0.08061440872601544,-0.08061440872601544
251.674,0.0916339947752478,-0.0916339947752478
251.675,0.08333786852475267,-0.08333786852475267
251.676,0.057876140562998946,-0.057876140562998946
251.677,0.022649789019220656,-0.022649789019220656
251.678,0.012204686705188372,0.012204686705188372
251.679,0.03717374451754085,0.03717374451754085
251.68,0.04644301571723308,0.04644301571723308
251.681,0.03968174801404012,0.03968174801404012
251.682,0.021974313937489498,0.021974313937489498
251.683,0.00196158746679731,0.00196158746679731
251.684,0.011157154678324122,-0.011157154678324122
251.685,0.010753383848529752,-0.010753383848529752
251.686,0.0049949860437317195,0.0049949860437317195
251.687,0.032465916361959835,0.032465916361959835
251.688,0.06371916399782518,0.06371916399782518
251.689,0.0889785932467606,0.0889785932467606
251.69,0.09964580821099722,0.09964580821099722
251.691,0.09088635741878437,0.09088635741878437
251.692,0.06300966348098647,0.06300966348098647
251.693,0.021282046806525567,0.021282046806525567
251.694,0.025680526067114573,-0.025680526067114573
251.695,0.06836639463094452,-0.06836639463094452
251.696,0.09888052112403145,-0.09888052112403145
251.697,0.11277719197962865,-0.11277719197962865
251.698,0.10975249450818347,-0.10975249450818347
251.699,0.09313072974962422,-0.09313072974962422
251.7,0.06845234206875717,-0.06845234206875717
251.701,0.0417041996168932,-0.0417041996168932
251.702,0.01776561648290509,-0.01776561648290509
251.703,0.0005117386753243913,0.0005117386753243913
251.704,0.012440161503183278,0.012440161503183278
251.705,0.018975163153771568,0.018975163153771568
251.706,0.021854206515467656,0.021854206515467656
251.707,0.022761445928665358,0.022761445928665358
251.708,0.022798097456174338,0.022798097456174338
251.709,0.02236610750515755,0.02236610750515755
251.71,0.02139191548194641,0.02139191548194641
251.711,0.019696930618985364,0.019696930618985364
251.712,0.017299546265019616,0.017299546265019616
251.713,0.014505007193351682,0.014505007193351682
251.714,0.011762881958505389,0.011762881958505389
251.715,0.009389571892544524,0.009389571892544524
251.716,0.007315650454819744,0.007315650454819744
251.717,0.005002648848435154,0.005002648848435154
251.718,0.0015930775558210541,0.0015930775558210541
251.719,0.003750409648168973,-0.003750409648168973
251.72,0.011448118197004864,-0.011448118197004864
251.721,0.021210355627016786,-0.021210355627016786
251.722,0.03197236558831562,-0.03197236558831562
251.723,0.04209314647592577,-0.04209314647592577
251.724,0.049753630597753395,-0.049753630597753395
251.725,0.05341772132418676,-0.05341772132418676
251.726,0.0522036843827528,-0.0522036843827528
251.727,0.046056508035211885,-0.046056508035211885
251.728,0.035692852909237405,-0.035692852909237405
251.729,0.022373565670555706,-0.022373565670555706
251.73,0.007610207451050011,-0.007610207451050011
251.731,0.007086828843689608,0.007086828843689608
251.732,0.02035581072224457,0.02035581072224457
251.733,0.03103015150684163,0.03103015150684163
251.734,0.03814189687958569,0.03814189687958569
251.735,0.04095686360925921,0.04095686360925921
251.736,0.03908687262807531,0.03908687262807531
251.737,0.03266385293732732,0.03266385293732732
251.738,0.022498887697007586,0.022498887697007586
251.739,0.010119359077958467,0.010119359077958467
251.74,0.0024006984870080794,-0.0024006984870080794
251.741,0.012830892549379191,-0.012830892549379191
251.742,0.019315247947612413,-0.019315247947612413
251.743,0.020885843919563496,-0.020885843919563496
251.744,0.017777457351878856,-0.017777457351878856
251.745,0.01140785513925413,-0.01140785513925413
251.746,0.003994859977214937,-0.003994859977214937
251.747,0.0020890478875019713,0.0020890478875019713
251.748,0.005020663655441959,0.005020663655441959
251.749,0.004050865492796207,0.004050865492796207
251.75,0.00033334197584478087,-0.00033334197584478087
251.751,0.006666792008801381,-0.006666792008801381
251.752,0.013087616545665925,-0.013087616545665925
251.753,0.01802298622773757,-0.01802298622773757
251.754,0.020717556911172053,-0.020717556911172053
251.755,0.021401168837452134,-0.021401168837452134
251.756,0.021032397356442467,-0.021032397356442467
251.757,0.0207247279822933,-0.0207247279822933
251.758,0.021096188150903306,-0.021096188150903306
251.759,0.021826035649795572,-0.021826035649795572
251.76,0.021631815014370614,-0.021631815014370614
251.761,0.01871866911337816,-0.01871866911337816
251.762,0.011559425817170066,-0.011559425817170066
251.763,0.0002862242595844666,0.0002862242595844666
251.764,0.0156497947356371,0.0156497947356371
251.765,0.031780149114328804,0.031780149114328804
251.766,0.04497767666114494,0.04497767666114494
251.767,0.05166733269959045,0.05166733269959045
251.768,0.049559824670673436,0.049559824670673436
251.769,0.0384886583747055,0.0384886583747055
251.77,0.02059982318993825,0.02059982318993825
251.771,0.00021427033821008745,-0.00021427033821008745
251.772,0.01947795718533496,-0.01947795718533496
251.773,0.033511443431600285,-0.033511443431600285
251.774,0.0405512646465066,-0.0405512646465066
251.775,0.04121307367088012,-0.04121307367088012
251.776,0.03812142441764865,-0.03812142441764865
251.777,0.03482630699817413,-0.03482630699817413
251.778,0.03438701550050849,-0.03438701550050849
251.779,0.03813397499853022,-0.03813397499853022
251.78,0.04506705026768276,-0.04506705026768276
251.781,0.05212865333343131,-0.05212865333343131
251.782,0.05527769462194021,-0.05527769462194021
251.783,0.050997640759036456,-0.050997640759036456
251.784,0.03770551178478565,-0.03770551178478565
251.785,0.0165513762587971,-0.0165513762587971
251.786,0.008695346788702984,0.008695346788702984
251.787,0.032658001639159995,0.032658001639159995
251.788,0.04993217573714159,0.04993217573714159
251.789,0.05670162785143518,0.05670162785143518
251.79,0.05184880892223931,0.05184880892223931
251.791,0.037199901011886194,0.037199901011886194
251.792,0.0168519834731351,0.0168519834731351
251.793,0.004149553293493202,-0.004149553293493202
251.794,0.021299417231944617,-0.021299417231944617
251.795,0.0317697555351254,-0.0317697555351254
251.796,0.03483871873106892,-0.03483871873106892
251.797,0.0315405155703965,-0.0315405155703965
251.798,0.02377163318340625,-0.02377163318340625
251.799,0.013289937097972992,-0.013289937097972992
251.8,0.0010634786892732562,-0.0010634786892732562
251.801,0.01274484383787744,0.01274484383787744
251.802,0.028165342060296306,0.028165342060296306
251.803,0.044491378137927695,0.044491378137927695
251.804,0.059521335985835755,0.059521335985835755
251.805,0.06944230906590665,0.06944230906590665
251.806,0.06959613243102925,0.06959613243102925
251.807,0.056008117669882784,0.056008117669882784
251.808,0.02720193569376783,0.02720193569376783
251.809,0.014385685855543784,-0.014385685855543784
251.81,0.06204122949969093,-0.06204122949969093
251.811,0.10581934499405155,-0.10581934499405155
251.812,0.13488795325935554,-0.13488795325935554
251.813,0.14058131065618118,-0.14058131065618118
251.814,0.11924255962685937,-0.11924255962685937
251.815,0.07389952718049575,-0.07389952718049575
251.816,0.014105929434111486,-0.014105929434111486
251.817,0.04618009946479362,0.04618009946479362
251.818,0.09218413467148068,0.09218413467148068
251.819,0.1123713630289691,0.1123713630289691
251.82,0.10176451995340918,0.10176451995340918
251.821,0.06348995615961717,0.06348995615961717
251.822,0.00802756240540603,0.00802756240540603
251.823,0.04966684029881918,-0.04966684029881918
251.824,0.09434118408375303,-0.09434118408375303
251.825,0.11469472721337337,-0.11469472721337337
251.826,0.10643302917245556,-0.10643302917245556
251.827,0.07323707952879643,-0.07323707952879643
251.828,0.025397604054889777,-0.025397604054889777
251.829,0.023419156408512665,0.023419156408512665
251.83,0.060249305418971444,0.060249305418971444
251.831,0.07650058045274388,0.07650058045274388
251.832,0.07012987328945797,0.07012987328945797
251.833,0.04574717678880913,0.04574717678880913
251.834,0.01272853999322865,0.01272853999322865
251.835,0.01796892544940032,-0.01796892544940032
251.836,0.03723261735351857,-0.03723261735351857
251.837,0.04039048457623329,-0.04039048457623329
251.838,0.028233588198467552,-0.028233588198467552
251.839,0.006264287012301972,-0.006264287012301972
251.84,0.01745745697191725,0.01745745697191725
251.841,0.035080179625698094,0.035080179625698094
251.842,0.04141472543864411,0.04141472543864411
251.843,0.035323299814645326,0.035323299814645326
251.844,0.019694007362412558,0.019694007362412558
251.845,0.00013622790732470413,0.00013622790732470413
251.846,0.01706579597061797,-0.01706579597061797
251.847,0.027011197913002327,-0.027011197913002327
251.848,0.027586734090317422,-0.027586734090317422
251.849,0.01982972520800763,-0.01982972520800763
251.85,0.0072438643750282194,-0.0072438643750282194
251.851,0.005590971962359914,0.005590971962359914
251.852,0.01457588446624647,0.01457588446624647
251.853,0.01728314836007483,0.01728314836007483
251.854,0.013432793202717397,0.013432793202717397
251.855,0.004595946066124901,0.004595946066124901
251.856,0.00665819916176269,-0.00665819916176269
251.857,0.01778600502107308,-0.01778600502107308
251.858,0.027066690830676254,-0.027066690830676254
251.859,0.03391211500745073,-0.03391211500745073
251.86,0.038646970682703174,-0.038646970682703174
251.861,0.04193089537486072,-0.04193089537486072
251.862,0.04412193760106209,-0.04412193760106209
251.863,0.04488080503440983,-0.04488080503440983
251.864,0.043195871876291925,-0.043195871876291925
251.865,0.0378230433801946,-0.0378230433801946
251.866,0.02795734136096384,-0.02795734136096384
251.867,0.01385246465718859,-0.01385246465718859
251.868,0.002883389364020772,0.002883389364020772
251.869,0.019470093054587245,0.019470093054587245
251.87,0.03259532058843129,0.03259532058843129
251.871,0.039321480211855775,0.039321480211855775
251.872,0.03796899863720116,0.03796899863720116
251.873,0.028685975927395635,0.028685975927395635
251.874,0.013513368428045736,0.013513368428045736
251.875,0.004085047852973256,-0.004085047852973256
251.876,0.02009346871540718,-0.02009346871540718
251.877,0.030964520746668,-0.030964520746668
251.878,0.034503741344483196,-0.034503741344483196
251.879,0.030383892086690012,-0.030383892086690012
251.88,0.020168797465819455,-0.020168797465819455
251.881,0.006862804794578237,-0.006862804794578237
251.882,0.005879992500248177,0.005879992500248177
251.883,0.014681565191020596,0.014681565191020596
251.884,0.017281299943925132,0.017281299943925132
251.885,0.013108236631548476,0.013108236631548476
251.886,0.003465764001227445,0.003465764001227445
251.887,0.008710817432301288,-0.008710817432301288
251.888,0.019485460944889788,-0.019485460944889788
251.889,0.02483255812994145,-0.02483255812994145
251.89,0.02166052096791493,-0.02166052096791493
251.891,0.00873841242897222,-0.00873841242897222
251.892,0.012697269419653434,0.012697269419653434
251.893,0.03884954477435931,0.03884954477435931
251.894,0.06389321651648139,0.06389321651648139
251.895,0.08111051535943958,0.08111051535943958
251.896,0.08444532864756749,0.08444532864756749
251.897,0.07014022414423016,0.07014022414423016
251.898,0.038032504759325514,0.038032504759325514
251.899,0.007895341179656401,-0.007895341179656401
251.9,0.05997099087557922,-0.05997099087557922
251.901,0.1083047277968524,-0.1083047277968524
251.902,0.1429976896493539,-0.1429976896493539
251.903,0.1565551342792152,-0.1565551342792152
251.904,0.14585394805681728,-0.14585394805681728
251.905,0.11307900472418764,-0.11307900472418764
251.906,0.06529521620066447,-0.06529521620066447
251.907,0.012700757808167817,-0.012700757808167817
251.908,0.03399696270263908,0.03399696270263908
251.909,0.0663530449838543,0.0663530449838543
251.91,0.08029627719314525,0.08029627719314525
251.911,0.0769423399570206,0.0769423399570206
251.912,0.06185288044866599,0.06185288044866599
251.913,0.04296454885722212,0.04296454885722212
251.914,0.027840075143466203,0.027840075143466203
251.915,0.021126481639917705,0.021126481639917705
251.916,0.02305792821493524,0.02305792821493524
251.917,0.02951589500422802,0.02951589500422802
251.918,0.03365344732925202,0.03365344732925202
251.919,0.028564105593413824,0.028564105593413824
251.92,0.010104072187052893,0.010104072187052893
251.921,0.02111035788203508,-0.02111035788203508
251.922,0.05927006992877493,-0.05927006992877493
251.923,0.09474824222206879,-0.09474824222206879
251.924,0.11692712617475354,-0.11692712617475354
251.925,0.11761427459105644,-0.11761427459105644
251.926,0.0939452057678527,-0.0939452057678527
251.927,0.049783856325685716,-0.049783856325685716
251.928,0.004923009882981999,0.004923009882981999
251.929,0.05674062270845903,0.05674062270845903
251.93,0.09256012873764297,0.09256012873764297
251.931,0.10348209776359862,0.10348209776359862
251.932,0.08755687263107181,0.08755687263107181
251.933,0.05049187283341361,0.05049187283341361
251.934,0.00405042331893557,0.00405042331893557
251.935,0.037417588027648385,-0.037417588027648385
251.936,0.06128196778136441,-0.06128196778136441
251.937,0.060467231157620094,-0.060467231157620094
251.938,0.03563662344621876,-0.03563662344621876
251.939,0.0049576077614192915,0.0049576077614192915
251.94,0.04792843877943609,0.04792843877943609
251.941,0.07877825060137988,0.07877825060137988
251.942,0.08627927751057785,0.08627927751057785
251.943,0.06589136182347333,0.06589136182347333
251.944,0.02119654767411383,0.02119654767411383
251.945,0.0370638145008072,-0.0370638145008072
251.946,0.0940403129347952,-0.0940403129347952
251.947,0.1349885134565849,-0.1349885134565849
251.948,0.14939191249688344,-0.14939191249688344
251.949,0.13380127363589078,-0.13380127363589078
251.95,0.09260997395360171,-0.09260997395360171
251.951,0.036616186991804134,-0.036616186991804134
251.952,0.020126695483234203,0.020126695483234203
251.953,0.06419681978310021,0.06419681978310021
251.954,0.08629148968349432,0.08629148968349432
251.955,0.08336167979698272,0.08336167979698272
251.956,0.05889183085937155,0.05889183085937155
251.957,0.02139330562361308,0.02139330562361308
251.958,0.018311680546890696,-0.018311680546890696
251.959,0.05014079217023071,-0.05014079217023071
251.96,0.06724851000933096,-0.06724851000933096
251.961,0.06733273476820723,-0.06733273476820723
251.962,0.05253232418618825,-0.05253232418618825
251.963,0.028137254409778323,-0.028137254409778323
251.964,0.0006577748799907468,-0.0006577748799907468
251.965,0.024082010051269087,0.024082010051269087
251.966,0.04226367320078683,0.04226367320078683
251.967,0.05251324460610296,0.05251324460610296
251.968,0.05549460470843259,0.05549460470843259
251.969,0.05296759643709681,0.05296759643709681
251.97,0.046754908471433376,0.046754908471433376
251.971,0.03802401428993374,0.03802401428993374
251.972,0.027111538107941424,0.027111538107941424
251.973,0.013874323462198523,0.013874323462198523
251.974,0.00166231898535818,-0.00166231898535818
251.975,0.018696865728132006,-0.018696865728132006
251.976,0.03539104382261049,-0.03539104382261049
251.977,0.049111881439972915,-0.049111881439972915
251.978,0.05712178683345148,-0.05712178683345148
251.979,0.05747436126704897,-0.05747436126704897
251.98,0.04977839084884661,-0.04977839084884661
251.981,0.03552462735500361,-0.03552462735500361
251.982,0.017817635049318548,-0.017817635049318548
251.983,0.0005646069922731201,-0.0005646069922731201
251.984,0.01263078869005807,0.01263078869005807
251.985,0.019509132114535976,0.019509132114535976
251.986,0.01978219888156918,0.01978219888156918
251.987,0.015131119349872435,0.015131119349872435
251.988,0.008569967972083647,0.008569967972083647
251.989,0.00338248438574551,0.00338248438574551
251.99,0.0019843146038034387,0.0019843146038034387
251.991,0.005089645957056854,0.005089645957056854
251.992,0.011460341585893152,0.011460341585893152
251.993,0.018321749495185946,0.018321749495185946
251.994,0.02230761651431945,0.02230761651431945
251.995,0.020621254410094547,0.020621254410094547
251.996,0.012029395641410368,0.012029395641410368
251.997,0.002638353350852052,-0.002638353350852052
251.998,0.020647952317709217,-0.020647952317709217
251.999,0.038125450563415875,-0.038125450563415875
252.0,0.05118054919963122,-0.05118054919963122
252.001,0.05703086640236632,-0.05703086640236632
252.002,0.054776023272506746,-0.054776023272506746
252.003,0.04559154751709327,-0.04559154751709327
252.004,0.032304093839767845,-0.032304093839767845
252.005,0.018506509419447648,-0.018506509419447648
252.006,0.007508834999968905,-0.007508834999968905
252.007,0.001456390339918845,-0.001456390339918845
252.008,0.0008714745572803162,-0.0008714745572803162
252.009,0.004720966243094704,-0.004720966243094704
252.01,0.010934091508033594,-0.010934091508033594
252.011,0.01715449315172113,-0.01715449315172113
252.012,0.021454409297220867,-0.021454409297220867
252.013,0.022780945662440932,-0.022780945662440932
252.014,0.021024377201969924,-0.021024377201969924
252.015,0.016748452965450022,-0.016748452965450022
252.016,0.010746055464115556,-0.010746055464115556
252.017,0.0036353338671254454,-0.0036353338671254454
252.018,0.004325278516996933,0.004325278516996933
252.019,0.013132879744483184,0.013132879744483184
252.02,0.022711725989127185,0.022711725989127185
252.021,0.032533336360177634,0.032533336360177634
252.022,0.041393522177823217,0.041393522177823217
252.023,0.04750181711670742,0.04750181711670742
252.024,0.04891477861520732,0.04891477861520732
252.025,0.044196030422358756,0.044196030422358756
252.026,0.0330710511031338,0.0330710511031338
252.027,0.016811925334736078,0.016811925334736078
252.028,0.0018440022184258442,-0.0018440022184258442
252.029,0.01928569167293881,-0.01928569167293881
252.03,0.03199025743556283,-0.03199025743556283
252.031,0.03756552412955172,-0.03756552412955172
252.032,0.03552651486447744,-0.03552651486447744
252.033,0.027521982932120048,-0.027521982932120048
252.034,0.01689550412632035,-0.01689550412632035
252.035,0.007685912091816238,-0.007685912091816238
252.036,0.003368695372825914,-0.003368695372825914
252.037,0.0057425853482093725,-0.0057425853482093725
252.038,0.0143332958935114,-0.0143332958935114
252.039,0.02652461316426602,-0.02652461316426602
252.04,0.03838721237410647,-0.03838721237410647
252.041,0.0459386896469931,-0.0459386896469931
252.042,0.04641719048534043,-0.04641719048534043
252.043,0.039141020731290777,-0.039141020731290777
252.044,0.02566496040699262,-0.02566496040699262
252.045,0.009185656300651157,-0.009185656300651157
252.046,0.006589410308345478,0.006589410308345478
252.047,0.018704653855917908,0.018704653855917908
252.048,0.02589697590603257,0.02589697590603257
252.049,0.028873133445502575,0.028873133445502575
252.05,0.029820858873990108,0.029820858873990108
252.051,0.03133162854738325,0.03133162854738325
252.052,0.03513658699630717,0.03513658699630717
252.053,0.04114086593637989,0.04114086593637989
252.054,0.0471505302772095,0.0471505302772095
252.055,0.04944742456935236,0.04944742456935236
252.056,0.044061047725088676,0.044061047725088676
252.057,0.0283208235575223,0.0283208235575223
252.058,0.0021436010267048555,0.0021436010267048555
252.059,0.03142879638862639,-0.03142879638862639
252.06,0.06669252888100763,-0.06669252888100763
252.061,0.09666259354580609,-0.09666259354580609
252.062,0.11497045905967795,-0.11497045905967795
252.063,0.11768498273303807,-0.11768498273303807
252.064,0.1044672810699232,-0.1044672810699232
252.065,0.07867466702094228,-0.07867466702094228
252.066,0.04636767565559574,-0.04636767565559574
252.067,0.01453384172402139,-0.01453384172402139
252.068,0.010900546284974055,0.010900546284974055
252.069,0.02663318730148223,0.02663318730148223
252.07,0.03263437937832503,0.03263437937832503
252.071,0.031706566019651605,0.031706566019651605
252.072,0.028150418727289628,0.028150418727289628
252.073,0.0260322620871416,0.0260322620871416
252.074,0.027671874286546716,0.027671874286546716
252.075,0.032876394216215354,0.032876394216215354
252.076,0.039169095967039214,0.039169095967039214
252.077,0.04289984678729919,0.04289984678729919
252.078,0.04080604343689598,0.04080604343689598
252.079,0.03143221075753444,0.03143221075753444
252.08,0.015870831560921728,0.015870831560921728
252.081,0.0024628525670893353,-0.0024628525670893353
252.082,0.018953047609221674,-0.018953047609221674
252.083,0.02939975621898039,-0.02939975621898039
252.084,0.031536617226683994,-0.031536617226683994
252.085,0.025882704525436617,-0.025882704525436617
252.086,0.015594753586751109,-0.015594753586751109
252.087,0.00534738336479168,-0.00534738336479168
252.088,0.00037209166940854743,0.00037209166940854743
252.089,0.0010585053446124926,-0.0010585053446124926
252.09,0.00936649519100441,-0.00936649519100441
252.091,0.02140502074483852,-0.02140502074483852
252.092,0.03225468495696171,-0.03225468495696171
252.093,0.037041938656688256,-0.037041938656688256
252.094,0.03283394183137511,-0.03283394183137511
252.095,0.01991521479733882,-0.01991521479733882
252.096,0.0019452138517564999,-0.0019452138517564999
252.097,0.015123042999513947,0.015123042999513947
252.098,0.025044149534086513,0.025044149534086513
252.099,0.023538367969924368,0.023538367969924368
252.1,0.010019309840763935,0.010019309840763935
252.101,0.011850018551366248,-0.011850018551366248
252.102,0.03503942902300872,-0.03503942902300872
252.103,0.051257242251691926,-0.051257242251691926
252.104,0.05363813773748971,-0.05363813773748971
252.105,0.03914684362200227,-0.03914684362200227
252.106,0.009889259623911073,-0.009889259623911073
252.107,0.027149117015784263,0.027149117015784263
252.108,0.061922391213983685,0.061922391213983685
252.109,0.08418438510943904,0.08418438510943904
252.11,0.08652915793154436,0.08652915793154436
252.111,0.06667884996205697,0.06667884996205697
252.112,0.028309298847544406,0.028309298847544406
252.113,0.019848159152339062,-0.019848159152339062
252.114,0.06636197425353552,-0.06636197425353552
252.115,0.10020598825562999,-0.10020598825562999
252.116,0.1136946403855481,-0.1136946403855481
252.117,0.10440184854660861,-0.10440184854660861
252.118,0.07554996316499563,-0.07554996316499563
252.119,0.03483246786807492,-0.03483246786807492
252.12,0.007898716751283619,0.007898716751283619
252.121,0.04333926935911192,0.04333926935911192
252.122,0.06502438180592551,0.06502438180592551
252.123,0.07058642389691894,0.07058642389691894
252.124,0.06172386414696951,0.06172386414696951
252.125,0.04304322281757833,0.04304322281757833
252.126,0.02026629593575202,0.02026629593575202
252.127,0.0015605077820683988,-0.0015605077820683988
252.128,0.019291925312091007,-0.019291925312091007
252.129,0.03203323946071612,-0.03203323946071612
252.13,0.04063315447906812,-0.04063315447906812
252.131,0.046633806109015685,-0.046633806109015685
252.132,0.05115106831368621,-0.05115106831368621
252.133,0.05413859151678302,-0.05413859151678302
252.134,0.054309157045081324,-0.054309157045081324
252.135,0.049719787925906145,-0.049719787925906145
252.136,0.03877123244678771,-0.03877123244678771
252.137,0.021217229607568888,-0.021217229607568888
252.138,0.0012256031845090387,0.0012256031845090387
252.139,0.024934525193580193,0.024934525193580193
252.14,0.04513704626202886,0.04513704626202886
252.141,0.05715623603703146,0.05715623603703146
252.142,0.05776374511995441,0.05776374511995441
252.143,0.0462162993754609,0.0462162993754609
252.144,0.024645792069678096,0.024645792069678096
252.145,0.0023304513756615686,-0.0023304513756615686
252.146,0.028680205479455045,-0.028680205479455045
252.147,0.04841363353498507,-0.04841363353498507
252.148,0.0570325587656374,-0.0570325587656374
252.149,0.05259410275248544,-0.05259410275248544
252.15,0.03613214987724034,-0.03613214987724034
252.151,0.0113615751500602,-0.0113615751500602
252.152,0.01622441670967545,0.01622441670967545
252.153,0.040614912546638626,0.040614912546638626
252.154,0.056589836821792305,0.056589836821792305
252.155,0.060787287979694904,0.060787287979694904
252.156,0.052325029545164936,0.052325029545164936
252.157,0.03288803654977879,0.03288803654977879
252.158,0.006309832712694918,0.006309832712694918
252.159,0.02223379565704342,-0.02223379565704342
252.16,0.04724567913655464,-0.04724567913655464
252.161,0.06395146082066305,-0.06395146082066305
252.162,0.06918691862561022,-0.06918691862561022
252.163,0.061980791021242654,-0.061980791021242654
252.164,0.043734194204818944,-0.043734194204818944
252.165,0.017959797192373284,-0.017959797192373284
252.166,0.010383717637947099,0.010383717637947099
252.167,0.03585077428332739,0.03585077428332739
252.168,0.053584481794852756,0.053584481794852756
252.169,0.06029224812414502,0.06029224812414502
252.17,0.05490848506227186,0.05490848506227186
252.171,0.038785944823241936,0.038785944823241936
252.172,0.01535736045461955,0.01535736045461955
252.173,0.010665747740047249,-0.010665747740047249
252.174,0.034371898886061514,-0.034371898886061514
252.175,0.05174380580826632,-0.05174380580826632
252.176,0.06049544101935178,-0.06049544101935178
252.177,0.06044414108526208,-0.06044414108526208
252.178,0.05333438858885253,-0.05333438858885253
252.179,0.042180351523189,-0.042180351523189
252.18,0.030326930454427026,-0.030326930454427026
252.181,0.020504098961179662,-0.020504098961179662
252.182,0.014143549446225312,-0.014143549446225312
252.183,0.011141446710195568,-0.011141446710195568
252.184,0.010112421977868769,-0.010112421977868769
252.185,0.009030460506010973,-0.009030460506010973
252.186,0.00603796006526891,-0.00603796006526891
252.187,0.0001596247470549983,-0.0001596247470549983
252.188,0.008304459715760437,0.008304459715760437
252.189,0.017825548992060236,0.017825548992060236
252.19,0.02611062812291398,0.02611062812291398
252.191,0.030831322328310762,0.030831322328310762
252.192,0.030383642550410483,0.030383642550410483
252.193,0.024438476318895397,0.024438476318895397
252.194,0.014110599441971683,0.014110599441971683
252.195,0.0016933779007830552,0.0016933779007830552
252.196,0.009960570174592953,-0.009960570174592953
252.197,0.018226462729556747,-0.018226462729556747
252.198,0.021428201763446064,-0.021428201763446064
252.199,0.019282251419114216,-0.019282251419114216
252.2,0.01293907071218614,-0.01293907071218614
252.201,0.004616878274266933,-0.004616878274266933
252.202,0.0030585199753525583,0.0030585199753525583
252.203,0.0078110770074641955,0.0078110770074641955
252.204,0.008348188795412437,0.008348188795412437
252.205,0.004690145563113868,0.004690145563113868
252.206,0.0018936926708009727,-0.0018936926708009727
252.207,0.009315415873454413,-0.009315415873454413
252.208,0.01533273962843218,-0.01533273962843218
252.209,0.01824656042678552,-0.01824656042678552
252.21,0.017422365371072557,-0.017422365371072557
252.211,0.013477301420829813,-0.013477301420829813
252.212,0.008072470404170806,-0.008072470404170806
252.213,0.0033670910518452946,-0.0033670910518452946
252.214,0.0012946040736545594,-0.0012946040736545594
252.215,0.0028805495140631354,-0.0028805495140631354
252.216,0.007819230702478697,-0.007819230702478697
252.217,0.014458713282794577,-0.014458713282794577
252.218,0.020227780971250997,-0.020227780971250997
252.219,0.022405149625346565,-0.022405149625346565
252.22,0.019018711224048968,-0.019018711224048968
252.221,0.009605723785045539,-0.009605723785045539
252.222,0.004415141636151532,0.004415141636151532
252.223,0.019912077331843303,0.019912077331843303
252.224,0.03275003909991758,0.03275003909991758
252.225,0.0388798513296702,0.0388798513296702
252.226,0.03551605389800527,0.03551605389800527
252.227,0.022062410340308647,0.022062410340308647
252.228,0.0004923594466301751,0.0004923594466301751
252.229,0.024968039672399578,-0.024968039672399578
252.23,0.0488108861640536,-0.0488108861640536
252.231,0.0656309232592901,-0.0656309232592901
252.232,0.07154752193463687,-0.07154752193463687
252.233,0.06525735600266214,-0.06525735600266214
252.234,0.04840162618536781,-0.04840162618536781
252.235,0.025122396042950745,-0.025122396042950745
252.236,0.0009195906275005772,-0.0009195906275005772
252.237,0.01886771301309853,0.01886771301309853
252.238,0.030511847502441958,0.030511847502441958
252.239,0.03284782180529122,0.03284782180529122
252.24,0.02744056713786991,0.02744056713786991
252.241,0.01792189999604865,0.01792189999604865
252.242,0.008708872910692111,0.008708872910692111
252.243,0.003511246245362809,0.003511246245362809
252.244,0.004105858868556522,0.004105858868556522
252.245,0.009774148701259255,0.009774148701259255
252.246,0.017588625269453484,0.017588625269453484
252.247,0.023459754829565194,0.023459754829565194
252.248,0.023603990950406883,0.023603990950406883
252.249,0.015948648930019127,0.015948648930019127
252.25,0.0009996748736122996,0.0009996748736122996
252.251,0.018135682014267296,-0.018135682014267296
252.252,0.03660828736566013,-0.03660828736566013
252.253,0.04931561561557396,-0.04931561561557396
252.254,0.05255148410910482,-0.05255148410910482
252.255,0.04528134732815692,-0.04528134732815692
252.256,0.029612132564874494,-0.029612132564874494
252.257,0.01027283069298357,-0.01027283069298357
252.258,0.006764819359494467,0.006764819359494467
252.259,0.01611656775696324,0.01611656775696324
252.26,0.014701987816572615,0.014701987816572615
252.261,0.0028021445999921735,0.0028021445999921735
252.262,0.015893483762642102,-0.015893483762642102
252.263,0.035295770150333805,-0.035295770150333805
252.264,0.04869866742475648,-0.04869866742475648
252.265,0.05080987525708225,-0.05080987525708225
252.266,0.03941814584372472,-0.03941814584372472
252.267,0.016187098686873735,-0.016187098686873735
252.268,0.013677318911733627,0.013677318911733627
252.269,0.042803625550624114,0.042803625550624114
252.27,0.06368294334092983,0.06368294334092983
252.271,0.07076261706162956,0.07076261706162956
252.272,0.06200131738717607,0.06200131738717607
252.273,0.03944175123772453,0.03944175123772453
252.274,0.008645370450147905,0.008645370450147905
252.275,0.02283747067527775,-0.02283747067527775
252.276,0.04751605578203344,-0.04751605578203344
252.277,0.059943098716490506,-0.059943098716490506
252.278,0.05808379574769762,-0.05808379574769762
252.279,0.043709686744339615,-0.043709686744339615
252.28,0.02174263943182453,-0.02174263943182453
252.281,0.0012291957472221338,0.0012291957472221338
252.282,0.018819384820357943,0.018819384820357943
252.283,0.026563217952217277,0.026563217952217277
252.284,0.023023159655074732,0.023023159655074732
252.285,0.010006147731489667,0.010006147731489667
252.286,0.008120877538275173,-0.008120877538275173
252.287,0.025780286645720407,-0.025780286645720407
252.288,0.037789629677506986,-0.037789629677506986
252.289,0.040767352915334176,-0.040767352915334176
252.29,0.03396305289956858,-0.03396305289956858
252.291,0.019318300454421955,-0.019318300454421955
252.292,0.000789122267265352,-0.000789122267265352
252.293,0.016835445315074526,0.016835445315074526
252.294,0.02925859331352365,0.02925859331352365
252.295,0.03376769643407851,0.03376769643407851
252.296,0.029806728287927076,0.029806728287927076
252.297,0.018909924858346194,0.018909924858346194
252.298,0.004068965035959549,0.004068965035959549
252.299,0.011234800825020264,-0.011234800825020264
252.3,0.024019639461698827,-0.024019639461698827
252.301,0.03251721133502994,-0.03251721133502994
252.302,0.03641973823596989,-0.03641973823596989
252.303,0.036629497068813466,-0.036629497068813466
252.304,0.034642489856574366,-0.034642489856574366
252.305,0.03181246656464709,-0.03181246656464709
252.306,0.02877125027742211,-0.02877125027742211
252.307,0.02521738096527182,-0.02521738096527182
252.308,0.020148429578154214,-0.020148429578154214
252.309,0.012448053827386119,-0.012448053827386119
252.31,0.0016023907925428738,-0.0016023907925428738
252.311,0.011740283487188696,0.011740283487188696
252.312,0.025613123080707068,0.025613123080707068
252.313,0.03709265691677688,0.03709265691677688
252.314,0.043111487765951306,0.043111487765951306
252.315,0.04148050682903781,0.04148050682903781
252.316,0.03177649374290925,0.03177649374290925
252.317,0.015760500716277548,0.015760500716277548
252.318,0.0028794814617592035,-0.0028794814617592035
252.319,0.019455578694718256,-0.019455578694718256
252.32,0.029639841150360002,-0.029639841150360002
252.321,0.030848053317727442,-0.030848053317727442
252.322,0.023190054294392137,-0.023190054294392137
252.323,0.009630582257269649,-0.009630582257269649
252.324,0.00476512294699849,0.00476512294699849
252.325,0.014334540601379953,0.014334540601379953
252.326,0.014642181575527102,0.014642181575527102
252.327,0.004056385026288245,0.004056385026288245
252.328,0.015454495107093846,-0.015454495107093846
252.329,0.03862648853637307,-0.03862648853637307
252.33,0.05829188279369513,-0.05829188279369513
252.331,0.06749356516522675,-0.06749356516522675
252.332,0.061699895124113224,-0.061699895124113224
252.333,0.04042569843665722,-0.04042569843665722
252.334,0.007711211728066769,-0.007711211728066769
252.335,0.028759496304156418,0.028759496304156418
252.336,0.05970265888773296,0.05970265888773296
252.337,0.0768697926449613,0.0768697926449613
252.338,0.07549214657701353,0.07549214657701353
252.339,0.055781061584527114,0.055781061584527114
252.34,0.02299583585770959,0.02299583585770959
252.341,0.0139830501814866,-0.0139830501814866
252.342,0.04518010842084774,-0.04518010842084774
252.343,0.06240993176099485,-0.06240993176099485
252.344,0.06165838441319027,-0.06165838441319027
252.345,0.04423972644885854,-0.04423972644885854
252.346,0.016375865004074064,-0.016375865004074064
252.347,0.012678413418135026,0.012678413418135026
252.348,0.03339969204391835,0.03339969204391835
252.349,0.03881844548917224,0.03881844548917224
252.35,0.026558085210634852,0.026558085210634852
252.351,0.0005044069321825662,-0.0005044069321825662
252.352,0.03512656950531989,-0.03512656950531989
252.353,0.06783936873436491,-0.06783936873436491
252.354,0.08967270643432101,-0.08967270643432101
252.355,0.09464936111926414,-0.09464936111926414
252.356,0.08132872346095432,-0.08132872346095432
252.357,0.052995266636111316,-0.052995266636111316
252.358,0.016509264888222686,-0.016509264888222686
252.359,0.019766271655188072,0.019766271655188072
252.36,0.048299254285105286,0.048299254285105286
252.361,0.06428677842496122,0.06428677842496122
252.362,0.0666032736258042,0.0666032736258042
252.363,0.057609542589579066,0.057609542589579066
252.364,0.041992841741089304,0.041992841741089304
252.365,0.025086220251190783,0.025086220251190783
252.366,0.01123125057264418,0.01123125057264418
252.367,0.0026783495953561776,0.0026783495953561776
252.368,0.0006995117673521678,-0.0006995117673521678
252.369,0.0008887865363494951,-0.0008887865363494951
252.37,0.0006767703729444463,-0.0006767703729444463
252.371,0.0024619234209681817,-0.0024619234209681817
252.372,0.007342613811464949,-0.007342613811464949
252.373,0.01476197044976102,-0.01476197044976102
252.374,0.02277801338821539,-0.02277801338821539
252.375,0.02881770781962567,-0.02881770781962567
252.376,0.030628863296671693,-0.030628863296671693
252.377,0.02710429398451142,-0.02710429398451142
252.378,0.01871959569824111,-0.01871959569824111
252.379,0.007466321836673284,-0.007466321836673284
252.38,0.003675934272378667,0.003675934272378667
252.381,0.011553924242370783,0.011553924242370783
252.382,0.01370131997522206,0.01370131997522206
252.383,0.009014294740191442,0.009014294740191442
252.384,0.001920050732034162,-0.001920050732034162
252.385,0.01690505220914451,-0.01690505220914451
252.386,0.03258964231394612,-0.03258964231394612
252.387,0.04518640961969089,-0.04518640961969089
252.388,0.05129997937618003,-0.05129997937618003
252.389,0.04870261149543509,-0.04870261149543509
252.39,0.03690697713758728,-0.03690697713758728
252.391,0.017416261069191807,-0.017416261069191807
252.392,0.006422888451488973,0.006422888451488973
252.393,0.029977210025596834,0.029977210025596834
252.394,0.04822851700758268,0.04822851700758268
252.395,0.05687025309376259,0.05687025309376259
252.396,0.05337520333891077,0.05337520333891077
252.397,0.037773926907609834,0.037773926907609834
252.398,0.012907797701286805,0.012907797701286805
252.399,0.015983250577389252,-0.015983250577389252
252.4,0.04232152079126106,-0.04232152079126106
252.401,0.059702803431042284,-0.059702803431042284
252.402,0.06350657751007938,-0.06350657751007938
252.403,0.052181746027304965,-0.052181746027304965
252.404,0.027829484804753668,-0.027829484804753668
252.405,0.004131691160239814,0.004131691160239814
252.406,0.036189057284871096,0.036189057284871096
252.407,0.06056067417728972,0.06056067417728972
252.408,0.07114656087894344,0.07114656087894344
252.409,0.06507287469710676,0.06507287469710676
252.41,0.04339646797036356,0.04339646797036356
252.411,0.010771974336072132,0.010771974336072132
252.412,0.025816202891032813,-0.025816202891032813
252.413,0.05888197351771851,-0.05888197351771851
252.414,0.08229254977923095,-0.08229254977923095
252.415,0.09262494751386807,-0.09262494751386807
252.416,0.08966978262988612,-0.08966978262988612
252.417,0.07600605547427475,-0.07600605547427475
252.418,0.05586285908214683,-0.05586285908214683
252.419,0.033693634246899196,-0.033693634246899196
252.42,0.012947628108090248,-0.012947628108090248
252.421,0.0045840848877725104,0.0045840848877725104
252.422,0.0187021259512985,0.0187021259512985
252.423,0.030136578393517688,0.030136578393517688
252.424,0.03962577794714406,0.03962577794714406
252.425,0.04715114148244903,0.04715114148244903
252.426,0.051661450961779654,0.051661450961779654
252.427,0.05141129590952365,0.05141129590952365
252.428,0.04478207812725632,0.04478207812725632
252.429,0.031247430519972808,0.031247430519972808
252.43,0.012067492453054163,0.012067492453054163
252.431,0.009619832766519898,-0.009619832766519898
252.432,0.029425644504049164,-0.029425644504049164
252.433,0.042898122292281515,-0.042898122292281515
252.434,0.046889279477180024,-0.046889279477180024
252.435,0.04062384247795592,-0.04062384247795592
252.436,0.026071486533668753,-0.026071486533668753
252.437,0.0074507206045068,-0.0074507206045068
252.438,0.010008628756340565,0.010008628756340565
252.439,0.02165295923075261,0.02165295923075261
252.44,0.024817008405794594,0.024817008405794594
252.441,0.01958278171018102,0.01958278171018102
252.442,0.008624301260611533,0.008624301260611533
252.443,0.0038103450675400774,-0.0038103450675400774
252.444,0.013428782356653679,-0.013428782356653679
252.445,0.01740461450885944,-0.01740461450885944
252.446,0.015340462539380928,-0.015340462539380928
252.447,0.009344652257957664,-0.009344652257957664
252.448,0.0031916150867702386,-0.0031916150867702386
252.449,0.0008584629481549477,-0.0008584629481549477
252.45,0.004953010051877205,-0.004953010051877205
252.451,0.015593205514654485,-0.015593205514654485
252.452,0.030147909499527836,-0.030147909499527836
252.453,0.04395540474684556,-0.04395540474684556
252.454,0.05180006174033547,-0.05180006174033547
252.455,0.04966475072742271,-0.04966475072742271
252.456,0.036176786327801524,-0.036176786327801524
252.457,0.01326165547481406,-0.01326165547481406
252.458,0.01422268398951787,0.01422268398951787
252.459,0.03976644243587968,0.03976644243587968
252.46,0.05700630689155339,0.05700630689155339
252.461,0.0614866856674976,0.0614866856674976
252.462,0.05185513826628574,0.05185513826628574
252.463,0.030157592614479256,0.030157592614479256
252.464,0.0011907473688805847,0.0011907473688805847
252.465,0.028842062869747886,-0.028842062869747886
252.466,0.05393350192682356,-0.05393350192682356
252.467,0.06965681960599857,-0.06965681960599857
252.468,0.07397147111569402,-0.07397147111569402
252.469,0.06730724688606005,-0.06730724688606005
252.47,0.052023158888723664,-0.052023158888723664
252.471,0.031513966321642495,-0.031513966321642495
252.472,0.009298269402553627,-0.009298269402553627
252.473,0.011639979124115962,0.011639979124115962
252.474,0.029132352822458962,0.029132352822458962
252.475,0.04177295437342887,0.04177295437342887
252.476,0.04869689869646132,0.04869689869646132
252.477,0.049388441171309916,0.049388441171309916
252.478,0.043657120482868406,0.043657120482868406
252.479,0.03180177244732274,0.03180177244732274
252.48,0.01486096256138647,0.01486096256138647
252.481,0.005221336593274617,-0.005221336593274617
252.482,0.025673327639633925,-0.025673327639633925
252.483,0.04328436760476251,-0.04328436760476251
252.484,0.05504299653571132,-0.05504299653571132
252.485,0.058845769050484664,-0.058845769050484664
252.486,0.05404672782682618,-0.05404672782682618
252.487,0.04165343045075187,-0.04165343045075187
252.488,0.024088299917475187,-0.024088299917475187
252.489,0.0045816015061621584,-0.0045816015061621584
252.49,0.013611857099663505,0.013611857099663505
252.491,0.027924543833310222,0.027924543833310222
252.492,0.03690444865166431,0.03690444865166431
252.493,0.04026021784897926,0.04026021784897926
252.494,0.038568599523265634,0.038568599523265634
252.495,0.03281005099263101,0.03281005099263101
252.496,0.023947362394309835,0.023947362394309835
252.497,0.012721576300754434,0.012721576300754434
252.498,0.00027271310338483623,-0.00027271310338483623
252.499,0.01430729663358521,-0.01430729663358521
252.5,0.028213731255433694,-0.028213731255433694
252.501,0.04025391734938255,-0.04025391734938255
252.502,0.04830534531693309,-0.04830534531693309
252.503,0.05036422639552618,-0.05036422639552618
252.504,0.045220489087365534,-0.045220489087365534
252.505,0.03305623819770298,-0.03305623819770298
252.506,0.015709866869121902,-0.015709866869121902
252.507,0.0035571271975787244,0.0035571271975787244
252.508,0.020784086889876763,0.020784086889876763
252.509,0.03233609948513805,0.03233609948513805
252.51,0.035912744275033104,0.035912744275033104
252.511,0.031204262344248113,0.031204262344248113
252.512,0.019961007644570206,0.019961007644570206
252.513,0.005434235271835508,0.005434235271835508
252.514,0.0086383029926409,-0.0086383029926409
252.515,0.019167729190791682,-0.019167729190791682
252.516,0.024590292092939614,-0.024590292092939614
252.517,0.02519306547395128,-0.02519306547395128
252.518,0.022791391891828106,-0.022791391891828106
252.519,0.019890519376041582,-0.019890519376041582
252.52,0.018647114780951046,-0.018647114780951046
252.521,0.02001529244207023,-0.02001529244207023
252.522,0.023390279454630125,-0.023390279454630125
252.523,0.02687617936621567,-0.02687617936621567
252.524,0.02807067878630598,-0.02807067878630598
252.525,0.025065256023354965,-0.025065256023354965
252.526,0.0172770452284855,-0.0172770452284855
252.527,0.0057896214881354435,-0.0057896214881354435
252.528,0.006936956027558727,0.006936956027558727
252.529,0.017888838501743276,0.017888838501743276
252.53,0.024552144357579575,0.024552144357579575
252.531,0.02580341988379753,0.02580341988379753
252.532,0.02229719712346645,0.02229719712346645
252.533,0.016194938007157544,0.016194938007157544
252.534,0.01032570183101944,0.01032570183101944
252.535,0.0070856974363811,0.0070856974363811
252.536,0.0074894905955564806,0.0074894905955564806
252.537,0.01073820334440101,0.01073820334440101
252.538,0.014484179906757433,0.014484179906757433
252.539,0.015713873091044217,0.015713873091044217
252.54,0.011935765293859424,0.011935765293859424
252.541,0.0022359982426463088,0.0022359982426463088
252.542,0.012200337700395192,-0.012200337700395192
252.543,0.028319090290936044,-0.028319090290936044
252.544,0.042124861431088845,-0.042124861431088845
252.545,0.04999613298564809,-0.04999613298564809
252.546,0.04992710373115916,-0.04992710373115916
252.547,0.042249999924384274,-0.042249999924384274
252.548,0.029568086427554485,-0.029568086427554485
252.549,0.015906745933566446,-0.015906745933566446
252.55,0.005368872801033042,-0.005368872801033042
252.551,0.0007606439226753858,-0.0007606439226753858
252.552,0.0026685136328108428,-0.0026685136328108428
252.553,0.009311226590882904,-0.009311226590882904
252.554,0.01721707044529719,-0.01721707044529719
252.555,0.02248429384929662,-0.02248429384929662
252.556,0.02217662368900397,-0.02217662368900397
252.557,0.015360317182451344,-0.015360317182451344
252.558,0.003420497434390324,-0.003420497434390324
252.559,0.010444987862821886,0.010444987862821886
252.56,0.022360680904947916,0.022360680904947916
252.561,0.029120982227698322,0.029120982227698322
252.562,0.02926293056520679,0.02926293056520679
252.563,0.02348433474424927,0.02348433474424927
252.564,0.014271905887594638,0.014271905887594638
252.565,0.004895975735630387,0.004895975735630387
252.566,0.0018397812432879856,-0.0018397812432879856
252.567,0.004618796713432349,-0.004618796713432349
252.568,0.004018252687624457,-0.004018252687624457
252.569,0.002152527356944711,-0.002152527356944711
252.57,0.001695530853196181,-0.001695530853196181
252.571,0.00466393860684422,-0.00466393860684422
252.572,0.011441407891370603,-0.011441407891370603
252.573,0.020441442536097254,-0.020441442536097254
252.574,0.0285714070992219,-0.0285714070992219
252.575,0.032357054274423036,-0.032357054274423036
252.576,0.029327242484631255,-0.029327242484631255
252.577,0.01913991892677913,-0.01913991892677913
252.578,0.00400084855814109,-0.00400084855814109
252.579,0.01183413472554018,0.01183413472554018
252.58,0.023356470170306398,0.023356470170306398
252.581,0.026487509970319012,0.026487509970319012
252.582,0.019571446971310857,0.019571446971310857
252.583,0.00414119618108888,0.00414119618108888
252.584,0.0153514211063559,-0.0153514211063559
252.585,0.03280511928450536,-0.03280511928450536
252.586,0.04235853502103404,-0.04235853502103404
252.587,0.040296233020934435,-0.040296233020934435
252.588,0.026343493756767034,-0.026343493756767034
252.589,0.0039083520296004925,-0.0039083520296004925
252.59,0.020833785371080937,0.020833785371080937
252.591,0.040742020447701366,0.040742020447701366
252.592,0.04983833618054456,0.04983833618054456
252.593,0.04509594491236868,0.04509594491236868
252.594,0.02733167927240543,0.02733167927240543
252.595,0.0009359945115465784,0.0009359945115465784
252.596,0.027454599050936612,-0.027454599050936612
252.597,0.05090757978680782,-0.05090757978680782
252.598,0.06414930747385139,-0.06414930747385139
252.599,0.06492787100214736,-0.06492787100214736
252.6,0.054398050525066965,-0.054398050525066965
252.601,0.03646872497713194,-0.03646872497713194
252.602,0.016383813565294836,-0.016383813565294836
252.603,0.0009647547201916407,0.0009647547201916407
252.604,0.01243907475723538,0.01243907475723538
252.605,0.01734738702283556,0.01734738702283556
252.606,0.017260865510419166,0.017260865510419166
252.607,0.015088437739328331,0.015088437739328331
252.608,0.013780406649585242,0.013780406649585242
252.609,0.015132362347588302,0.015132362347588302
252.61,0.019098807516248373,0.019098807516248373
252.611,0.02383039393483455,0.02383039393483455
252.612,0.026391790607784182,0.026391790607784182
252.613,0.023887620915389096,0.023887620915389096
252.614,0.014596434717487394,0.014596434717487394
252.615,0.0012757497193484069,-0.0012757497193484069
252.616,0.021471224490081098,-0.021471224490081098
252.617,0.04221955241929265,-0.04221955241929265
252.618,0.059257349622605204,-0.059257349622605204
252.619,0.0689993821915309,-0.0689993821915309
252.62,0.06949694756121805,-0.06949694756121805
252.621,0.06090207213486676,-0.06090207213486676
252.622,0.04532231032664724,-0.04532231032664724
252.623,0.026143102076494396,-0.026143102076494396
252.624,0.007050875583261451,-0.007050875583261451
252.625,0.008935613408631582,0.008935613408631582
252.626,0.020142742617447862,0.020142742617447862
252.627,0.026453707858968833,0.026453707858968833
252.628,0.02903271808500163,0.02903271808500163
252.629,0.029687876439096872,0.029687876439096872
252.63,0.030098266288983044,0.030098266288983044
252.631,0.03115628865191944,0.03115628865191944
252.632,0.03262654386189645,0.03262654386189645
252.633,0.03321768026787453,0.03321768026787453
252.634,0.03103730369875035,0.03103730369875035
252.635,0.024288571298598738,0.024288571298598738
252.636,0.011999446292089821,0.011999446292089821
252.637,0.005433201925492459,-0.005433201925492459
252.638,0.02605334982704033,-0.02605334982704033
252.639,0.04658592058031841,-0.04658592058031841
252.64,0.0630723034672711,-0.0630723034672711
252.641,0.07176263044017184,-0.07176263044017184
252.642,0.07005438443498124,-0.07005438443498124
252.643,0.05724410116707668,-0.05724410116707668
252.644,0.03489159060389646,-0.03489159060389646
252.645,0.006678834131641942,-0.006678834131641942
252.646,0.022238380682005454,0.022238380682005454
252.647,0.04626463321420049,0.04626463321420049
252.648,0.0605620676319687,0.0605620676319687
252.649,0.062135303018853394,0.062135303018853394
252.65,0.05054181101521893,0.05054181101521893
252.651,0.028045393940906216,0.028045393940906216
252.652,0.0008394313847497337,-0.0008394313847497337
252.653,0.030315396204400158,-0.030315396204400158
252.654,0.05455728556529571,-0.05455728556529571
252.655,0.06895517326781975,-0.06895517326781975
252.656,0.0710521426975308,-0.0710521426975308
252.657,0.06096446477284245,-0.06096446477284245
252.658,0.041209049223067784,-0.041209049223067784
252.659,0.016015730824803565,-0.016015730824803565
252.66,0.009673240563159435,0.009673240563159435
252.661,0.03125217796633972,0.03125217796633972
252.662,0.04530076488067136,0.04530076488067136
252.663,0.05006742281496801,0.05006742281496801
252.664,0.04554196678549882,0.04554196678549882
252.665,0.03318774102663302,0.03318774102663302
252.666,0.015477569479797948,0.015477569479797948
252.667,0.004608906017601222,-0.004608906017601222
252.668,0.024012513088771503,-0.024012513088771503
252.669,0.039907556463480875,-0.039907556463480875
252.67,0.049932138977412444,-0.049932138977412444
252.671,0.052401186511702114,-0.052401186511702114
252.672,0.046549802694399345,-0.046549802694399345
252.673,0.032794245300788005,-0.032794245300788005
252.674,0.012924780289732096,-0.012924780289732096
252.675,0.009902139624158979,0.009902139624158979
252.676,0.03149388710097134,0.03149388710097134
252.677,0.047316794181288646,0.047316794181288646
252.678,0.05347226227242685,0.05347226227242685
252.679,0.047737632349018844,0.047737632349018844
252.68,0.030371818190448208,0.030371818190448208
252.681,0.004393129331405898,0.004393129331405898
252.682,0.024850354887415937,-0.024850354887415937
252.683,0.05080248931375453,-0.05080248931375453
252.684,0.06727728576433756,-0.06727728576433756
252.685,0.07008583871633967,-0.07008583871633967
252.686,0.05824427565076362,-0.05824427565076362
252.687,0.03437948310320238,-0.03437948310320238
252.688,0.004163256314921093,-0.004163256314921093
252.689,0.025111228523252205,0.025111228523252205
252.69,0.04643196242201886,0.04643196242201886
252.691,0.054911909308973605,0.054911909308973605
252.692,0.049039482863180384,0.049039482863180384
252.693,0.030971854698035095,0.030971854698035095
252.694,0.005795473962697972,0.005795473962697972
252.695,0.02000673692707544,-0.02000673692707544
252.696,0.040401866704333766,-0.040401866704333766
252.697,0.05140107539209193,-0.05140107539209193
252.698,0.05193105936792042,-0.05193105936792042
252.699,0.04375901747971289,-0.04375901747971289
252.7,0.030561089870605462,-0.030561089870605462
252.701,0.016500036736180057,-0.016500036736180057
252.702,0.004823018899013487,-0.004823018899013487
252.703,0.0030428640914419436,0.0030428640914419436
252.704,0.007617047576468972,0.007617047576468972
252.705,0.010724306575157438,0.010724306575157438
252.706,0.01437642169528175,0.01437642169528175
252.707,0.01963747041188535,0.01963747041188535
252.708,0.025933117222614932,0.025933117222614932
252.709,0.03109331452240105,0.03109331452240105
252.71,0.03213750264320825,0.03213750264320825
252.711,0.026522859800818033,0.026522859800818033
252.712,0.013384850222288636,0.013384850222288636
252.713,0.005722611184858173,-0.005722611184858173
252.714,0.026920086694286915,-0.026920086694286915
252.715,0.044972061579019784,-0.044972061579019784
252.716,0.054857948319439465,-0.054857948319439465
252.717,0.0534353775278944,-0.0534353775278944
252.718,0.04062258944388886,-0.04062258944388886
252.719,0.019661680225774525,-0.019661680225774525
252.72,0.0036823518939457234,0.0036823518939457234
252.721,0.022777217710046926,0.022777217710046926
252.722,0.032128481381969776,0.032128481381969776
252.723,0.029095218514026966,0.029095218514026966
252.724,0.01475415371593547,0.01475415371593547
252.725,0.006383821819226143,-0.006383821819226143
252.726,0.027732350869701716,-0.027732350869701716
252.727,0.04264203479898099,-0.04264203479898099
252.728,0.04643175659438603,-0.04643175659438603
252.729,0.03779778234450637,-0.03779778234450637
252.73,0.019162310467388144,-0.019162310467388144
252.731,0.004132772691385789,0.004132772691385789
252.732,0.025510295165427355,0.025510295165427355
252.733,0.03916848537016948,0.03916848537016948
252.734,0.04177561168884525,0.04177561168884525
252.735,0.03332690384756254,0.03332690384756254
252.736,0.016929443136782796,0.016929443136782796
252.737,0.002364290208984654,-0.002364290208984654
252.738,0.019250259046393214,-0.019250259046393214
252.739,0.029817730829369116,-0.029817730829369116
252.74,0.03261313723909409,-0.03261313723909409
252.741,0.02881054093095814,-0.02881054093095814
252.742,0.021491334968657738,-0.021491334968657738
252.743,0.014336520144089149,-0.014336520144089149
252.744,0.010219913628571331,-0.010219913628571331
252.745,0.010201064685161132,-0.010201064685161132
252.746,0.01325501510419913,-0.01325501510419913
252.747,0.016803646966064956,-0.016803646966064956
252.748,0.017827627810425795,-0.017827627810425795
252.749,0.014138014719269565,-0.014138014719269565
252.75,0.005339182940386156,-0.005339182940386156
252.751,0.006867703014364457,0.006867703014364457
252.752,0.019153692309702874,0.019153692309702874
252.753,0.027643508184767906,0.027643508184767906
252.754,0.02923606774765153,0.02923606774765153
252.755,0.02270902490626625,0.02270902490626625
252.756,0.00922762633138996,0.00922762633138996
252.757,0.007918496879011694,-0.007918496879011694
252.758,0.024267359513258757,-0.024267359513258757
252.759,0.03551515937785221,-0.03551515937785221
252.76,0.03879577296326586,-0.03879577296326586
252.761,0.033504987773073314,-0.033504987773073314
252.762,0.02142220822942642,-0.02142220822942642
252.763,0.006114536573869955,-0.006114536573869955
252.764,0.00816379974798287,0.00816379974798287
252.765,0.017714376694209166,0.017714376694209166
252.766,0.020392184569951288,0.020392184569951288
252.767,0.016070815723189247,0.016070815723189247
252.768,0.006474850104829288,0.006474850104829288
252.769,0.005514185576638186,-0.005514185576638186
252.77,0.01681407941178714,-0.01681407941178714
252.771,0.025035854264484292,-0.025035854264484292
252.772,0.02904098095870844,-0.02904098095870844
252.773,0.029023649960821185,-0.029023649960821185
252.774,0.02615024950505984,-0.02615024950505984
252.775,0.021933241595953112,-0.021933241595953112
252.776,0.01758946807196582,-0.01758946807196582
252.777,0.01361442270095714,-0.01361442270095714
252.778,0.009707386106233007,-0.009707386106233007
252.779,0.00504635044616264,-0.00504635044616264
252.78,0.00121419552244717,0.00121419552244717
252.781,0.009422798516737885,0.009422798516737885
252.782,0.01908714213245899,0.01908714213245899
252.783,0.028836074231686437,0.028836074231686437
252.784,0.03670630385460005,0.03670630385460005
252.785,0.04066118276068309,0.04066118276068309
252.786,0.039174261567115565,0.039174261567115565
252.787,0.03169444873688998,0.03169444873688998
252.788,0.01885356139873462,0.01885356139873462
252.789,0.00236201112997958,0.00236201112997958
252.79,0.015366230604189068,-0.015366230604189068
252.791,0.031743393592933766,-0.031743393592933766
252.792,0.04454327281340775,-0.04454327281340775
252.793,0.0523071143199888,-0.0523071143199888
252.794,0.054535980873941625,-0.054535980873941625
252.795,0.051653125047347204,-0.051653125047347204
252.796,0.044781378940472405,-0.044781378940472405
252.797,0.03541892404372926,-0.03541892404372926
252.798,0.025105255820979555,-0.025105255820979555
252.799,0.015151588566463592,-0.015151588566463592
252.8,0.006477511435732941,-0.006477511435732941
252.801,0.00043850813791190824,0.00043850813791190824
252.802,0.005513131811646588,0.005513131811646588
252.803,0.008948495669457657,0.008948495669457657
252.804,0.011093158427004424,0.011093158427004424
252.805,0.012304004836163118,0.012304004836163118
252.806,0.012833821589967043,0.012833821589967043
252.807,0.012764028651490733,0.012764028651490733
252.808,0.01199629405457836,0.01199629405457836
252.809,0.010307960422136775,0.010307960422136775
252.81,0.007462744471825378,0.007462744471825378
252.811,0.0033514547100215175,0.0033514547100215175
252.812,0.0018775204923604516,-0.0018775204923604516
252.813,0.007744533766536277,-0.007744533766536277
252.814,0.013460285694818053,-0.013460285694818053
252.815,0.018057351005353772,-0.018057351005353772
252.816,0.020611681691427464,-0.020611681691427464
252.817,0.02049946261361435,-0.02049946261361435
252.818,0.017612810087943576,-0.017612810087943576
252.819,0.01245902073780003,-0.01245902073780003
252.82,0.006095564496755745,-0.006095564496755745
252.821,9.94560520892751e-05,9.94560520892751e-05
252.822,0.004768508200742927,0.004768508200742927
252.823,0.00693391741381455,0.00693391741381455
252.824,0.00626871191524514,0.00626871191524514
252.825,0.0031939117544097506,0.0031939117544097506
252.826,0.001232234171213542,-0.001232234171213542
252.827,0.005603607817557754,-0.005603607817557754
252.828,0.008548808014871123,-0.008548808014871123
252.829,0.009093078052866299,-0.009093078052866299
252.83,0.006894784561031653,-0.006894784561031653
252.831,0.0022953624365966707,-0.0022953624365966707
252.832,0.003815530338732831,0.003815530338732831
252.833,0.01025850733559941,0.01025850733559941
252.834,0.015850864975687218,0.015850864975687218
252.835,0.019627516290410707,0.019627516290410707
252.836,0.020940412150935117,0.020940412150935117
252.837,0.01943728982892834,0.01943728982892834
252.838,0.014973588089336243,0.014973588089336243
252.839,0.007538206460135033,0.007538206460135033
252.84,0.002737776857280827,-0.002737776857280827
252.841,0.01546706196658243,-0.01546706196658243
252.842,0.029828051690827806,-0.029828051690827806
252.843,0.044417658156932216,-0.044417658156932216
252.844,0.05724811306962041,-0.05724811306962041
252.845,0.06597026411527251,-0.06597026411527251
252.846,0.06833138690440632,-0.06833138690440632
252.847,0.0627806424617312,-0.0627806424617312
252.848,0.049054463331365095,-0.049054463331365095
252.849,0.028540906140343658,-0.028540906140343658
252.85,0.004256178323614579,-0.004256178323614579
252.851,0.019634576010646,0.019634576010646
252.852,0.03868303730659828,0.03868303730659828
252.853,0.04920843522067875,0.04920843522067875
252.854,0.04924961079382251,0.04924961079382251
252.855,0.03913561163485246,0.03913561163485246
252.856,0.021482803686551533,0.021482803686551533
252.857,0.0005846679269148058,0.0005846679269148058
252.858,0.01866047912957669,-0.01866047912957669
252.859,0.03199483283187754,-0.03199483283187754
252.86,0.036869606726406046,-0.036869606726406046
252.861,0.03303147762979519,-0.03303147762979519
252.862,0.02246136642550789,-0.02246136642550789
252.863,0.008692799281324493,-0.008692799281324493
252.864,0.004276772172489007,0.004276772172489007
252.865,0.01314786026220971,0.01314786026220971
252.866,0.01620407655237921,0.01620407655237921
252.867,0.013664070562864561,0.013664070562864561
252.868,0.007416892811561437,0.007416892811561437
252.869,0.00025403800917089825,0.00025403800917089825
252.87,0.005131952030860698,-0.005131952030860698
252.871,0.0070461416347678,-0.0070461416347678
252.872,0.00529541096404107,-0.00529541096404107
252.873,0.0011457445437608182,-0.0011457445437608182
252.874,0.0032330384116803224,0.0032330384116803224
252.875,0.00562870789708958,0.00562870789708958
252.876,0.004647478761653723,0.004647478761653723
252.877,0.000271558373695191,0.000271558373695191
252.878,0.00608344795320237,-0.00608344795320237
252.879,0.012036503257184528,-0.012036503257184528
252.88,0.01508010630978962,-0.01508010630978962
252.881,0.013508107176750661,-0.013508107176750661
252.882,0.00711634495810054,-0.00711634495810054
252.883,0.0025691892780879133,0.0025691892780879133
252.884,0.012630405088674745,0.012630405088674745
252.885,0.01957261640365937,0.01957261640365937
252.886,0.0203744720520751,0.0203744720520751
252.887,0.0134523240952793,0.0134523240952793
252.888,0.0007573503677009708,-0.0007573503677009708
252.889,0.01977895510011385,-0.01977895510011385
252.89,0.03965527511199096,-0.03965527511199096
252.891,0.05592581644294259,-0.05592581644294259
252.892,0.0647524169978847,-0.0647524169978847
252.893,0.06388450268076151,-0.06388450268076151
252.894,0.053211820057104786,-0.053211820057104786
252.895,0.034775715567403,-0.034775715567403
252.896,0.0122606490078494,-0.0122606490078494
252.897,0.009879464897333712,0.009879464897333712
252.898,0.027425811141473133,0.027425811141473133
252.899,0.03728547741807975,0.03728547741807975
252.9,0.03807684478920681,0.03807684478920681
252.901,0.030311012926102388,0.030311012926102388
252.902,0.016173088811618275,0.016173088811618275
252.903,0.0010088976605312494,-0.0010088976605312494
252.904,0.017470852788091795,-0.017470852788091795
252.905,0.029747731182143022,-0.029747731182143022
252.906,0.035307943115323814,-0.035307943115323814
252.907,0.03299260372543078,-0.03299260372543078
252.908,0.02320356479876229,-0.02320356479876229
252.909,0.007820169130174692,-0.007820169130174692
252.91,0.010141857649002883,0.010141857649002883
252.911,0.027082139983873876,0.027082139983873876
252.912,0.03949545296549606,0.03949545296549606
252.913,0.044664427627179926,0.044664427627179926
252.914,0.04123007653717825,0.04123007653717825
252.915,0.02951010377014396,0.02951010377014396
252.916,0.011473540740384314,0.011473540740384314
252.917,0.009648784323542992,-0.009648784323542992
252.918,0.03004884902315985,-0.03004884902315985
252.919,0.046168122286223134,-0.046168122286223134
252.92,0.05546289021738393,-0.05546289021738393
252.921,0.056909014387588885,-0.056909014387588885
252.922,0.05111146976882275,-0.05111146976882275
252.923,0.03999443121505519,-0.03999443121505519
252.924,0.026171978860861644,-0.026171978860861644
252.925,0.012197614236897025,-0.012197614236897025
252.926,7.187888841952983e-05,7.187888841952983e-05
252.927,0.009802352702051431,0.009802352702051431
252.928,0.017109215438013914,0.017109215438013914
252.929,0.022637147966374505,0.022637147966374505
252.93,0.026970453408365902,0.026970453408365902
252.931,0.03011763103520959,0.03011763103520959
252.932,0.031292370946885306,0.031292370946885306
252.933,0.029107606112182438,0.029107606112182438
252.934,0.022143222878242108,0.022143222878242108
252.935,0.009695694760407436,0.009695694760407436
252.936,0.0075743704320534455,-0.0075743704320534455
252.937,0.027374685771144325,-0.027374685771144325
252.938,0.046061921499638725,-0.046061921499638725
252.939,0.059457078010263786,-0.059457078010263786
252.94,0.06398836534088781,-0.06398836534088781
252.941,0.057816502715455464,-0.057816502715455464
252.942,0.04156818733264522,-0.04156818733264522
252.943,0.018400885928993027,-0.018400885928993027
252.944,0.00667918228478892,0.00667918228478892
252.945,0.028085832301238067,0.028085832301238067
252.946,0.04114955204978976,0.04114955204978976
252.947,0.043392608830143065,0.043392608830143065
252.948,0.03518637272863456,0.03518637272863456
252.949,0.01957911432649695,0.01957911432649695
252.95,0.0013412319701400222,0.0013412319701400222
252.951,0.0144762929602259,-0.0144762929602259
252.952,0.024018384040945806,-0.024018384040945806
252.953,0.02567575264429145,-0.02567575264429145
252.954,0.020388301398577946,-0.020388301398577946
252.955,0.011129198073847935,-0.011129198073847935
252.956,0.0017668249381143086,-0.0017668249381143086
252.957,0.0042960565205052426,0.0042960565205052426
252.958,0.00524086770640797,0.00524086770640797
252.959,0.0013373844089434872,0.0013373844089434872
252.96,0.005319135885725079,-0.005319135885725079
252.961,0.011720425210499985,-0.011720425210499985
252.962,0.015162803888478793,-0.015162803888478793
252.963,0.014320607380237993,-0.014320607380237993
252.964,0.009780389498490139,-0.009780389498490139
252.965,0.0038356164647930235,-0.0038356164647930235
252.966,0.0003911016385704791,0.0003911016385704791
252.967,0.00018527185108263566,0.00018527185108263566
252.968,0.005612920376332986,-0.005612920376332986
252.969,0.0159815261616143,-0.0159815261616143
252.97,0.02786325452872962,-0.02786325452872962
252.971,0.03707060916702298,-0.03707060916702298
252.972,0.039665066649671954,-0.039665066649671954
252.973,0.033349254666825257,-0.033349254666825257
252.974,0.018391356001838832,-0.018391356001838832
252.975,0.002252787129804812,0.002252787129804812
252.976,0.023690318370519936,0.023690318370519936
252.977,0.04049269468590211,0.04049269468590211
252.978,0.04830457448974612,0.04830457448974612
252.979,0.04514347655037798,0.04514347655037798
252.98,0.031972780300762116,0.031972780300762116
252.981,0.012369473167693767,0.012369473167693767
252.982,0.008594813807841661,-0.008594813807841661
252.983,0.025886254274457232,-0.025886254274457232
252.984,0.03595488298251559,-0.03595488298251559
252.985,0.03763686473919725,-0.03763686473919725
252.986,0.032250011308067594,-0.032250011308067594
252.987,0.022897023810904304,-0.022897023810904304
252.988,0.013255072464227857,-0.013255072464227857
252.989,0.006291088958651714,-0.006291088958651714
252.99,0.0033468241727768744,-0.0033468241727768744
252.991,0.003888677118594419,-0.003888677118594419
252.992,0.00597028489580631,-0.00597028489580631
252.993,0.0071997279467008735,-0.0071997279467008735
252.994,0.005828298377506869,-0.005828298377506869
252.995,0.0015442545646128236,-0.0015442545646128236
252.996,0.004327874245888985,0.004327874245888985
252.997,0.009298184044806312,0.009298184044806312
252.998,0.010679261389101358,0.010679261389101358
252.999,0.006692757072541022,0.006692757072541022
253.0,0.0026989977812866828,-0.0026989977812866828
253.001,0.015556580673488085,-0.015556580673488085
253.002,0.028433823285503257,-0.028433823285503257
253.003,0.037416445978530444,-0.037416445978530444
253.004,0.039387167702344184,-0.039387167702344184
253.005,0.03308989334321377,-0.03308989334321377
253.006,0.019627311083528,-0.019627311083528
253.007,0.002213512790849803,-0.002213512790849803
253.008,0.014748773836084972,0.014748773836084972
253.009,0.02697297595878112,0.02697297595878112
253.01,0.031557921485794616,0.031557921485794616
253.011,0.027819544061282286,0.027819544061282286
253.012,0.01743047456777136,0.01743047456777136
253.013,0.00384010688630676,0.00384010688630676
253.014,0.008822713296717133,-0.008822713296717133
253.015,0.01700581965442982,-0.01700581965442982
253.016,0.01875518868132886,-0.01875518868132886
253.017,0.014200722502583085,-0.014200722502583085
253.018,0.005388685035378149,-0.005388685035378149
253.019,0.004447236234865981,0.004447236234865981
253.02,0.011917726313324772,0.011917726313324772
253.021,0.014481122835551918,0.014481122835551918
253.022,0.011123680031179362,0.011123680031179362
253.023,0.0025475173711377863,0.0025475173711377863
253.024,0.009138186668591008,-0.009138186668591008
253.025,0.021079777136852718,-0.021079777136852718
253.026,0.03046780359212331,-0.03046780359212331
253.027,0.035221216648746445,-0.035221216648746445
253.028,0.03440445025327632,-0.03440445025327632
253.029,0.028319920001851018,-0.028319920001851018
253.03,0.01831928621669976,-0.01831928621669976
253.031,0.006440065022656816,-0.006440065022656816
253.032,0.005013755587144564,0.005013755587144564
253.033,0.013858885221359474,0.013858885221359474
253.034,0.018348137405877374,0.018348137405877374
253.035,0.017413761889187862,0.017413761889187862
253.036,0.010849934111928139,0.010849934111928139
253.037,0.0005717150400507132,-0.0005717150400507132
253.038,0.015090340492952992,-0.015090340492952992
253.039,0.030104503559874485,-0.030104503559874485
253.04,0.04252588193554163,-0.04252588193554163
253.041,0.049332769673437804,-0.049332769673437804
253.042,0.04824278185934461,-0.04824278185934461
253.043,0.03835211822603046,-0.03835211822603046
253.044,0.02055313925542601,-0.02055313925542601
253.045,0.0024332246304925587,0.0024332246304925587
253.046,0.026485467838256227,0.026485467838256227
253.047,0.046915078580513914,0.046915078580513914
253.048,0.05951967202122099,0.05951967202122099
253.049,0.061583411892397244,0.061583411892397244
253.05,0.05254552588753225,0.05254552588753225
253.051,0.03413925618517499,0.03413925618517499
253.052,0.009952247310438755,0.009952247310438755
253.053,0.01547073907330121,-0.01547073907330121
253.054,0.03772608284089485,-0.03772608284089485
253.055,0.05353760989363787,-0.05353760989363787
253.056,0.06136075613941672,-0.06136075613941672
253.057,0.06146200982862726,-0.06146200982862726
253.058,0.055500385465972246,-0.055500385465972246
253.059,0.04579148280578693,-0.04579148280578693
253.06,0.034521636705575176,-0.034521636705575176
253.061,0.02317243201242658,-0.02317243201242658
253.062,0.012320517977652545,-0.012320517977652545
253.063,0.0018310925177247306,-0.0018310925177247306
253.064,0.008680356139347367,0.008680356139347367
253.065,0.019333079360011052,0.019333079360011052
253.066,0.02963313673929302,0.02963313673929302
253.067,0.03843515610646597,0.03843515610646597
253.068,0.04422798595929889,0.04422798595929889
253.069,0.04562916684316054,0.04562916684316054
253.07,0.04189206847435334,0.04189206847435334
253.071,0.033226319833881135,0.033226319833881135
253.072,0.02080626165935673,0.02080626165935673
253.073,0.0064635042801048925,0.0064635042801048925
253.074,0.00781946561168112,-0.00781946561168112
253.075,0.020424249522145055,-0.020424249522145055
253.076,0.03043174492033618,-0.03043174492033618
253.077,0.03766526386621316,-0.03766526386621316
253.078,0.04244870168782544,-0.04244870168782544
253.079,0.045202302569650965,-0.045202302569650965
253.08,0.04606380576499991,-0.04606380576499991
253.081,0.044711208569020444,-0.044711208569020444
253.082,0.04047857543462874,-0.04047857543462874
253.083,0.032730965591549976,-0.032730965591549976
253.084,0.021348209755761127,-0.021348209755761127
253.085,0.007107266149626534,-0.007107266149626534
253.086,0.008224282927659088,0.008224282927659088
253.087,0.02217062719151941,0.02217062719151941
253.088,0.03215094337525071,0.03215094337525071
253.089,0.03621805054246097,0.03621805054246097
253.09,0.03367964773834142,0.03367964773834142
253.091,0.02537347780704491,0.02537347780704491
253.092,0.013478605097102081,0.013478605097102081
253.093,0.0009044371849933341,0.0009044371849933341
253.094,0.009550427680130813,-0.009550427680130813
253.095,0.01599191763210084,-0.01599191763210084
253.096,0.017911745665998846,-0.017911745665998846
253.097,0.01619934810670376,-0.01619934810670376
253.098,0.012693288317229823,-0.012693288317229823
253.099,0.009443954416121558,-0.009443954416121558
253.1,0.007959812765322205,-0.007959812765322205
253.101,0.00870982842898449,-0.00870982842898449
253.102,0.011054370781283018,-0.011054370781283018
253.103,0.01361308561042085,-0.01361308561042085
253.104,0.014912171662180729,-0.014912171662180729
253.105,0.014048046917560342,-0.014048046917560342
253.106,0.011100069551423508,-0.011100069551423508
253.107,0.007124359252909995,-0.007124359252909995
253.108,0.003726816935513133,-0.003726816935513133
253.109,0.002382899721874221,-0.002382899721874221
253.11,0.0037786806723131283,-0.0037786806723131283
253.111,0.007448829081804886,-0.007448829081804886
253.112,0.011878707067328853,-0.011878707067328853
253.113,0.015058339609529847,-0.015058339609529847
253.114,0.015292887879337136,-0.015292887879337136
253.115,0.0119587096178575,-0.0119587096178575
253.116,0.005894271256997152,-0.005894271256997152
253.117,0.00076310794261647,0.00076310794261647
253.118,0.0052808426409196585,0.0052808426409196585
253.119,0.00535033461722878,0.00535033461722878
253.12,5.814321687225288e-05,5.814321687225288e-05
253.121,0.009565418793754166,-0.009565418793754166
253.122,0.020665805702642093,-0.020665805702642093
253.123,0.02936881475349129,-0.02936881475349129
253.124,0.0320376804469491,-0.0320376804469491
253.125,0.026569929828326067,-0.026569929828326067
253.126,0.013279228670922238,-0.013279228670922238
253.127,0.00497449470399336,0.00497449470399336
253.128,0.023500108526460117,0.023500108526460117
253.129,0.037141544849529584,0.037141544849529584
253.13,0.04186928538955148,0.04186928538955148
253.131,0.036077683063019395,0.036077683063019395
253.132,0.021150746526316322,0.021150746526316322
253.133,0.0010926301132236915,0.0010926301132236915
253.134,0.018673003902562435,-0.018673003902562435
253.135,0.03295295583654889,-0.03295295583654889
253.136,0.03835031133460132,-0.03835031133460132
253.137,0.034239974582937704,-0.034239974582937704
253.138,0.022845676009529137,-0.022845676009529137
253.139,0.00841121581943094,-0.00841121581943094
253.14,0.004240402079781935,0.004240402079781935
253.141,0.011268466733795446,0.011268466733795446
253.142,0.01097724836677294,0.01097724836677294
253.143,0.0042097587104128475,0.0042097587104128475
253.144,0.006125169660922913,-0.006125169660922913
253.145,0.016191248894356858,-0.016191248894356858
253.146,0.02260608311513823,-0.02260608311513823
253.147,0.023575107859753586,-0.023575107859753586
253.148,0.019393497148528005,-0.019393497148528005
253.149,0.012169602367835264,-0.012169602367835264
253.15,0.00490663630334609,-0.00490663630334609
253.151,0.0003055175766977225,-0.0003055175766977225
253.152,0.00025874337413633874,0.00025874337413633874
253.153,0.0027885745705350518,-0.0027885745705350518
253.154,0.007460434705384933,-0.007460434705384933
253.155,0.011055055508438438,-0.011055055508438438
253.156,0.011281223031394005,-0.011281223031394005
253.157,0.007230237045897314,-0.007230237045897314
253.158,0.000178497480144868,0.000178497480144868
253.159,0.008455065122569883,0.008455065122569883
253.16,0.014415533773302514,0.014415533773302514
253.161,0.01536263563196072,0.01536263563196072
253.162,0.01014013092723598,0.01014013092723598
253.163,0.00032892657829008964,-0.00032892657829008964
253.164,0.013227605150478383,-0.013227605150478383
253.165,0.024704221947921323,-0.024704221947921323
253.166,0.03111522499170072,-0.03111522499170072
253.167,0.0302254144195504,-0.0302254144195504
253.168,0.021954217330703463,-0.021954217330703463
253.169,0.008416674342699881,-0.008416674342699881
253.17,0.006746012075264485,0.006746012075264485
253.171,0.019507706862659457,0.019507706862659457
253.172,0.026676630972398918,0.026676630972398918
253.173,0.02678572514443922,0.02678572514443922
253.174,0.020376769945136708,0.020376769945136708
253.175,0.009623306336515425,0.009623306336515425
253.176,0.0025299703569156007,-0.0025299703569156007
253.177,0.01337482832105319,-0.01337482832105319
253.178,0.021227567800333413,-0.021227567800333413
253.179,0.025736167109976504,-0.025736167109976504
253.18,0.027642043549269135,-0.027642043549269135
253.181,0.028144172634531617,-0.028144172634531617
253.182,0.028160411829073695,-0.028160411829073695
253.183,0.027808531549939564,-0.027808531549939564
253.184,0.026329362982566384,-0.026329362982566384
253.185,0.02248698531309712,-0.02248698531309712
253.186,0.015279428367355519,-0.015279428367355519
253.187,0.004656596555378756,-0.004656596555378756
253.188,0.008075867778948087,0.008075867778948087
253.189,0.020378201715789412,0.020378201715789412
253.19,0.029136957695426347,0.029136957695426347
253.191,0.03166506784718748,0.03166506784718748
253.192,0.026695926907653433,0.026695926907653433
253.193,0.015002864265328375,0.015002864265328375
253.194,0.000611804934903426,-0.000611804934903426
253.195,0.016002842625396307,-0.016002842625396307
253.196,0.0268527933556012,-0.0268527933556012
253.197,0.029961779596705318,-0.029961779596705318
253.198,0.024239283273354895,-0.024239283273354895
253.199,0.01107246020509145,-0.01107246020509145
253.2,0.006050918350232193,0.006050918350232193
253.201,0.02254232927441846,0.02254232927441846
253.202,0.034012215008888846,0.034012215008888846
253.203,0.037458832581275914,0.037458832581275914
253.204,0.031988075445090525,0.031988075445090525
253.205,0.018876648101541216,0.018876648101541216
253.206,0.0010160219721913055,0.0010160219721913055
253.207,0.018026671475459666,-0.018026671475459666
253.208,0.03499080864902804,-0.03499080864902804
253.209,0.04763025078392358,-0.04763025078392358
253.21,0.05496354206224163,-0.05496354206224163
253.211,0.05707142047288616,-0.05707142047288616
253.212,0.05461629382595312,-0.05461629382595312
253.213,0.04834480079040138,-0.04834480079040138
253.214,0.03880822037913001,-0.03880822037913001
253.215,0.02641157369236724,-0.02641157369236724
253.216,0.011734470796229468,-0.011734470796229468
253.217,0.004074082869235829,0.004074082869235829
253.218,0.019078537362666514,0.019078537362666514
253.219,0.030710310476496527,0.030710310476496527
253.22,0.036333722351771236,0.036333722351771236
253.221,0.03408050366593707,0.03408050366593707
253.222,0.023663893957016624,0.023663893957016624
253.223,0.006841274022615806,0.006841274022615806
253.224,0.012719328992432,-0.012719328992432
253.225,0.03022188128155523,-0.03022188128155523
253.226,0.04099537711147094,-0.04099537711147094
253.227,0.041850847251543644,-0.041850847251543644
253.228,0.032104869536421776,-0.032104869536421776
253.229,0.013911033283670493,-0.013911033283670493
253.23,0.00825000199015613,0.00825000199015613
253.231,0.02879934009105689,0.02879934009105689
253.232,0.042643131240480914,0.042643131240480914
253.233,0.04661901913452171,0.04661901913452171
253.234,0.04034975144378716,0.04034975144378716
253.235,0.026236731456213302,0.026236731456213302
253.236,0.008606270479855516,0.008606270479855516
253.237,0.0077022814492299085,-0.0077022814492299085
253.238,0.018838771554529954,-0.018838771554529954
253.239,0.023047057891626643,-0.023047057891626643
253.24,0.02102886718180852,-0.02102886718180852
253.241,0.015480500401962138,-0.015480500401962138
253.242,0.009996591852372894,-0.009996591852372894
253.243,0.007741612747495852,-0.007741612747495852
253.244,0.010352592070934419,-0.010352592070934419
253.245,0.017437304411292764,-0.017437304411292764
253.246,0.02680992051699893,-0.02680992051699893
253.247,0.03534241019810491,-0.03534241019810491
253.248,0.040099288830508506,-0.040099288830508506
253.249,0.03933896817691007,-0.03933896817691007
253.25,0.033033303556231464,-0.033033303556231464
253.251,0.022748499646177422,-0.022748499646177422
253.252,0.010971844241299156,-0.010971844241299156
253.253,0.0001697210288982287,-0.0001697210288982287
253.254,0.008050368181290013,0.008050368181290013
253.255,0.013357372276250112,0.013357372276250112
253.256,0.01655327552989183,0.01655327552989183
253.257,0.018954760559554584,0.018954760559554584
253.258,0.021576136337793317,0.021576136337793317
253.259,0.02447012855860753,0.02447012855860753
253.26,0.026522261019823468,0.026522261019823468
253.261,0.025814534819855295,0.025814534819855295
253.262,0.020442834327958126,0.020442834327958126
253.263,0.009478552913389171,0.009478552913389171
253.264,0.006315423106238338,-0.006315423106238338
253.265,0.024336003708384624,-0.024336003708384624
253.266,0.04068347651701809,-0.04068347651701809
253.267,0.05126652716388602,-0.05126652716388602
253.268,0.053116255256602796,-0.053116255256602796
253.269,0.04545341004516179,-0.04545341004516179
253.27,0.03011124727673975,-0.03011124727673975
253.271,0.011121715978268054,-0.011121715978268054
253.272,0.006443165115273208,0.006443165115273208
253.273,0.018018741421266693,0.018018741421266693
253.274,0.020978438065275773,0.020978438065275773
253.275,0.01546371904610222,0.01546371904610222
253.276,0.004319099008970095,0.004319099008970095
253.277,0.007865695348239998,-0.007865695348239998
253.278,0.016301943845789535,-0.016301943845789535
253.279,0.017627760302337037,-0.017627760302337037
253.28,0.011070159242564714,-0.011070159242564714
253.281,0.0012510341225586696,0.0012510341225586696
253.282,0.014988380267604295,0.014988380267604295
253.283,0.02498953944649096,0.02498953944649096
253.284,0.027013177635101693,0.027013177635101693
253.285,0.019175812147165905,0.019175812147165905
253.286,0.002656365465167454,0.002656365465167454
253.287,0.018570143983967058,-0.018570143983967058
253.288,0.03888144147000627,-0.03888144147000627
253.289,0.05266826945283598,-0.05266826945283598
253.29,0.05597921660983718,-0.05597921660983718
253.291,0.04764252235780553,-0.04764252235780553
253.292,0.029539820546950923,-0.029539820546950923
253.293,0.005986540369648186,-0.005986540369648186
253.294,0.01754542752183763,0.01754542752183763
253.295,0.03593756162560191,0.03593756162560191
253.296,0.04570085079740682,0.04570085079740682
253.297,0.045664185078598374,0.045664185078598374
253.298,0.03693852116205054,0.03693852116205054
253.299,0.022262839180287264,0.022262839180287264
253.3,0.00502151262693129,0.00502151262693129
253.301,0.011710162959308046,-0.011710162959308046
253.302,0.02579757103776814,-0.02579757103776814
253.303,0.03621797718040187,-0.03621797718040187
253.304,0.04282055332204804,-0.04282055332204804
253.305,0.045869382895827426,-0.045869382895827426
253.306,0.045616221441838634,-0.045616221441838634
253.307,0.04209804570546172,-0.04209804570546172
253.308,0.03522724200692906,-0.03522724200692906
253.309,0.025096424166398124,-0.025096424166398124
253.31,0.012316723237233873,-0.012316723237233873
253.311,0.0018102688191872218,0.0018102688191872218
253.312,0.015414725126035922,0.015414725126035922
253.313,0.02647136801557881,0.02647136801557881
253.314,0.03336399602686457,0.03336399602686457
253.315,0.03538163144324469,0.03538163144324469
253.316,0.03293517016361336,0.03293517016361336
253.317,0.02738291428285322,0.02738291428285322
253.318,0.0205064727134745,0.0205064727134745
253.319,0.013825041812144834,0.013825041812144834
253.32,0.00801579920560469,0.00801579920560469
253.321,0.002684688075419217,0.002684688075419217
253.322,0.003391960806521155,-0.003391960806521155
253.323,0.011616124151088036,-0.011616124151088036
253.324,0.02273995223675862,-0.02273995223675862
253.325,0.03618762934177522,-0.03618762934177522
253.326,0.04982830114820236,-0.04982830114820236
253.327,0.06035679484255507,-0.06035679484255507
253.328,0.06422193949592225,-0.06422193949592225
253.329,0.058828818932907256,-0.058828818932907256
253.33,0.04361059328731587,-0.04361059328731587
253.331,0.020571262184743144,-0.020571262184743144
253.332,0.005949924811119667,0.005949924811119667
253.333,0.030292869675817125,0.030292869675817125
253.334,0.047003798622289095,0.047003798622289095
253.335,0.052417084449989604,0.052417084449989604
253.336,0.04578619256537664,0.04578619256537664
253.337,0.02957853970439306,0.02957853970439306
253.338,0.00880333698537128,0.00880333698537128
253.339,0.010450862338502453,-0.010450862338502453
253.34,0.022832234374506766,-0.022832234374506766
253.341,0.02533399073562248,-0.02533399073562248
253.342,0.018188209892001206,-0.018188209892001206
253.343,0.004757732590901731,-0.004757732590901731
253.344,0.009546981197521953,0.009546981197521953
253.345,0.018991015967869673,0.018991015967869673
253.346,0.019340966628130785,0.019340966628130785
253.347,0.009225246137011256,0.009225246137011256
253.348,0.009390895022982626,-0.009390895022982626
253.349,0.03175569012300439,-0.03175569012300439
253.35,0.05172712842996352,-0.05172712842996352
253.351,0.06357855665192114,-0.06357855665192114
253.352,0.06366177539757323,-0.06366177539757323
253.353,0.051434800724710406,-0.051434800724710406
253.354,0.029570261724383262,-0.029570261724383262
253.355,0.0031478179935758854,-0.0031478179935758854
253.356,0.021793122540290533,0.021793122540290533
253.357,0.03988979344071297,0.03988979344071297
253.358,0.04780361093365215,0.04780361093365215
253.359,0.04491951010821782,0.04491951010821782
253.36,0.033255226078100275,0.033255226078100275
253.361,0.01668014980134136,0.01668014980134136
253.362,0.0002677538725109896,-0.0002677538725109896
253.363,0.013595533824892647,-0.013595533824892647
253.364,0.020765454602475697,-0.020765454602475697
253.365,0.021100483018384075,-0.021100483018384075
253.366,0.01565802222830115,-0.01565802222830115
253.367,0.0067003040493733845,-0.0067003040493733845
253.368,0.003020266479742295,0.003020266479742295
253.369,0.010936724394376318,0.010936724394376318
253.37,0.015145565151859941,0.015145565151859941
253.371,0.014629790370579876,0.014629790370579876
253.372,0.009263488299323885,0.009263488299323885
253.373,0.0003122456108470839,-0.0003122456108470839
253.374,0.012851739581603572,-0.012851739581603572
253.375,0.026656249899177697,-0.026656249899177697
253.376,0.039720171226207635,-0.039720171226207635
253.377,0.049915416892769016,-0.049915416892769016
253.378,0.05525753353753593,-0.05525753353753593
253.379,0.05425782262463241,-0.05425782262463241
253.38,0.046304846579319436,-0.046304846579319436
253.381,0.03196570194680315,-0.03196570194680315
253.382,0.013080886509302836,-0.013080886509302836
253.383,0.007438418855695295,0.007438418855695295
253.384,0.02612086515832357,0.02612086515832357
253.385,0.03966187207887795,0.03966187207887795
253.386,0.04568970340208578,0.04568970340208578
253.387,0.04335693191646728,0.04335693191646728
253.388,0.03357471808973367,0.03357471808973367
253.389,0.018801133417802873,0.018801133417802873
253.39,0.0024237025553621727,0.0024237025553621727
253.391,0.012100632406409462,-0.012100632406409462
253.392,0.022108408347213393,-0.022108408347213393
253.393,0.026351767263727233,-0.026351767263727233
253.394,0.02520731399383469,-0.02520731399383469
253.395,0.020423227526711996,-0.020423227526711996
253.396,0.014493752122741288,-0.014493752122741288
253.397,0.009858127213468348,-0.009858127213468348
253.398,0.008166343861927605,-0.008166343861927605
253.399,0.009824689463654779,-0.009824689463654779
253.4,0.013941712185548849,-0.013941712185548849
253.401,0.018671038074034696,-0.018671038074034696
253.402,0.02183076360145364,-0.02183076360145364
253.403,0.021604644171666076,-0.021604644171666076
253.404,0.017117468965220373,-0.017117468965220373
253.405,0.008725135646475368,-0.008725135646475368
253.406,0.0020499473266466506,0.0020499473266466506
253.407,0.012905038963602955,0.012905038963602955
253.408,0.021347082717463772,0.021347082717463772
253.409,0.0253235296133274,0.0253235296133274
253.41,0.023732667626353843,0.023732667626353843
253.411,0.01669450628021618,0.01669450628021618
253.412,0.00552992997813706,0.00552992997813706
253.413,0.0075329446528340505,-0.0075329446528340505
253.414,0.01984757116778979,-0.01984757116778979
253.415,0.028919661333389857,-0.028919661333389857
253.416,0.032937094531752864,-0.032937094531752864
253.417,0.03115070919111096,-0.03115070919111096
253.418,0.024030102781312235,-0.024030102781312235
253.419,0.01316276420634166,-0.01316276420634166
253.42,0.0009144104166450839,-0.0009144104166450839
253.421,0.010083423265415004,0.010083423265415004
253.422,0.01751342476202855,0.01751342476202855
253.423,0.01989370915259636,0.01989370915259636
253.424,0.01691780598109971,0.01691780598109971
253.425,0.00952444853844292,0.00952444853844292
253.426,0.0003322346818127597,-0.0003322346818127597
253.427,0.010167379945888344,-0.010167379945888344
253.428,0.01759011320512882,-0.01759011320512882
253.429,0.020908647368583555,-0.020908647368583555
253.43,0.01955287203836409,-0.01955287203836409
253.431,0.014195645783441013,-0.014195645783441013
253.432,0.006536210400640896,-0.006536210400640896
253.433,0.0011932483545127326,0.0011932483545127326
253.434,0.006853877158826904,0.006853877158826904
253.435,0.008974459905951138,0.008974459905951138
253.436,0.0071056379315102,0.0071056379315102
253.437,0.0018567535857119122,0.0018567535857119122
253.438,0.005379159469836581,-0.005379159469836581
253.439,0.01290609630761419,-0.01290609630761419
253.44,0.019241625097622617,-0.019241625097622617
253.441,0.023495203187917868,-0.023495203187917868
253.442,0.02549156632447558,-0.02549156632447558
253.443,0.02562098832950621,-0.02562098832950621
253.444,0.0245017990055042,-0.0245017990055042
253.445,0.02261035254216137,-0.02261035254216137
253.446,0.02004245474374433,-0.02004245474374433
253.447,0.01651334567087326,-0.01651334567087326
253.448,0.011601188611323643,-0.011601188611323643
253.449,0.005130640933151298,-0.005130640933151298
253.45,0.0024781649644860515,0.0024781649644860515
253.451,0.01007289578531445,0.01007289578531445
253.452,0.015950861185928922,0.015950861185928922
253.453,0.018342903692350365,0.018342903692350365
253.454,0.016053295168456883,0.016053295168456883
253.455,0.009024306233890389,0.009024306233890389
253.456,0.0014091851671307332,-0.0014091851671307332
253.457,0.012721799732634986,-0.012721799732634986
253.458,0.02184917476410575,-0.02184917476410575
253.459,0.02611358123680052,-0.02611358123680052
253.46,0.024128108395766956,-0.024128108395766956
253.461,0.0163602980222739,-0.0163602980222739
253.462,0.005126023252906675,-0.005126023252906675
253.463,0.006035708854327915,0.006035708854327915
253.464,0.013444457473884786,0.013444457473884786
253.465,0.014483521755312756,0.014483521755312756
253.466,0.00852979616720817,0.00852979616720817
253.467,0.002721875743062041,-0.002721875743062041
253.468,0.015683399783617102,-0.015683399783617102
253.469,0.025944938300247467,-0.025944938300247467
253.47,0.029668478346104865,-0.029668478346104865
253.471,0.024857365499138306,-0.024857365499138306
253.472,0.012081134770899005,-0.012081134770899005
253.473,0.005596680875855631,0.005596680875855631
253.474,0.02348238734080499,0.02348238734080499
253.475,0.036641139951675505,0.036641139951675505
253.476,0.04136920791718279,0.04136920791718279
253.477,0.036278810419819285,0.036278810419819285
253.478,0.022653914292485533,0.022653914292485533
253.479,0.003978873090893398,0.003978873090893398
253.48,0.015183740391660261,-0.015183740391660261
253.481,0.030578826280790783,-0.030578826280790783
253.482,0.0394457000539743,-0.0394457000539743
253.483,0.04112952095180311,-0.04112952095180311
253.484,0.03695431005097871,-0.03695431005097871
253.485,0.029459360366813847,-0.029459360366813847
253.486,0.021321149256681715,-0.021321149256681715
253.487,0.014380106060724152,-0.014380106060724152
253.488,0.009132124328806057,-0.009132124328806057
253.489,0.004852278891057327,-0.004852278891057327
253.49,0.00026548647118529445,-0.00026548647118529445
253.491,0.005538964910178024,0.005538964910178024
253.492,0.012352207934886339,0.012352207934886339
253.493,0.01859594142294463,0.01859594142294463
253.494,0.021728491907732073,0.021728491907732073
253.495,0.019195054557020752,0.019195054557020752
253.496,0.009579730877716575,0.009579730877716575
253.497,0.006492526604303994,-0.006492526604303994
253.498,0.02609731812852445,-0.02609731812852445
253.499,0.04457614428204093,-0.04457614428204093
253.5,0.05681149275551067,-0.05681149275551067
253.501,0.05882557698672697,-0.05882557698672697
253.502,0.04916853986087244,-0.04916853986087244
253.503,0.02959745745611575,-0.02959745745611575
253.504,0.0047624809227927445,-0.0047624809227927445
253.505,0.01905765088218514,0.01905765088218514
253.506,0.03580209571662163,0.03580209571662163
253.507,0.041474917849889215,0.041474917849889215
253.508,0.035389372714797585,0.035389372714797585
253.509,0.020388352658825548,0.020388352658825548
253.51,0.0019483976064760267,0.0019483976064760267
253.511,0.013559452545436002,-0.013559452545436002
253.512,0.020898808828598736,-0.020898808828598736
253.513,0.017635222676086526,-0.017635222676086526
253.514,0.004906247937532804,-0.004906247937532804
253.515,0.012948311585750272,0.012948311585750272
253.516,0.029767952481121185,0.029767952481121185
253.517,0.03951238564862525,0.03951238564862525
253.518,0.038138153915493245,0.038138153915493245
253.519,0.02482300911569646,0.02482300911569646
253.52,0.0021758624351271294,0.0021758624351271294
253.521,0.024594361378766916,-0.024594361378766916
253.522,0.04924705921246664,-0.04924705921246664
253.523,0.06629491032863521,-0.06629491032863521
253.524,0.07244838935778997,-0.07244838935778997
253.525,0.06730883601033655,-0.06730883601033655
253.526,0.05316827502409094,-0.05316827502409094
253.527,0.03406849346461649,-0.03406849346461649
253.528,0.014490748773536954,-0.014490748773536954
253.529,0.0018770306664059877,0.0018770306664059877
253.53,0.012929898902622528,0.012929898902622528
253.531,0.018322004789529167,0.018322004789529167
253.532,0.019088357353539642,0.019088357353539642
253.533,0.016949937897361655,0.016949937897361655
253.534,0.013607914708893887,0.013607914708893887
253.535,0.010277408119998999,0.010277408119998999
253.536,0.007567823073678426,0.007567823073678426
253.537,0.005651902644190576,0.005651902644190576
253.538,0.004549358810654214,0.004549358810654214
253.539,0.004328282388197158,0.004328282388197158
253.54,0.005101406551233589,0.005101406551233589
253.541,0.006825670274809292,0.006825670274809292
253.542,0.009038885239914585,0.009038885239914585
253.543,0.010726038608073418,0.010726038608073418
253.544,0.01046836874635293,0.01046836874635293
253.545,0.006902794375883259,0.006902794375883259
253.546,0.0006406090933450681,-0.0006406090933450681
253.547,0.01157838134834388,-0.01157838134834388
253.548,0.02387095139733253,-0.02387095139733253
253.549,0.03436036340305426,-0.03436036340305426
253.55,0.03963758504539305,-0.03963758504539305
253.551,0.037207332526625114,-0.037207332526625114
253.552,0.02655760301458121,-0.02655760301458121
253.553,0.00971340553382738,-0.00971340553382738
253.554,0.009013426226188281,0.009013426226188281
253.555,0.02410700932070342,0.02410700932070342
253.556,0.03049024627470498,0.03049024627470498
253.557,0.025221275909035112,0.025221275909035112
253.558,0.008663691028469866,0.008663691028469866
253.559,0.01532101846119338,-0.01532101846119338
253.56,0.04031015675952798,-0.04031015675952798
253.561,0.059159619875831404,-0.059159619875831404
253.562,0.06619517238875339,-0.06619517238875339
253.563,0.05904830698094987,-0.05904830698094987
253.564,0.03950961387143681,-0.03950961387143681
253.565,0.013072463805911427,-0.013072463805911427
253.566,0.012733615084535188,0.012733615084535188
253.567,0.030709285457291013,0.030709285457291013
253.568,0.03628771520351681,0.03628771520351681
253.569,0.029007007775823324,0.029007007775823324
253.57,0.012645018947979203,0.012645018947979203
253.571,0.006053505396358849,-0.006053505396358849
253.572,0.019655277016884076,-0.019655277016884076
253.573,0.02257377690908091,-0.02257377690908091
253.574,0.013013424616240665,-0.013013424616240665
253.575,0.006339843249663746,0.006339843249663746
253.576,0.029131707759682657,0.029131707759682657
253.577,0.047404386827144096,0.047404386827144096
253.578,0.0542388418662445,0.0542388418662445
253.579,0.04610039541741617,0.04610039541741617
253.58,0.024106436332447467,0.024106436332447467
253.581,0.00621075775273483,-0.00621075775273483
253.582,0.03657586897833287,-0.03657586897833287
253.583,0.05853404514780092,-0.05853404514780092
253.584,0.0660729511104654,-0.0660729511104654
253.585,0.057458435047117784,-0.057458435047117784
253.586,0.03570615242977959,-0.03570615242977959
253.587,0.007564646227100291,-0.007564646227100291
253.588,0.018629870304159413,0.018629870304159413
253.589,0.035512405677871506,0.035512405677871506
253.59,0.03883760652609225,0.03883760652609225
253.591,0.028558018384326145,0.028558018384326145
253.592,0.00854704096849157,0.00854704096849157
253.593,0.014866635573017595,-0.014866635573017595
253.594,0.03501100528364687,-0.03501100528364687
253.595,0.04691038414161819,-0.04691038414161819
253.596,0.048605502329004735,-0.048605502329004735
253.597,0.04138934505573366,-0.04138934505573366
253.598,0.02898002160289892,-0.02898002160289892
253.599,0.016003939560090052,-0.016003939560090052
253.6,0.006362245898702712,-0.006362245898702712
253.601,0.0020420578772767373,-0.0020420578772767373
253.602,0.0027297892724231776,-0.0027297892724231776
253.603,0.006271902342545488,-0.006271902342545488
253.604,0.009726630062679265,-0.009726630062679265
253.605,0.010565504404510984,-0.010565504404510984
253.606,0.0075737847925382296,-0.0075737847925382296
253.607,0.00115462454744375,-0.00115462454744375
253.608,0.007006697518919136,0.007006697518919136
253.609,0.014715927084239189,0.014715927084239189
253.61,0.02012981107615408,0.02012981107615408
253.611,0.022352837216230492,0.022352837216230492
253.612,0.021560058275749805,0.021560058275749805
253.613,0.018650347030484404,0.018650347030484404
253.614,0.014634713713175262,0.014634713713175262
253.615,0.010068595941441938,0.010068595941441938
253.616,0.004804952047902322,0.004804952047902322
253.617,0.0018076425373882987,-0.0018076425373882987
253.618,0.010365911020635887,-0.010365911020635887
253.619,0.02075176337706164,-0.02075176337706164
253.62,0.03169929538432337,-0.03169929538432337
253.621,0.04084477783672047,-0.04084477783672047
253.622,0.04532679299666986,-0.04532679299666986
253.623,0.042770780082946325,-0.042770780082946325
253.624,0.03230831389822353,-0.03230831389822353
253.625,0.015224202281760357,-0.015224202281760357
253.626,0.005074816745985977,0.005074816745985977
253.627,0.02384655823640136,0.02384655823640136
253.628,0.03635427602612218,0.03635427602612218
253.629,0.03933858230440612,0.03933858230440612
253.63,0.032116550598940696,0.032116550598940696
253.631,0.016903446511406184,0.016903446511406184
253.632,0.001796112864410837,-0.001796112864410837
253.633,0.01856236120664656,-0.01856236120664656
253.634,0.028761964869949086,-0.028761964869949086
253.635,0.030011612278054378,-0.030011612278054378
253.636,0.022906199231424784,-0.022906199231424784
253.637,0.010758293461602952,-0.010758293461602952
253.638,0.0015671472296434619,0.0015671472296434619
253.639,0.009326247369807694,0.009326247369807694
253.64,0.0095044051116282,0.0095044051116282
253.641,0.0018084762208918637,0.0018084762208918637
253.642,0.011291891803330234,-0.011291891803330234
253.643,0.025475022558237526,-0.025475022558237526
253.644,0.03609788997118535,-0.03609788997118535
253.645,0.03979966351697439,-0.03979966351697439
253.646,0.035611239591399,-0.035611239591399
253.647,0.02518606108436028,-0.02518606108436028
253.648,0.012086410883216936,-0.012086410883216936
253.649,0.00040054179940041124,-0.00040054179940041124
253.65,0.006793135703407227,0.006793135703407227
253.651,0.008544884083125037,0.008544884083125037
253.652,0.006318816076663625,0.006318816076663625
253.653,0.003333404779156224,0.003333404779156224
253.654,0.003194796400480593,0.003194796400480593
253.655,0.008326170240110065,0.008326170240110065
253.656,0.018782831429977165,0.018782831429977165
253.657,0.03191675886126921,0.03191675886126921
253.658,0.043058499781302384,0.043058499781302384
253.659,0.047021924452770314,0.047021924452770314
253.66,0.039936126412356554,0.039936126412356554
253.661,0.020775705598002236,0.020775705598002236
253.662,0.007955556265550556,-0.007955556265550556
253.663,0.040658880853367,-0.040658880853367
253.664,0.07009300944299124,-0.07009300944299124
253.665,0.08940419703006064,-0.08940419703006064
253.666,0.09409708104724723,-0.09409708104724723
253.667,0.08332539546407658,-0.08332539546407658
253.668,0.060101705161409336,-0.060101705161409336
253.669,0.03037428037667489,-0.03037428037667489
253.67,0.0012788800279662782,-0.0012788800279662782
253.671,0.020875590389555443,0.020875590389555443
253.672,0.03226560350106289,0.03226560350106289
253.673,0.0323734107446878,0.0323734107446878
253.674,0.023775428879508897,0.023775428879508897
253.675,0.011040468090422362,0.011040468090422362
253.676,0.0008501146209133337,-0.0008501146209133337
253.677,0.0080290090113595,-0.0080290090113595
253.678,0.008746973920033985,-0.008746973920033985
253.679,0.003595687371261813,-0.003595687371261813
253.68,0.0050307043981348,0.0050307043981348
253.681,0.013968119389163869,0.013968119389163869
253.682,0.020407326020315253,0.020407326020315253
253.683,0.022724308635066803,0.022724308635066803
253.684,0.02077665727915634,0.02077665727915634
253.685,0.015642585869765524,0.015642585869765524
253.686,0.008981508651992876,0.008981508651992876
253.687,0.0023117061555013585,0.0023117061555013585
253.688,0.0035041294051306737,-0.0035041294051306737
253.689,0.008389313301268686,-0.008389313301268686
253.69,0.012796339565172787,-0.012796339565172787
253.691,0.017220454373111038,-0.017220454373111038
253.692,0.021728134455439307,-0.021728134455439307
253.693,0.025727276219735362,-0.025727276219735362
253.694,0.028094778834939382,-0.028094778834939382
253.695,0.02761972571978555,-0.02761972571978555
253.696,0.0235804905687218,-0.0235804905687218
253.697,0.0162077798837984,-0.0162077798837984
253.698,0.006819580720089036,-0.006819580720089036
253.699,0.002464141040911638,0.002464141040911638
253.7,0.009355693615450189,0.009355693615450189
253.701,0.012169115114483375,0.012169115114483375
253.702,0.010444818178676707,0.010444818178676707
253.703,0.005186442654014911,0.005186442654014911
253.704,0.0014038079749386645,-0.0014038079749386645
253.705,0.006628858563903495,-0.006628858563903495
253.706,0.008216811311440253,-0.008216811311440253
253.707,0.005148424781806327,-0.005148424781806327
253.708,0.0018972165757984438,0.0018972165757984438
253.709,0.01064767347149842,0.01064767347149842
253.71,0.01788092792828011,0.01788092792828011
253.711,0.020416511666434545,0.020416511666434545
253.712,0.016144652703912632,0.016144652703912632
253.713,0.004767189363984015,0.004767189363984015
253.714,0.011987145239151453,-0.011987145239151453
253.715,0.030746279038683544,-0.030746279038683544
253.716,0.04736537607621094,-0.04736537607621094
253.717,0.05802634043907562,-0.05802634043907562
253.718,0.06024551115908361,-0.06024551115908361
253.719,0.05350587382336536,-0.05350587382336536
253.72,0.03935048298818289,-0.03935048298818289
253.721,0.02093579562814596,-0.02093579562814596
253.722,0.0021954111176258895,-0.0021954111176258895
253.723,0.013138404989713637,0.013138404989713637
253.724,0.022390011931915144,0.022390011931915144
253.725,0.02446546209618794,0.02446546209618794
253.726,0.019949660128123936,0.019949660128123936
253.727,0.010800499622646731,0.010800499622646731
253.728,0.0002360872099541611,-0.0002360872099541611
253.729,0.010315062983837664,-0.010315062983837664
253.73,0.017112994284857797,-0.017112994284857797
253.731,0.019254357589922,-0.019254357589922
253.732,0.016484933181840966,-0.016484933181840966
253.733,0.009600003282004721,-0.009600003282004721
253.734,0.00018297452882665155,-0.00018297452882665155
253.735,0.009767006775882825,0.009767006775882825
253.736,0.01823884437148604,0.01823884437148604
253.737,0.023577333875266282,0.023577333875266282
253.738,0.024764309141004803,0.024764309141004803
253.739,0.02157811832842338,0.02157811832842338
253.74,0.014611145076729004,0.014611145076729004
253.741,0.00514162984083133,0.00514162984083133
253.742,0.005122900746681425,-0.005122900746681425
253.743,0.01438850639065048,-0.01438850639065048
253.744,0.02113880630961007,-0.02113880630961007
253.745,0.024441870840447355,-0.024441870840447355
253.746,0.02412684449143554,-0.02412684449143554
253.747,0.020783198064577624,-0.020783198064577624
253.748,0.015578457760189623,-0.015578457760189623
253.749,0.009938813188528961,-0.009938813188528961
253.75,0.005176232529360503,-0.005176232529360503
253.751,0.0021622826102958292,-0.0021622826102958292
253.752,0.001136161495526422,-0.001136161495526422
253.753,0.001695504099795908,-0.001695504099795908
253.754,0.002965294363783788,-0.002965294363783788
253.755,0.00388962924177938,-0.00388962924177938
253.756,0.0035590323915450917,-0.0035590323915450917
253.757,0.0014817807540452588,-0.0014817807540452588
253.758,0.0022691848707905304,0.0022691848707905304
253.759,0.007061383618889083,0.007061383618889083
253.76,0.011843889953730091,0.011843889953730091
253.761,0.015376049692045424,0.015376049692045424
253.762,0.016483035602064433,0.016483035602064433
253.763,0.014284918264926283,0.014284918264926283
253.764,0.008365788429591126,0.008365788429591126
253.765,0.0011292913029594676,-0.0011292913029594676
253.766,0.0134684302180893,-0.0134684302180893
253.767,0.027375150088269518,-0.027375150088269518
253.768,0.04114140380520448,-0.04114140380520448
253.769,0.05281855410655922,-0.05281855410655922
253.77,0.06048777634097979,-0.06048777634097979
253.771,0.06259131519527694,-0.06259131519527694
253.772,0.058275750664791515,-0.058275750664791515
253.773,0.047669725349848036,-0.047669725349848036
253.774,0.032006719458777755,-0.032006719458777755
253.775,0.01352052718925123,-0.01352052718925123
253.776,0.004910279673238982,0.004910279673238982
253.777,0.02032241483719921,0.02032241483719921
253.778,0.030315120869881307,0.030315120869881307
253.779,0.03362104970749358,0.03362104970749358
253.78,0.030436245533117967,0.030436245533117967
253.781,0.02239614146142266,0.02239614146142266
253.782,0.012177858223335392,0.012177858223335392
