Czas,AbsSum,Sum
25.798,0.013353991655694952,-0.013353991655694952
25.799000000000003,0.02429104302217211,0.02429104302217211
25.8,0.055704945234138936,0.055704945234138936
25.801,0.07273458095878693,0.07273458095878693
25.802000000000003,0.07023070348065108,0.07023070348065108
25.803,0.04777005184827354,0.04777005184827354
25.804,0.010097321212704236,0.010097321212704236
25.805000000000003,0.03394267791482097,-0.03394267791482097
25.806,0.07373669141459338,-0.07373669141459338
25.807,0.09983341036965943,-0.09983341036965943
25.808000000000003,0.10658922959187489,-0.10658922959187489
25.809,0.09370998300748656,-0.09370998300748656
25.81,0.0662031715689333,-0.0662031715689333
25.811000000000003,0.032754602470043026,-0.032754602470043026
25.812,0.0030450672220732056,-0.0030450672220732056
25.813,0.01514045181178525,0.01514045181178525
25.814,0.01810033906038999,0.01810033906038999
25.815,0.007030983566947313,0.007030983566947313
25.816000000000003,0.012741650995246934,-0.012741650995246934
25.817,0.03380076892238215,-0.03380076892238215
25.818,0.049225371512842675,-0.049225371512842675
25.819000000000003,0.05484320777099705,-0.05484320777099705
25.82,0.05041053382573335,-0.05041053382573335
25.821,0.03936914969427274,-0.03936914969427274
25.822000000000003,0.02733087525510558,-0.02733087525510558
25.823,0.019874470953673007,-0.019874470953673007
25.824,0.02046028311695114,-0.02046028311695114
25.825000000000003,0.029200905370260433,-0.029200905370260433
25.826,0.04290100675243491,-0.04290100675243491
25.827,0.056315780482318445,-0.056315780482318445
25.828000000000003,0.06414203361904047,-0.06414203361904047
25.829,0.06300311058318075,-0.06300311058318075
25.83,0.05270570579726408,-0.05270570579726408
25.831000000000003,0.03632265676644897,-0.03632265676644897
25.832,0.01908773687835008,-0.01908773687835008
25.833,0.006518316200015639,-0.006518316200015639
25.834000000000003,0.0024543185077259277,-0.0024543185077259277
25.835,0.007720741947243703,-0.007720741947243703
25.836,0.019882837349295523,-0.019882837349295523
25.837000000000003,0.034158070983304034,-0.034158070983304034
25.838,0.04512735498996323,-0.04512735498996323
25.839,0.04860447391769185,-0.04860447391769185
25.840000000000003,0.04297988065817071,-0.04297988065817071
25.841,0.02956628391793148,-0.02956628391793148
25.842,0.011857870077027877,-0.011857870077027877
25.843000000000004,0.005972223614293837,0.005972223614293837
25.844,0.02072560303895732,0.02072560303895732
25.845,0.03132166911385004,0.03132166911385004
25.846,0.038972065720044746,0.038972065720044746
25.847,0.04631205566554075,0.04631205566554075
25.848000000000003,0.05583352217205273,0.05583352217205273
25.849,0.0682594900690372,0.0682594900690372
25.85,0.08155528945276025,0.08155528945276025
25.851000000000003,0.0910583590715901,0.0910583590715901
25.852,0.09079871661620076,0.09079871661620076
25.853,0.07562237494497825,0.07562237494497825
25.854000000000003,0.04339052159746548,0.04339052159746548
25.855,0.003560814983043281,-0.003560814983043281
25.856,0.058309460082718756,-0.058309460082718756
25.857000000000003,0.11075471780462542,-0.11075471780462542
25.858,0.15019276646973145,-0.15019276646973145
25.859,0.16828618213448143,-0.16828618213448143
25.860000000000003,0.161483050816703,-0.161483050816703
25.861,0.13208892258161098,-0.13208892258161098
25.862,0.08761790054148377,-0.08761790054148377
25.863000000000003,0.03860705773078399,-0.03860705773078399
25.864,0.004418138603617061,0.004418138603617061
25.865,0.03386305798098954,0.03386305798098954
25.866000000000003,0.04694890992089906,0.04694890992089906
25.867,0.04599685832855793,0.04599685832855793
25.868,0.03708276340536165,0.03708276340536165
25.869000000000003,0.027573950556796012,0.027573950556796012
25.87,0.02341739327827619,0.02341739327827619
25.871,0.027105414499394298,0.027105414499394298
25.872000000000003,0.03698607946359145,0.03698607946359145
25.873,0.04810530833585003,0.04810530833585003
25.874,0.0542354745242315,0.0542354745242315
25.875,0.05034487056003045,0.05034487056003045
25.876,0.034628705698370954,0.034628705698370954
25.877,0.009394928591426766,0.009394928591426766
25.878,0.019490139950456675,-0.019490139950456675
25.879,0.04438908777199879,-0.04438908777199879
25.880000000000003,0.05828940277347949,-0.05828940277347949
25.881,0.056993758881897394,-0.056993758881897394
25.882,0.04038494590436137,-0.04038494590436137
25.883000000000003,0.01238272144036423,-0.01238272144036423
25.884,0.020336800509557662,0.020336800509557662
25.885,0.05038061196884325,0.05038061196884325
25.886000000000003,0.07173526804637742,0.07173526804637742
25.887,0.08124849443175997,0.08124849443175997
25.888,0.07908325346272727,0.07908325346272727
25.889000000000003,0.06811536023943288,0.06811536023943288
25.89,0.05261005614409098,0.05261005614409098
25.891,0.036727907648274494,0.036727907648274494
25.892000000000003,0.023407176815118058,0.023407176815118058
25.893,0.013963584656141226,0.013963584656141226
25.894,0.008429550516062312,0.008429550516062312
25.895000000000003,0.006352626235769598,0.006352626235769598
25.896,0.007604670617088249,0.007604670617088249
25.897,0.012781030110753822,0.012781030110753822
25.898000000000003,0.022975730814775996,0.022975730814775996
25.899,0.03901672705712489,0.03901672705712489
25.9,0.060510844768157934,0.060510844768157934
25.901000000000003,0.0851699472193772,0.0851699472193772
25.902,0.10881302718153352,0.10881302718153352
25.903,0.12618694958493237,0.12618694958493237
25.904000000000003,0.13241581157755777,0.13241581157755777
25.905,0.1246054116883164,0.1246054116883164
25.906,0.10301132790804357,0.10301132790804357
25.907,0.07128356266186175,0.07128356266186175
25.908,0.035601369103678504,0.035601369103678504
25.909,0.002906140697733317,0.002906140697733317
25.91,0.02121494281177927,-0.02121494281177927
25.911,0.03427789516118096,-0.03427789516118096
25.912000000000003,0.03765426197670829,-0.03765426197670829
25.913,0.03601717977023877,-0.03601717977023877
25.914,0.03561871191586252,-0.03561871191586252
25.915000000000003,0.04195548606485999,-0.04195548606485999
25.916,0.057620086980521124,-0.057620086980521124
25.917,0.08110436469493554,-0.08110436469493554
25.918000000000003,0.10701874794300348,-0.10701874794300348
25.919,0.12771574325449542,-0.12771574325449542
25.92,0.13581717112796377,-0.13581717112796377
25.921000000000003,0.1268133653083685,-0.1268133653083685
25.922,0.1008479172066723,-0.1008479172066723
25.923,0.06304949385631076,-0.06304949385631076
25.924000000000003,0.02224446739711128,-0.02224446739711128
25.925,0.011576513216138284,0.011576513216138284
25.926,0.03024091725993827,0.03024091725993827
25.927000000000003,0.029865582682790492,0.029865582682790492
25.928,0.012012683551889891,0.012012683551889891
25.929,0.016848670858294668,-0.016848670858294668
25.930000000000003,0.04740150444200664,-0.04740150444200664
25.931,0.07039133031370215,-0.07039133031370215
25.932,0.07944534727524377,-0.07944534727524377
25.933000000000003,0.07289765016864858,-0.07289765016864858
25.934,0.0540544559790479,-0.0540544559790479
25.935,0.029852344827875577,-0.029852344827875577
25.936000000000003,0.008388874731401597,-0.008388874731401597
25.937,0.0038362688207982387,0.0038362688207982387
25.938,0.004056293411450751,0.004056293411450751
25.939,0.005937078455706457,-0.005937078455706457
25.94,0.020514730246495638,-0.020514730246495638
25.941000000000003,0.032200722250477654,-0.032200722250477654
25.942,0.03424631715941295,-0.03424631715941295
25.943,0.022930910608554345,-0.022930910608554345
25.944000000000003,0.0011503310490472707,0.0011503310490472707
25.945,0.03319763291234734,0.03319763291234734
25.946,0.06563543055507104,0.06563543055507104
25.947000000000003,0.09035799376980203,0.09035799376980203
25.948,0.10105485028688777,0.10105485028688777
25.949,0.09489546847652974,0.09489546847652974
25.950000000000003,0.07310271197764329,0.07310271197764329
25.951,0.040331510004615545,0.040331510004615545
25.952,0.0031552207859484316,0.0031552207859484316
25.953000000000003,0.03178231693855549,-0.03178231693855549
25.954,0.05934326259892764,-0.05934326259892764
25.955,0.0767556933556901,-0.0767556933556901
25.956000000000003,0.08360909262423111,-0.08360909262423111
25.957,0.08115580605001205,-0.08115580605001205
25.958,0.07131251895273627,-0.07131251895273627
25.959000000000003,0.055810521853256745,-0.055810521853256745
25.96,0.03582128180636723,-0.03582128180636723
25.961,0.012142905646038926,-0.012142905646038926
25.962000000000003,0.014226167401949041,0.014226167401949041
25.963,0.041473950415792826,0.041473950415792826
25.964,0.06669111599565158,0.06669111599565158
25.965000000000003,0.08614721788843416,0.08614721788843416
25.966,0.0961153956067402,0.0961153956067402
25.967,0.09398488776909364,0.09398488776909364
25.968000000000004,0.0792452456797319,0.0792452456797319
25.969,0.0539306213816666,0.0539306213816666
25.97,0.022282786512751507,0.022282786512751507
25.971,0.010330339963081858,-0.010330339963081858
25.972,0.038919453408908566,-0.038919453408908566
25.973000000000003,0.060298222804012425,-0.060298222804012425
25.974,0.07391770679874277,-0.07391770679874277
25.975,0.08178432197017882,-0.08178432197017882
25.976000000000003,0.0874496843848096,-0.0874496843848096
25.977,0.09439900163655668,-0.09439900163655668
25.978,0.10440446012696891,-0.10440446012696891
25.979000000000003,0.1164588053097767,-0.1164588053097767
25.98,0.12673375014200094,-0.12673375014200094
25.981,0.12966662120506,-0.12966662120506
25.982000000000003,0.11987842319519071,-0.11987842319519071
25.983,0.0943053146228694,-0.0943053146228694
25.984,0.053800568685406724,-0.053800568685406724
25.985000000000003,0.003590162431768573,-0.003590162431768573
25.986,0.04768719390391851,0.04768719390391851
25.987,0.09016245312728866,0.09016245312728866
25.988000000000003,0.11552212065061163,0.11552212065061163
25.989,0.11953527178618062,0.11953527178618062
25.99,0.10348926089281485,0.10348926089281485
25.991000000000003,0.07400840542927867,0.07400840542927867
25.992,0.04122482029926089,0.04122482029926089
25.993,0.015799091743508464,0.015799091743508464
25.994000000000003,0.005678980530581024,0.005678980530581024
25.995,0.013604136610762207,0.013604136610762207
25.996,0.036165006165127966,0.036165006165127966
25.997000000000003,0.06475827942973922,0.06475827942973922
25.998,0.08819098526688918,0.08819098526688918
25.999,0.09615683009509901,0.09615683009509901
26.0,0.08251308590158346,0.08251308590158346
26.001,0.0473251430886974,0.0473251430886974
26.002,0.0029853673715478646,-0.0029853673715478646
26.003,0.057464605429355164,-0.057464605429355164
26.004,0.10387406537488042,-0.10387406537488042
26.005000000000003,0.13235196069500754,-0.13235196069500754
26.006,0.13833231919072497,-0.13833231919072497
26.007,0.1237871507709295,-0.1237871507709295
26.008000000000003,0.09638270724692277,-0.09638270724692277
26.009,0.06680767143592692,-0.06680767143592692
26.01,0.04512715968511505,-0.04512715968511505
26.011000000000003,0.03734795357058285,-0.03734795357058285
26.012,0.04333457809754149,-0.04333457809754149
26.013,0.0567989363662188,-0.0567989363662188
26.014000000000003,0.06742414754899118,-0.06742414754899118
26.015,0.06448394355587872,-0.06448394355587872
26.016,0.040807423204856086,-0.040807423204856086
26.017000000000003,0.0042147425716987374,0.0042147425716987374
26.018,0.06362306910224769,0.06362306910224769
26.019,0.12431380838414863,0.12431380838414863
26.020000000000003,0.17056171565282674,0.17056171565282674
26.021,0.18862302401593678,0.18862302401593678
26.022,0.17101876891723067,0.17101876891723067
26.023000000000003,0.11914885629490324,0.11914885629490324
26.024,0.0433647205829617,0.0433647205829617
26.025,0.03960757397972947,-0.03960757397972947
26.026000000000003,0.11118579853829647,-0.11118579853829647
26.027,0.1560708633788802,-0.1560708633788802
26.028,0.16647278526462572,-0.16647278526462572
26.029000000000003,0.14414810241746168,-0.14414810241746168
26.03,0.09963016960810556,-0.09963016960810556
26.031,0.048887206971415686,-0.048887206971415686
26.032,0.008428274707335981,-0.008428274707335981
26.033,0.009651159223843297,0.009651159223843297
26.034,0.0011830049451262425,0.0011830049451262425
26.035,0.029045456621815013,-0.029045456621815013
26.036,0.06901705630968225,-0.06901705630968225
26.037000000000003,0.10337782629218073,-0.10337782629218073
26.038,0.1182513691998105,-0.1182513691998105
26.039,0.10546771012703582,-0.10546771012703582
26.040000000000003,0.06491774326832378,-0.06491774326832378
26.041,0.004365591048438255,-0.004365591048438255
26.042,0.06312824507601955,0.06312824507601955
26.043000000000003,0.12326658297480031,0.12326658297480031
26.044,0.1647076147697044,0.1647076147697044
26.045,0.18204339744454523,0.18204339744454523
26.046000000000003,0.17666355836449132,0.17666355836449132
26.047,0.15533482746010718,0.15533482746010718
26.048,0.12709955512022275,0.12709955512022275
26.049000000000003,0.09965155859220154,0.09965155859220154
26.05,0.07650129920455262,0.07650129920455262
26.051,0.055945363653139735,0.055945363653139735
26.052000000000003,0.03220960862057809,0.03220960862057809
26.053,0.0016395477465486197,-0.0016395477465486197
26.054,0.050061977004906444,-0.050061977004906444
26.055000000000003,0.1120224423530829,-0.1120224423530829
26.056,0.1797467179513339,-0.1797467179513339
26.057,0.23984854868015282,-0.23984854868015282
26.058000000000003,0.2766304869373979,-0.2766304869373979
26.059,0.27661493546735827,-0.27661493546735827
26.06,0.23290805736391196,-0.23290805736391196
26.061000000000003,0.14799317957656788,-0.14799317957656788
26.062,0.034000053030838306,-0.034000053030838306
26.063,0.08973956787583548,0.08973956787583548
26.064,0.20120565486673736,0.20120565486673736
26.065,0.2809921566952118,0.2809921566952118
26.066000000000003,0.31688050793519307,0.31688050793519307
26.067,0.30640247351476746,0.30640247351476746
26.068,0.2567366773481481,0.2567366773481481
26.069000000000003,0.18209503099308222,0.18209503099308222
26.07,0.09949188071756287,0.09949188071756287
26.071,0.024219774792407334,0.024219774792407334
26.072000000000003,0.033643827515062674,-0.033643827515062674
26.073,0.0707865997213557,-0.0707865997213557
26.074,0.09002877043662005,-0.09002877043662005
26.075000000000003,0.09797169730111499,-0.09797169730111499
26.076,0.1018939389635789,-0.1018939389635789
26.077,0.10700920902712152,-0.10700920902712152
26.078000000000003,0.11496581019822949,-0.11496581019822949
26.079,0.12395182107288083,-0.12395182107288083
26.08,0.13016764130876313,-0.13016764130876313
26.081000000000003,0.12995203400765076,-0.12995203400765076
26.082,0.12166051871047834,-0.12166051871047834
26.083,0.10654900534087453,-0.10654900534087453
26.084000000000003,0.08834088754692138,-0.08834088754692138
26.085,0.07168735930109194,-0.07168735930109194
26.086,0.060169291677543035,-0.060169291677543035
26.087000000000003,0.054673114270589296,-0.054673114270589296
26.088,0.05283630250420679,-0.05283630250420679
26.089,0.04985163952878546,-0.04985163952878546
26.090000000000003,0.04039331741719154,-0.04039331741719154
26.091,0.020976418789581674,-0.020976418789581674
26.092,0.008146807653861776,0.008146807653861776
26.093000000000004,0.04233244802222336,0.04233244802222336
26.094,0.07350010407718677,0.07350010407718677
26.095,0.09250125648562779,0.09250125648562779
26.096,0.0921825546555004,0.0921825546555004
26.097,0.07013218133524779,0.07013218133524779
26.098000000000003,0.030141796830946754,0.030141796830946754
26.099,0.01820597926190415,-0.01820597926190415
26.1,0.06182308198669695,-0.06182308198669695
26.101000000000003,0.08766108395746253,-0.08766108395746253
26.102,0.08647308027047385,-0.08647308027047385
26.103,0.05564714659873604,-0.05564714659873604
26.104000000000003,0.0002277397973484696,-0.0002277397973484696
26.105,0.06821494876468615,0.06821494876468615
26.106,0.13455550015797102,0.13455550015797102
26.107000000000003,0.18405801507248398,0.18405801507248398
26.108,0.20614786672479268,0.20614786672479268
26.109,0.19693685095563818,0.19693685095563818
26.110000000000003,0.15982590744066782,0.15982590744066782
26.111,0.10409905935915087,0.10409905935915087
26.112,0.04201515557850577,0.04201515557850577
26.113000000000003,0.014681569829686603,-0.014681569829686603
26.114,0.057793410672743906,-0.057793410672743906
26.115,0.0844040382440896,-0.0844040382440896
26.116000000000003,0.09691370843025648,-0.09691370843025648
26.117,0.10149941761952352,-0.10149941761952352
26.118,0.10557669756301102,-0.10557669756301102
26.119000000000003,0.11508679846578485,-0.11508679846578485
26.12,0.1324182592065246,-0.1324182592065246
26.121,0.1555232390670176,-0.1555232390670176
26.122000000000003,0.17840259842959982,-0.17840259842959982
26.123,0.19273709294988695,-0.19273709294988695
26.124,0.19015105252174158,-0.19015105252174158
26.125,0.1644791797081968,-0.1644791797081968
26.126,0.11347447274465294,-0.11347447274465294
26.127,0.03959833618282138,-0.03959833618282138
26.128,0.05020635334096313,0.05020635334096313
26.129,0.14562230537978071,0.14562230537978071
26.130000000000003,0.234651075942359,0.234651075942359
26.131,0.30553915298754086,0.30553915298754086
26.132,0.34860584344278567,0.34860584344278567
26.133000000000003,0.35771128708211064,0.35771128708211064
26.134,0.3311845457525473,0.3311845457525473
26.135,0.2721056855921131,0.2721056855921131
26.136000000000003,0.1879014654622031,0.1879014654622031
26.137,0.08928391998208607,0.08928391998208607
26.138,0.011353289398484456,-0.011353289398484456
26.139000000000003,0.10186565654546198,-0.10186565654546198
26.14,0.17230604393049853,-0.17230604393049853
26.141,0.21652614625489264,-0.21652614625489264
26.142000000000003,0.23308751584156617,-0.23308751584156617
26.143,0.22525182223688034,-0.22525182223688034
26.144,0.2000142362378886,-0.2000142362378886
26.145000000000003,0.16637479346313022,-0.16637479346313022
26.146,0.1332450147651848,-0.1332450147651848
26.147,0.10749549367264744,-0.10749549367264744
26.148000000000003,0.0926227217079788,-0.0926227217079788
26.149,0.08834914113634862,-0.08834914113634862
26.15,0.09121302174717816,-0.09121302174717816
26.151000000000003,0.09593052600995289,-0.09593052600995289
26.152,0.09710555360229556,-0.09710555360229556
26.153,0.09078752105214716,-0.09078752105214716
26.154000000000003,0.07545445808579732,-0.07545445808579732
26.155,0.05219984766369434,-0.05219984766369434
26.156,0.02415746479788794,-0.02415746479788794
26.157,0.0045759906534419414,0.0045759906534419414
26.158,0.030136839772958224,0.030136839772958224
26.159,0.04983653696136803,0.04983653696136803
26.16,0.06260875963239698,0.06260875963239698
26.161,0.06891554771372199,0.06891554771372199
26.162000000000003,0.07025116268291276,0.07025116268291276
26.163,0.06849123399120693,0.06849123399120693
26.164,0.06533639602802177,0.06533639602802177
26.165000000000003,0.06200612178833809,0.06200612178833809
26.166,0.059198607372741296,0.059198607372741296
26.167,0.05721048611331092,0.05721048611331092
26.168000000000003,0.0560583924985707,0.0560583924985707
26.169,0.05548212864799629,0.05548212864799629
26.17,0.05481443675900066,0.05481443675900066
26.171000000000003,0.05282153259473388,0.05282153259473388
26.172,0.04768949736427763,0.04768949736427763
26.173,0.03731128353203372,0.03731128353203372
26.174000000000003,0.019913995966496678,0.019913995966496678
26.175,0.005102899493340751,-0.005102899493340751
26.176,0.036399560345890425,-0.036399560345890425
26.177000000000003,0.07034014132814059,-0.07034014132814059
26.178,0.10131775961367384,-0.10131775961367384
26.179,0.12282601812202276,-0.12282601812202276
26.180000000000003,0.12907374550644268,-0.12907374550644268
26.181,0.11670008165368473,-0.11670008165368473
26.182,0.08603507314135428,-0.08603507314135428
26.183000000000003,0.04142683889045329,-0.04142683889045329
26.184,0.009584433149086191,0.009584433149086191
26.185,0.058097090220845304,0.058097090220845304
26.186000000000003,0.09617968864417481,0.09617968864417481
26.187,0.1189878536403155,0.1189878536403155
26.188,0.1259694568823666,0.1259694568823666
26.189,0.12072397061274653,0.12072397061274653
26.19,0.10951388748657442,0.10951388748657442
26.191000000000003,0.09888700658197891,0.09888700658197891
26.192,0.09319790098335101,0.09319790098335101
26.193,0.09289111574664854,0.09289111574664854
26.194000000000003,0.09418656832166894,0.09418656832166894
26.195,0.090350394890647,0.090350394890647
26.196,0.0741892689025887,0.0741892689025887
26.197000000000003,0.0409585451458081,0.0409585451458081
26.198,0.009315161473639866,-0.009315161473639866
26.199,0.0709503876681169,-0.0709503876681169
26.200000000000003,0.133573517972575,-0.133573517972575
26.201,0.18472969252006843,-0.18472969252006843
26.202,0.21338036698191865,-0.21338036698191865
26.203000000000003,0.2131978757795696,-0.2131978757795696
26.204,0.18459334438233865,-0.18459334438233865
26.205,0.13479517904361304,-0.13479517904361304
26.206000000000003,0.0759109021354114,-0.0759109021354114
26.207,0.021552840377186078,-0.021552840377186078
26.208,0.016928477820175702,0.016928477820175702
26.209000000000003,0.03343696540951213,0.03343696540951213
26.21,0.02844407756468037,0.02844407756468037
26.211,0.008272741497392877,0.008272741497392877
26.212000000000003,0.017334495092710456,-0.017334495092710456
26.213,0.0385038087962114,-0.0385038087962114
26.214,0.04826974096619108,-0.04826974096619108
26.215000000000003,0.04439344308528981,-0.04439344308528981
26.216,0.02944495665109581,-0.02944495665109581
26.217,0.009253743102011991,-0.009253743102011991
26.218000000000004,0.009607600962676432,0.009607600962676432
26.219,0.02233422413576669,0.02233422413576669
26.22,0.027471727204158247,0.027471727204158247
26.221,0.027029386460264204,0.027029386460264204
26.222,0.02515287504847108,0.02515287504847108
26.223000000000003,0.025934694535798553,0.025934694535798553
26.224,0.031267582497769064,0.031267582497769064
26.225,0.039631070225249365,0.039631070225249365
26.226000000000003,0.04634867457511871,0.04634867457511871
26.227,0.04529075637360802,0.04529075637360802
26.228,0.03143145254107327,0.03143145254107327
26.229000000000003,0.0033068925117600845,0.0033068925117600845
26.23,0.03559591870008061,-0.03559591870008061
26.231,0.0771489043436111,-0.0771489043436111
26.232000000000003,0.1106341091541998,-0.1106341091541998
26.233,0.12595111277542748,-0.12595111277542748
26.234,0.1169494731080083,-0.1169494731080083
26.235000000000003,0.08375390476544742,-0.08375390476544742
26.236,0.03323843699441209,-0.03323843699441209
26.237,0.022606679899685345,0.022606679899685345
26.238000000000003,0.06998069952632546,0.06998069952632546
26.239,0.0972553746310667,0.0972553746310667
26.24,0.09839993629919896,0.09839993629919896
26.241000000000003,0.0747760078116888,0.0747760078116888
26.242,0.034742855241557846,0.034742855241557846
26.243,0.008795968594942916,-0.008795968594942916
26.244000000000003,0.042133461602103406,-0.042133461602103406
26.245,0.05463512953109961,-0.05463512953109961
26.246,0.04159303111150403,-0.04159303111150403
26.247000000000003,0.005262422998162819,-0.005262422998162819
26.248,0.04611804841830791,0.04611804841830791
26.249,0.10089435750504872,0.10089435750504872
26.25,0.14727203146819212,0.14727203146819212
26.251,0.17627484809977978,0.17627484809977978
26.252,0.1835588770879384,0.1835588770879384
26.253,0.1696959283166719,0.1696959283166719
26.254,0.13906434338490214,0.13906434338490214
26.255000000000003,0.09790835675047949,0.09790835675047949
26.256,0.052316436485374096,0.052316436485374096
26.257,0.006782405757572718,0.006782405757572718
26.258000000000003,0.03629084257895954,-0.03629084257895954
26.259,0.07617615551111356,-0.07617615551111356
26.26,0.11285434992048693,-0.11285434992048693
26.261000000000003,0.14600393581553905,-0.14600393581553905
26.262,0.1743954300151911,-0.1743954300151911
26.263,0.1959070923334031,-0.1959070923334031
26.264000000000003,0.2080887216319297,-0.2080887216319297
26.265,0.20897218133658269,-0.20897218133658269
26.266,0.19774955065310862,-0.19774955065310862
26.267000000000003,0.17503284646568296,-0.17503284646568296
26.268,0.14262148961848997,-0.14262148961848997
26.269,0.1029355201777794,-0.1029355201777794
26.270000000000003,0.05841960885235409,-0.05841960885235409
26.271,0.011220155809242849,-0.011220155809242849
26.272,0.03671307686954006,0.03671307686954006
26.273000000000003,0.08318043313277257,0.08318043313277257
26.274,0.12522621024452496,0.12522621024452496
26.275,0.15893961374601417,0.15893961374601417
26.276000000000003,0.17983797071813723,0.17983797071813723
26.277,0.1838674121731474,0.1838674121731474
26.278,0.16875991645252997,0.16875991645252997
26.279000000000003,0.13525768688391548,0.13525768688391548
26.28,0.08766387829429956,0.08766387829429956
26.281,0.033347048065319074,0.033347048065319074
26.282,0.018826682677645423,-0.018826682677645423
26.283,0.060753399329512736,-0.060753399329512736
26.284,0.08735038007528417,-0.08735038007528417
26.285,0.09803451922966422,-0.09803451922966422
26.286,0.09683456806414592,-0.09683456806414592
26.287000000000003,0.0909803769450015,-0.0909803769450015
26.288,0.08833706690547127,-0.08833706690547127
26.289,0.09448791059203399,-0.09448791059203399
26.290000000000003,0.11045175068264812,-0.11045175068264812
26.291,0.13186631628049084,-0.13186631628049084
26.292,0.15001234090376325,-0.15001234090376325
26.293000000000003,0.1544402324156362,-0.1544402324156362
26.294,0.13639985907614005,-0.13639985907614005
26.295,0.09196427632582038,-0.09196427632582038
26.296000000000003,0.023798128392769624,-0.023798128392769624
26.297,0.05905735350256158,0.05905735350256158
26.298,0.1433644399029983,0.1433644399029983
26.299000000000003,0.21516312651481528,0.21516312651481528
26.3,0.263435713394611,0.263435713394611
26.301,0.28279786873838764,0.28279786873838764
26.302000000000003,0.2743889937611912,0.2743889937611912
26.303,0.2447526894285803,0.2447526894285803
26.304,0.20318158536548814,0.20318158536548814
26.305000000000003,0.15850937610810556,0.15850937610810556
26.306,0.11648743843784093,0.11648743843784093
26.307,0.07863067168853188,0.07863067168853188
26.308000000000003,0.042850186573499593,0.042850186573499593
26.309,0.005515988201794553,0.005515988201794553
26.31,0.035942365268517684,-0.035942365268517684
26.311000000000003,0.0809874899159655,-0.0809874899159655
26.312,0.12535437482534884,-0.12535437482534884
26.313,0.16218328776152213,-0.16218328776152213
26.314,0.18454075792071511,-0.18454075792071511
26.315,0.18839283792294537,-0.18839283792294537
26.316000000000003,0.1748580864166389,-0.1748580864166389
26.317,0.1507642337656614,-0.1507642337656614
26.318,0.12710493241002507,-0.12710493241002507
26.319000000000003,0.11574528600007261,-0.11574528600007261
26.32,0.12539020067555162,-0.12539020067555162
26.321,0.15816510173556608,-0.15816510173556608
26.322000000000003,0.20803279870898506,-0.20803279870898506
26.323,0.26171239812284564,-0.26171239812284564
26.324,0.30195831042488896,-0.30195831042488896
26.325000000000003,0.3122727169977071,-0.3122727169977071
26.326,0.28163255473658,-0.28163255473658
26.327,0.20778308143244884,-0.20778308143244884
26.328000000000003,0.0980968675274152,-0.0980968675274152
26.329,0.032231064104971896,0.032231064104971896
26.33,0.1640454655870507,0.1640454655870507
26.331000000000003,0.27892480635186256,0.27892480635186256
26.332,0.3632809765468037,0.3632809765468037
26.333,0.4107122148747455,0.4107122148747455
26.334000000000003,0.4220946737790301,0.4220946737790301
26.335,0.4036686741055062,0.4036686741055062
26.336,0.36400859089863835,0.36400859089863835
26.337000000000003,0.31104769409435495,0.31104769409435495
26.338,0.25018000761819503,0.25018000761819503
26.339,0.18395625243565572,0.18395625243565572
26.340000000000003,0.11323160222949413,0.11323160222949413
26.341,0.03905991279803067,0.03905991279803067
26.342,0.03563062287764995,-0.03563062287764995
26.343000000000004,0.10541342095533435,-0.10541342095533435
26.344,0.16316109275290525,-0.16316109275290525
26.345,0.20202564070424756,-0.20202564070424756
26.346,0.21784541386046552,-0.21784541386046552
26.347,0.2110002448564089,-0.2110002448564089
26.348000000000003,0.18689713720230727,-0.18689713720230727
26.349,0.15475717348901308,-0.15475717348901308
26.35,0.12500862067804663,-0.12500862067804663
26.351000000000003,0.10613271659048984,-0.10613271659048984
26.352,0.1020503084174863,-0.1020503084174863
26.353,0.11098192825294328,-0.11098192825294328
26.354000000000003,0.1262106076127275,-0.1262106076127275
26.355,0.13850540707683168,-0.13850540707683168
26.356,0.13936865436367496,-0.13936865436367496
26.357000000000003,0.12397052202029235,-0.12397052202029235
26.358,0.09274373485593579,-0.09274373485593579
26.359,0.05109276798978879,-0.05109276798978879
26.360000000000003,0.0073527479394817075,-0.0073527479394817075
26.361,0.03023419325301857,0.03023419325301857
26.362,0.05640476029260255,0.05640476029260255
26.363000000000003,0.07055994244841512,0.07055994244841512
26.364,0.07663617276890089,0.07663617276890089
26.365,0.08122472988945151,0.08122472988945151
26.366000000000003,0.09065799531722463,0.09065799531722463
26.367,0.10817450024627462,0.10817450024627462
26.368,0.13225762270862496,0.13225762270862496
26.369000000000003,0.15681751608576833,0.15681751608576833
26.37,0.1732048984902408,0.1732048984902408
26.371,0.1733570009763834,0.1733570009763834
26.372000000000003,0.1529341670680746,0.1529341670680746
26.373,0.11327684009435024,0.11327684009435024
26.374,0.06141422407419639,0.06141422407419639
26.375,0.008047816746915792,0.008047816746915792
26.376,0.03583250524657133,-0.03583250524657133
26.377,0.06253168068775938,-0.06253168068775938
26.378,0.07016588918464128,-0.07016588918464128
26.379,0.06320231434966295,-0.06320231434966295
26.380000000000003,0.05080034360641539,-0.05080034360641539
26.381,0.0435089946894619,-0.0435089946894619
26.382,0.04946339427358004,-0.04946339427358004
26.383000000000003,0.07141058968612168,-0.07141058968612168
26.384,0.10561199474742922,-0.10561199474742922
26.385,0.14301442981463064,-0.14301442981463064
26.386000000000003,0.17228557812952594,-0.17228557812952594
26.387,0.18365526719194059,-0.18365526719194059
26.388,0.17222373625275422,-0.17222373625275422
26.389000000000003,0.13959109956473437,-0.13959109956473437
26.39,0.09325890388110603,-0.09325890388110603
26.391,0.0440416186457534,-0.0440416186457534
26.392000000000003,0.0024225349935425022,-0.0024225349935425022
26.393,0.024852296371966176,0.024852296371966176
26.394,0.03675224528615684,0.03675224528615684
26.395000000000003,0.037848569984896496,0.037848569984896496
26.396,0.03620202177321441,0.03620202177321441
26.397,0.040058809392100825,0.040058809392100825
26.398000000000003,0.05457824169199643,0.05457824169199643
26.399,0.07978611247593315,0.07978611247593315
26.4,0.11048746110361174,0.11048746110361174
26.401000000000003,0.13815024822001476,0.13815024822001476
26.402,0.15405074130500185,0.15405074130500185
26.403,0.15251323391516447,0.15251323391516447
26.404000000000003,0.13304625973523332,0.13304625973523332
26.405,0.10058442248251898,0.10058442248251898
26.406,0.06374055909161358,0.06374055909161358
26.407,0.03170401745761531,0.03170401745761531
26.408,0.010921473731016373,0.010921473731016373
26.409,0.002784424544598263,0.002784424544598263
26.41,0.0031890287628415503,0.0031890287628415503
26.411,0.00415742150803311,0.00415742150803311
26.412000000000003,0.0030416746125233596,-0.0030416746125233596
26.413,0.024390147513378313,-0.024390147513378313
26.414,0.060509744927711884,-0.060509744927711884
26.415000000000003,0.10591763415089894,-0.10591763415089894
26.416,0.15046969520319475,-0.15046969520319475
26.417,0.18253807559630908,-0.18253807559630908
26.418000000000003,0.19284767199240072,-0.19284767199240072
26.419,0.1776488112738559,-0.1776488112738559
26.42,0.14011956332181452,-0.14011956332181452
26.421000000000003,0.08949605260090887,-0.08949605260090887
26.422,0.03821092602847109,-0.03821092602847109
26.423,0.0019950769837460136,0.0019950769837460136
26.424000000000003,0.023674727431539644,0.023674727431539644
26.425,0.025782761955693845,0.025782761955693845
26.426,0.013608232426553846,0.013608232426553846
26.427000000000003,0.0033982838687626193,-0.0033982838687626193
26.428,0.015111537665484898,-0.015111537665484898
26.429,0.014305131488336675,-0.014305131488336675
26.430000000000003,0.0009200485325335794,0.0009200485325335794
26.431,0.02666110450086645,0.02666110450086645
26.432,0.05480372100092534,0.05480372100092534
26.433000000000003,0.07606615623904323,0.07606615623904323
26.434,0.08338776222186728,0.08338776222186728
26.435,0.07445317888827963,0.07445317888827963
26.436000000000003,0.05246939844450149,0.05246939844450149
26.437,0.02494458901679808,0.02494458901679808
26.438,0.000929219826058425,0.000929219826058425
26.439,0.012278963788048158,-0.012278963788048158
26.44,0.011781863989746233,-0.011781863989746233
26.441000000000003,0.000131312168501041,-0.000131312168501041
26.442,0.015598302010246368,0.015598302010246368
26.443,0.02639783376466598,0.02639783376466598
26.444000000000003,0.0246696500832424,0.0246696500832424
26.445,0.007161157095603388,0.007161157095603388
26.446,0.02354866858252358,-0.02354866858252358
26.447000000000003,0.05955113568956505,-0.05955113568956505
26.448,0.08996240373210151,-0.08996240373210151
26.449,0.1043661775254382,-0.1043661775254382
26.450000000000003,0.09621189768045146,-0.09621189768045146
26.451,0.06504966762428088,-0.06504966762428088
26.452,0.0168692713980525,-0.0168692713980525
26.453000000000003,0.03756536392462051,0.03756536392462051
26.454,0.08584400412452609,0.08584400412452609
26.455,0.11749528015173394,0.11749528015173394
26.456000000000003,0.12689718480124923,0.12689718480124923
26.457,0.11462237818650012,0.11462237818650012
26.458,0.08684894251956377,0.08684894251956377
26.459000000000003,0.05309080023690993,0.05309080023690993
26.46,0.0230237369318278,0.0230237369318278
26.461,0.0034392916703378518,0.0034392916703378518
26.462000000000003,0.003721724674895399,-0.003721724674895399
26.463,0.0016819454571341819,-0.0016819454571341819
26.464,0.002545719127936996,0.002545719127936996
26.465000000000003,0.0007212934812748095,0.0007212934812748095
26.466,0.013713981120635266,-0.013713981120635266
26.467,0.04330008619820214,-0.04330008619820214
26.468000000000004,0.08549299331153337,-0.08549299331153337
26.469,0.1331564930807,-0.1331564930807
26.47,0.1764159063264994,-0.1764159063264994
26.471,0.20528506298139915,-0.20528506298139915
26.472,0.21228347829901406,-0.21228347829901406
26.473000000000003,0.19430905206521876,-0.19430905206521876
26.474,0.15329040092466162,-0.15329040092466162
26.475,0.0955197050393225,-0.0955197050393225
26.476000000000003,0.029942476844843635,-0.029942476844843635
26.477,0.03405317998104662,0.03405317998104662
26.478,0.08871478134060018,0.08871478134060018
26.479000000000003,0.12933284643974607,0.12933284643974607
26.48,0.15467515003690702,0.15467515003690702
26.481,0.16644365519815896,0.16644365519815896
26.482000000000003,0.16802194468448817,0.16802194468448817
26.483,0.16295479028720483,0.16295479028720483
26.484,0.15363876569807178,0.15363876569807178
26.485000000000003,0.1406050867154096,0.1406050867154096
26.486,0.12257973648393805,0.12257973648393805
26.487,0.09727001790851864,0.09727001790851864
26.488000000000003,0.0626150626307087,0.0626150626307087
26.489,0.01810434349245371,0.01810434349245371
26.49,0.03425525627215231,-0.03425525627215231
26.491000000000003,0.0896528259665823,-0.0896528259665823
26.492,0.1410156657162036,-0.1410156657162036
26.493,0.18030364244526342,-0.18030364244526342
26.494000000000003,0.20026643713691905,-0.20026643713691905
26.495,0.19623028526007658,-0.19623028526007658
26.496,0.16744558330857184,-0.16744558330857184
26.497000000000003,0.11761494940006467,-0.11761494940006467
26.498,0.054415703542488925,-0.054415703542488925
26.499,0.01191570976917955,0.01191570976917955
26.5,0.0706233191761505,0.0706233191761505
26.501,0.11261009708046021,0.11261009708046021
26.502,0.13222540195469712,0.13222540195469712
26.503,0.12823033275792928,0.12823033275792928
26.504,0.10372840720663445,0.10372840720663445
26.505000000000003,0.06512661056457314,0.06512661056457314
26.506,0.020448318918498076,0.020448318918498076
26.507,0.02252117125138342,-0.02252117125138342
26.508000000000003,0.05776125476702754,-0.05776125476702754
26.509,0.08185235785992362,-0.08185235785992362
26.51,0.09399545516730812,-0.09399545516730812
26.511000000000003,0.09534927254909986,-0.09534927254909986
26.512,0.08802001364537704,-0.08802001364537704
26.513,0.07411301764701028,-0.07411301764701028
26.514000000000003,0.05518308854969567,-0.05518308854969567
26.515,0.03223043574057183,-0.03223043574057183
26.516,0.006153910676311658,-0.006153910676311658
26.517000000000003,0.021619348832432994,0.021619348832432994
26.518,0.04868575568242961,0.04868575568242961
26.519,0.07168727659498875,0.07168727659498875
26.520000000000003,0.08690080811107093,0.08690080811107093
26.521,0.09124944714918626,0.09124944714918626
26.522,0.08338936745573822,0.08338936745573822
26.523000000000003,0.06444800677424634,0.06444800677424634
26.524,0.038071945630039794,0.038071945630039794
26.525,0.009665002587745608,0.009665002587745608
26.526000000000003,0.015016289566894048,-0.015016289566894048
26.527,0.031494692567898275,-0.031494692567898275
26.528,0.03790158249149911,-0.03790158249149911
26.529000000000003,0.035541318841381675,-0.035541318841381675
26.53,0.028464628105908107,-0.028464628105908107
26.531,0.022152823988005443,-0.022152823988005443
26.532,0.021720978601522334,-0.021720978601522334
26.533,0.030223074093432167,-0.030223074093432167
26.534,0.047619349458433935,-0.047619349458433935
26.535,0.07074815864948292,-0.07074815864948292
26.536,0.09430446923584102,-0.09430446923584102
26.537000000000003,0.11248317327258439,-0.11248317327258439
26.538,0.12072006868672425,-0.12072006868672425
26.539,0.11693862191400273,-0.11693862191400273
26.540000000000003,0.10189712115257965,-0.10189712115257965
26.541,0.07856256803815453,-0.07856256803815453
26.542,0.0507944781650953,-0.0507944781650953
26.543000000000003,0.0218723437067444,-0.0218723437067444
26.544,0.006549485548339007,0.006549485548339007
26.545,0.034647950449912424,0.034647950449912424
26.546000000000003,0.06372043230787172,0.06372043230787172
26.547,0.09485077483518123,0.09485077483518123
26.548,0.12751532572997704,0.12751532572997704
26.549000000000003,0.158751766689474,0.158751766689474
26.55,0.18333144555358993,0.18333144555358993
26.551,0.19500980979006965,0.19500980979006965
26.552000000000003,0.18850860014251247,0.18850860014251247
26.553,0.16156346276316835,0.16156346276316835
26.554,0.11627739744137333,0.11627739744137333
26.555000000000003,0.059202291468876345,0.059202291468876345
26.556,2.2475743967853568e-05,-2.2475743967853568e-05
26.557,0.05114825596390704,-0.05114825596390704
26.558000000000003,0.0861722163989701,-0.0861722163989701
26.559,0.10165045691905761,-0.10165045691905761
26.56,0.09968113189190264,-0.09968113189190264
26.561000000000003,0.08717813461985735,-0.08717813461985735
26.562,0.07361151423406143,-0.07361151423406143
26.563,0.06790678981774412,-0.06790678981774412
26.564,0.07549315158375602,-0.07549315158375602
26.565,0.0964624648671204,-0.0964624648671204
26.566000000000003,0.12544937445308213,-0.12544937445308213
26.567,0.15328152618826962,-0.15328152618826962
26.568,0.1698658064002294,-0.1698658064002294
26.569000000000003,0.16736928629222902,-0.16736928629222902
26.57,0.14266152170981738,-0.14266152170981738
26.571,0.09824001724505904,-0.09824001724505904
26.572000000000003,0.04137589884784876,-0.04137589884784876
26.573,0.018184572273056476,0.018184572273056476
26.574,0.07115046519615809,0.07115046519615809
26.575000000000003,0.11124480624141864,0.11124480624141864
26.576,0.13654455216427697,0.13654455216427697
26.577,0.14920320911836416,0.14920320911836416
26.578000000000003,0.1537380099359289,0.1537380099359289
26.579,0.1545724770669723,0.1545724770669723
26.58,0.15378405037337028,0.15378405037337028
26.581000000000003,0.14992503077916441,0.14992503077916441
26.582,0.13839270595772124,0.13839270595772124
26.583,0.11325956075764276,0.11325956075764276
26.584000000000003,0.06993575612128433,0.06993575612128433
26.585,0.007713242865271974,0.007713242865271974
26.586,0.06875172856738831,-0.06875172856738831
26.587000000000003,0.14962398733673643,-0.14962398733673643
26.588,0.22179744323482808,-0.22179744323482808
26.589,0.2720031128494713,-0.2720031128494713
26.590000000000003,0.2901883179353615,-0.2901883179353615
26.591,0.2721398687381281,-0.2721398687381281
26.592,0.22056398449632952,-0.22056398449632952
26.593000000000004,0.14432876794883898,-0.14432876794883898
26.594,0.05615172692511439,-0.05615172692511439
26.595,0.030518916867930956,0.030518916867930956
26.596,0.104475932869454,0.104475932869454
26.597,0.1587396144179587,0.1587396144179587
26.598000000000003,0.1911021788779319,0.1911021788779319
26.599,0.20327812380904708,0.20327812380904708
26.6,0.19915837103664558,0.19915837103664558
26.601000000000003,0.18290844551460195,0.18290844551460195
26.602,0.1576136114411968,0.1576136114411968
26.603,0.12488686079642353,0.12488686079642353
26.604000000000003,0.0854371538172567,0.0854371538172567
26.605,0.04020638019896161,0.04020638019896161
26.606,0.00853162453773093,-0.00853162453773093
26.607000000000003,0.05668266885822115,-0.05668266885822115
26.608,0.0987634138425898,-0.0987634138425898
26.609,0.1291731519178857,-0.1291731519178857
26.610000000000003,0.14386533191141082,-0.14386533191141082
26.611,0.1417823199809667,-0.1417823199809667
26.612,0.1254644410744583,-0.1254644410744583
26.613000000000003,0.10052130184713692,-0.10052130184713692
26.614,0.07406010190926338,-0.07406010190926338
26.615,0.05255322410712027,-0.05255322410712027
26.616000000000003,0.03985227729769414,-0.03985227729769414
26.617,0.036032209804181314,-0.036032209804181314
26.618,0.037480748657297114,-0.037480748657297114
26.619000000000003,0.03822738592676944,-0.03822738592676944
26.62,0.03208021330427102,-0.03208021330427102
26.621,0.014858598938026768,-0.014858598938026768
26.622000000000003,0.01402567510425512,0.01402567510425512
26.623,0.05116398201818151,0.05116398201818151
26.624,0.09004687144835621,0.09004687144835621
26.625000000000004,0.12294490115970902,0.12294490115970902
26.626,0.14313487302200611,0.14313487302200611
26.627,0.146735194793304,0.146735194793304
26.628,0.133573844261764,0.133573844261764
26.629,0.10686718110798221,0.10686718110798221
26.630000000000003,0.0719076152446032,0.0719076152446032
26.631,0.034291765636951244,0.034291765636951244
26.632,0.001649481736614944,-0.001649481736614944
26.633000000000003,0.03367383808934343,-0.03367383808934343
26.634,0.06147242582165158,-0.06147242582165158
26.635,0.08569762082831978,-0.08569762082831978
26.636000000000003,0.10665685909992073,-0.10665685909992073
26.637,0.12328539715286768,-0.12328539715286768
26.638,0.13289890718122055,-0.13289890718122055
26.639000000000003,0.13191246079157137,-0.13191246079157137
26.64,0.11731238451098791,-0.11731238451098791
26.641,0.08833279835526642,-0.08833279835526642
26.642000000000003,0.047650094813331934,-0.047650094813331934
26.643,0.0015279006040358478,-0.0015279006040358478
26.644,0.04130954194343772,0.04130954194343772
26.645000000000003,0.07184246304456066,0.07184246304456066
26.646,0.08332242626816777,0.08332242626816777
26.647,0.07340195002121641,0.07340195002121641
26.648000000000003,0.04507079335435571,0.04507079335435571
26.649,0.005997038608540395,0.005997038608540395
26.65,0.03361361524199902,-0.03361361524199902
26.651000000000003,0.0640218024783763,-0.0640218024783763
26.652,0.07888267081329248,-0.07888267081329248
26.653,0.07714102051478011,-0.07714102051478011
26.654000000000003,0.06323849495827683,-0.06323849495827683
26.655,0.04551102041455146,-0.04551102041455146
26.656,0.03324794215100746,-0.03324794215100746
26.657,0.033341947115681614,-0.033341947115681614
26.658,0.047625156209282316,-0.047625156209282316
26.659,0.0717988658820341,-0.0717988658820341
26.66,0.09637505608642583,-0.09637505608642583
26.661,0.10940980346676143,-0.10940980346676143
26.662000000000003,0.10022623960525912,-0.10022623960525912
26.663,0.06298673037081137,-0.06298673037081137
26.664,0.0010073543662991735,0.0010073543662991735
26.665000000000003,0.08303644190090709,0.08303644190090709
26.666,0.16883991030931877,0.16883991030931877
26.667,0.24212680750469517,0.24212680750469517
26.668000000000003,0.2887000999671332,0.2887000999671332
26.669,0.2999940902644682,0.2999940902644682
26.67,0.2750153447696464,0.2750153447696464
26.671000000000003,0.22017529791290014,0.22017529791290014
26.672,0.1471473781819166,0.1471473781819166
26.673,0.06946879435165654,0.06946879435165654
26.674000000000003,0.0010453558664451634,-0.0010453558664451634
26.675,0.0570029577168627,-0.0570029577168627
26.676,0.09650729019335236,-0.09650729019335236
26.677000000000003,0.1224069014273742,-0.1224069014273742
26.678,0.14011707093781034,-0.14011707093781034
26.679,0.15484523053043675,-0.15484523053043675
26.680000000000003,0.16920543970234458,-0.16920543970234458
26.681,0.18203400345994747,-0.18203400345994747
26.682,0.18878522048390844,-0.18878522048390844
26.683000000000003,0.18334069102490802,-0.18334069102490802
26.684,0.16058757955471425,-0.16058757955471425
26.685,0.11886428174339814,-0.11886428174339814
26.686000000000003,0.06141453799389884,-0.06141453799389884
26.687,0.003686697437923492,0.003686697437923492
26.688,0.06517949352414076,0.06517949352414076
26.689,0.11137864483402327,0.11137864483402327
26.69,0.13323573719205162,0.13323573719205162
26.691000000000003,0.1267976971475533,0.1267976971475533
26.692,0.09434188201203209,0.09434188201203209
26.693,0.0438684889213099,0.0438684889213099
26.694000000000003,0.012884097056991672,-0.012884097056991672
26.695,0.06331792828786431,-0.06331792828786431
26.696,0.09693855370530702,-0.09693855370530702
26.697000000000003,0.10761574047785138,-0.10761574047785138
26.698,0.09460497149194047,-0.09460497149194047
26.699,0.06217897574526332,-0.06217897574526332
26.700000000000003,0.018114273089992805,-0.018114273089992805
26.701,0.028436986561126476,0.028436986561126476
26.702,0.06906038154243621,0.06906038154243621
26.703000000000003,0.09764557254943429,0.09764557254943429
26.704,0.11111447330599833,0.11111447330599833
26.705,0.10931129633014436,0.10931129633014436
26.706000000000003,0.09429625374653572,0.09429625374653572
26.707,0.06940487983572585,0.06940487983572585
26.708,0.038411215853750624,0.038411215853750624
26.709000000000003,0.004995862162853415,0.004995862162853415
26.71,0.027463214824532622,-0.027463214824532622
26.711,0.05591104271103864,-0.05591104271103864
26.712000000000003,0.07764408071438689,-0.07764408071438689
26.713,0.0905002132298317,-0.0905002132298317
26.714,0.09324056302539119,-0.09324056302539119
26.715000000000003,0.08600879137368378,-0.08600879137368378
26.716,0.07065369676599376,-0.07065369676599376
26.717,0.05069333860348246,-0.05069333860348246
26.718000000000004,0.03079382922987628,-0.03079382922987628
26.719,0.015802057293023086,-0.015802057293023086
26.72,0.009547736949951813,-0.009547736949951813
26.721,0.01374826963499709,-0.01374826963499709
26.722,0.027360818311389368,-0.027360818311389368
26.723000000000003,0.046618412415688315,-0.046618412415688315
26.724,0.06579236182995407,-0.06579236182995407
26.725,0.07850541038841963,-0.07850541038841963
26.726000000000003,0.07925208244316895,-0.07925208244316895
26.727,0.06472111765545518,-0.06472111765545518
26.728,0.034579505233041985,-0.034579505233041985
26.729000000000003,0.008455420971129612,0.008455420971129612
26.73,0.059218522661789175,0.059218522661789175
26.731,0.11115361484698538,0.11115361484698538
26.732000000000003,0.15750752437208826,0.15750752437208826
26.733,0.19235997212966693,0.19235997212966693
26.734,0.21129886349440263,0.21129886349440263
26.735000000000003,0.21170687473294247,0.21170687473294247
26.736,0.19276259434879162,0.19276259434879162
26.737,0.15532517093883258,0.15532517093883258
26.738000000000003,0.10184462995400523,0.10184462995400523
26.739,0.03633977178510639,0.03633977178510639
26.74,0.035637235276705814,-0.035637235276705814
26.741000000000003,0.10721387937271076,-0.10721387937271076
26.742,0.1707492639739595,-0.1707492639739595
26.743,0.2187855148424348,-0.2187855148424348
26.744000000000003,0.2452920400592884,-0.2452920400592884
26.745,0.24692721571752974,-0.24692721571752974
26.746,0.22394529135949448,-0.22394529135949448
26.747000000000003,0.1804052069092188,-0.1804052069092188
26.748,0.12350238888690312,-0.12350238888690312
26.749,0.06210204759879945,-0.06210204759879945
26.750000000000004,0.00481962568289418,-0.00481962568289418
26.751,0.04182567021618544,0.04182567021618544
26.752,0.07463935744523087,0.07463935744523087
26.753,0.09398231635697618,0.09398231635697618
26.754,0.10293080903139029,0.10293080903139029
26.755000000000003,0.10564577695115185,0.10564577695115185
26.756,0.10550922605629398,0.10550922605629398
26.757,0.10368604100859136,0.10368604100859136
26.758000000000003,0.09864581319424293,0.09864581319424293
26.759,0.08686045866911396,0.08686045866911396
26.76,0.06447946447191621,0.06447946447191621
26.761000000000003,0.029415191106342053,0.029415191106342053
26.762,0.016921660225948765,-0.016921660225948765
26.763,0.06893302355792419,-0.06893302355792419
26.764000000000003,0.11757466424237417,-0.11757466424237417
26.765,0.1524421196159934,-0.1524421196159934
26.766,0.1646426935258679,-0.1646426935258679
26.767000000000003,0.1495797356031182,-0.1495797356031182
26.768,0.10873490587528534,-0.10873490587528534
26.769,0.04979685383695154,-0.04979685383695154
26.770000000000003,0.015021901523415648,0.015021901523415648
26.771,0.07206757911110562,0.07206757911110562
26.772,0.10985268445142449,0.10985268445142449
26.773000000000003,0.12211608682112662,0.12211608682112662
26.774,0.10940305848514709,0.10940305848514709
26.775,0.07867396860335729,0.07867396860335729
26.776000000000003,0.041056401765504624,0.041056401765504624
26.777,0.008432788106781164,0.008432788106781164
26.778,0.01008306499516165,-0.01008306499516165
26.779000000000003,0.010700509833957317,-0.010700509833957317
26.78,0.004224493485349257,0.004224493485349257
26.781,0.027299985434689367,0.027299985434689367
26.782,0.048727817825297226,0.048727817825297226
26.783,0.05956314287950715,0.05956314287950715
26.784,0.05453636334172951,0.05453636334172951
26.785,0.03354432799694207,0.03354432799694207
26.786,0.001380940261415109,0.001380940261415109
26.787000000000003,0.03412782872442344,-0.03412782872442344
26.788,0.06489333506515971,-0.06489333506515971
26.789,0.08526404585367275,-0.08526404585367275
26.790000000000003,0.09373308854483176,-0.09373308854483176
26.791,0.09309373936703946,-0.09309373936703946
26.792,0.08902957450732885,-0.08902957450732885
26.793000000000003,0.08766815811840756,-0.08766815811840756
26.794,0.09298066301350083,-0.09298066301350083
26.795,0.10495687069696091,-0.10495687069696091
26.796000000000003,0.11921334480097134,-0.11921334480097134
26.797,0.12819842846553808,-0.12819842846553808
26.798,0.12361159607938876,-0.12361159607938876
26.799000000000003,0.09924237064650376,-0.09924237064650376
26.8,0.05329309524343395,-0.05329309524343395
26.801,0.010576345422904643,0.010576345422904643
26.802000000000003,0.08381931051327807,0.08381931051327807
26.803,0.15499879328958,0.15499879328958
26.804,0.21256859468182943,0.21256859468182943
26.805000000000003,0.24757306426319015,0.24757306426319015
26.806,0.2554678323418045,0.2554678323418045
26.807,0.23659299524605237,0.23659299524605237
26.808000000000003,0.1952979729633062,0.1952979729633062
26.809,0.13815824479124328,0.13815824479124328
26.81,0.0719875506997334,0.0719875506997334
26.811000000000003,0.0023508473887350334,0.0023508473887350334
26.812,0.06696628867800669,-0.06696628867800669
26.813,0.13347810264472748,-0.13347810264472748
26.814,0.1948590632523144,-0.1948590632523144
26.815,0.24775221883885334,-0.24775221883885334
26.816000000000003,0.28715289556628476,-0.28715289556628476
26.817,0.30677091681305246,-0.30677091681305246
26.818,0.30038978080636614,-0.30038978080636614
26.819000000000003,0.26383676292291736,-0.26383676292291736
26.82,0.19690166454740032,-0.19690166454740032
26.821,0.1044963746273222,-0.1044963746273222
26.822000000000003,0.00344662571869514,0.00344662571869514
26.823,0.11344909036939388,0.11344909036939388
26.824,0.21100667136341134,0.21100667136341134
26.825000000000003,0.2834833991622625,0.2834833991622625
26.826,0.3225846127547958,0.3225846127547958
26.827,0.32574233078182147,0.32574233078182147
26.828000000000003,0.2960877247489506,0.2960877247489506
26.829,0.24111923649785405,0.24111923649785405
26.83,0.17055570498067696,0.17055570498067696
26.831000000000003,0.09406717555570343,0.09406717555570343
26.832,0.019541682334976773,0.019541682334976773
26.833,0.04770243267259788,-0.04770243267259788
26.834000000000003,0.10471562310505744,-0.10471562310505744
26.835,0.15003494296840203,-0.15003494296840203
26.836,0.18263865186696948,-0.18263865186696948
26.837000000000003,0.20125784088472043,-0.20125784088472043
26.838,0.20436697260213987,-0.20436697260213987
26.839,0.19085753857860976,-0.19085753857860976
26.840000000000003,0.16108533084324628,-0.16108533084324628
26.841,0.11779239771910521,-0.11779239771910521
26.842,0.06641310273884549,-0.06641310273884549
26.843000000000004,0.01447991641802171,-0.01447991641802171
26.844,0.029824750132291467,0.029824750132291467
26.845,0.059589737598733095,0.059589737598733095
26.846,0.070974197613759,0.070974197613759
26.847,0.06427884071714263,0.06427884071714263
26.848000000000003,0.04388871977713493,0.04388871977713493
26.849,0.017042571131703266,0.017042571131703266
26.85,0.008229691804497175,-0.008229691804497175
26.851000000000003,0.02537551704092378,-0.02537551704092378
26.852,0.031086914434850565,-0.031086914434850565
26.853,0.026012148850227623,-0.026012148850227623
26.854000000000003,0.014197739750337002,-0.014197739750337002
26.855,0.0014610755513005946,-0.0014610755513005946
26.856,0.006755641458530137,0.006755641458530137
26.857000000000003,0.0073309020549572335,0.0073309020549572335
26.858,0.0005599912365201742,0.0005599912365201742
26.859,0.009961216869499911,-0.009961216869499911
26.860000000000003,0.0186216957670019,-0.0186216957670019
26.861,0.019816399791664163,-0.019816399791664163
26.862,0.010024400296701375,-0.010024400296701375
26.863000000000003,0.010753947628501681,0.010753947628501681
26.864,0.03868738282047568,0.03868738282047568
26.865,0.06704801901020363,0.06704801901020363
26.866000000000003,0.08810054482032736,0.08810054482032736
26.867,0.09535056357348903,0.09535056357348903
26.868,0.08544712423069645,0.08544712423069645
26.869000000000003,0.059155112432922374,0.059155112432922374
26.87,0.021119396998073192,0.021119396998073192
26.871,0.021469844041853592,-0.021469844041853592
26.872000000000003,0.06086087351319924,-0.06086087351319924
26.873,0.09073987942374173,-0.09073987942374173
26.874,0.10764064133206741,-0.10764064133206741
26.875000000000004,0.11138115550928318,-0.11138115550928318
26.876,0.10448016179929764,-0.10448016179929764
26.877,0.09084077390811318,-0.09084077390811318
26.878,0.07420973536582698,-0.07420973536582698
26.879,0.056959941359427835,-0.056959941359427835
26.880000000000003,0.03959523576912238,-0.03959523576912238
26.881,0.02109814051453096,-0.02109814051453096
26.882,6.689293401840324e-05,6.689293401840324e-05
26.883000000000003,0.024713082891362648,0.024713082891362648
26.884,0.05194883380157678,0.05194883380157678
26.885,0.07884852235696949,0.07884852235696949
26.886000000000003,0.10093464832532972,0.10093464832532972
26.887,0.11333956321926175,0.11333956321926175
26.888,0.11227325367081131,0.11227325367081131
26.889000000000003,0.09631190141607893,0.09631190141607893
26.89,0.06707569405613345,0.06707569405613345
26.891,0.02906201139894815,0.02906201139894815
26.892000000000003,0.011328103580763194,-0.011328103580763194
26.893,0.04727911250078076,-0.04727911250078076
26.894,0.07312360793483963,-0.07312360793483963
26.895000000000003,0.08553320755387961,-0.08553320755387961
26.896,0.08403183611905407,-0.08403183611905407
26.897,0.07075350713468997,-0.07075350713468997
26.898000000000003,0.04960223113712292,-0.04960223113712292
26.899,0.025135262124654556,-0.025135262124654556
26.9,0.001532409795385603,-0.001532409795385603
26.901000000000003,0.018070892601815602,0.018070892601815602
26.902,0.031779926492045085,0.031779926492045085
26.903,0.038746913085999424,0.038746913085999424
26.904000000000003,0.03879992506940644,0.03879992506940644
26.905,0.03213758801982047,0.03213758801982047
26.906,0.019255376587863138,0.019255376587863138
26.907,0.0011215031515716678,0.0011215031515716678
26.908,0.020532997165789046,-0.020532997165789046
26.909,0.043037030049027813,-0.043037030049027813
26.91,0.0629288176413223,-0.0629288176413223
26.911,0.07652613346819748,-0.07652613346819748
26.912000000000003,0.08082853640726229,-0.08082853640726229
26.913,0.07448785271716607,-0.07448785271716607
26.914,0.05849083700853597,-0.05849083700853597
26.915000000000003,0.03623620393097593,-0.03623620393097593
26.916,0.012858257037023146,-0.012858257037023146
26.917,0.006098472512952702,0.006098472512952702
26.918000000000003,0.01630049908875497,0.01630049908875497
26.919,0.01603696436445956,0.01603696436445956
26.92,0.006925526431035944,0.006925526431035944
26.921000000000003,0.006398482769636282,-0.006398482769636282
26.922,0.017608677927314464,-0.017608677927314464
26.923,0.020687299782632396,-0.020687299782632396
26.924000000000003,0.011999086175745188,-0.011999086175745188
26.925,0.008235631130277588,0.008235631130277588
26.926,0.03560025290389124,0.03560025290389124
26.927000000000003,0.06247525718683122,0.06247525718683122
26.928,0.08014817547881004,0.08014817547881004
26.929,0.08144826714279474,0.08144826714279474
26.930000000000003,0.06310962226097261,0.06310962226097261
26.931,0.027107915053221632,0.027107915053221632
26.932,0.01949867301708852,-0.01949867301708852
26.933000000000003,0.06624690667267064,-0.06624690667267064
26.934,0.10201637728854318,-0.10201637728854318
26.935,0.11805607846662025,-0.11805607846662025
26.936000000000003,0.11039424105074835,-0.11039424105074835
26.937,0.08091063108465202,-0.08091063108465202
26.938,0.03675244384690668,-0.03675244384690668
26.939,0.011721157850643316,0.011721157850643316
26.94,0.05383456112042939,0.05383456112042939
26.941000000000003,0.08145350705874499,0.08145350705874499
26.942,0.0909586134218423,0.0909586134218423
26.943,0.08378471020994338,0.08378471020994338
26.944000000000003,0.06543974262531527,0.06543974262531527
26.945,0.04339545983764692,0.04339545983764692
26.946,0.024579943942432125,0.024579943942432125
26.947000000000003,0.013292162427846144,0.013292162427846144
26.948,0.010177741689333164,0.010177741689333164
26.949,0.012520406977694076,0.012520406977694076
26.950000000000003,0.01564953772578015,0.01564953772578015
26.951,0.014896491714242233,0.014896491714242233
26.952,0.007373973537573741,0.007373973537573741
26.953000000000003,0.007047120368576576,-0.007047120368576576
26.954,0.02587145764547716,-0.02587145764547716
26.955,0.045113378761623135,-0.045113378761623135
26.956000000000003,0.06095264797266553,-0.06095264797266553
26.957,0.07124646909134047,-0.07124646909134047
26.958,0.07629423026479498,-0.07629423026479498
26.959000000000003,0.07853956036046572,-0.07853956036046572
26.96,0.08130491505105886,-0.08130491505105886
26.961,0.08703795523209557,-0.08703795523209557
26.962000000000003,0.0957644983213849,-0.0957644983213849
26.963,0.10440567892074837,-0.10440567892074837
26.964,0.10733179652626812,-0.10733179652626812
26.965000000000003,0.09808582790262055,-0.09808582790262055
26.966,0.07176743308456457,-0.07176743308456457
26.967,0.02728129402588919,-0.02728129402588919
26.968000000000004,0.031369351758234965,0.031369351758234965
26.969,0.09530136450282312,0.09530136450282312
26.97,0.15257036496628462,0.15257036496628462
26.971,0.1911505661331645,0.1911505661331645
26.972,0.2022280890712711,0.2022280890712711
26.973000000000003,0.18280956130197112,0.18280956130197112
26.974,0.13681380868001192,0.13681380868001192
26.975,0.07425205325808104,0.07425205325808104
26.976000000000003,0.00867657744386685,0.00867657744386685
26.977,0.046391660187915074,-0.046391660187915074
26.978,0.08102788814841466,-0.08102788814841466
26.979000000000003,0.091427753330935,-0.091427753330935
26.98,0.08066808470353026,-0.08066808470353026
26.981,0.057508219651262515,-0.057508219651262515
26.982000000000003,0.03361433055356389,-0.03361433055356389
26.983,0.02004106706295128,-0.02004106706295128
26.984,0.023995956920103367,-0.023995956920103367
26.985000000000003,0.046793264812023505,-0.046793264812023505
26.986,0.08352395015923697,-0.08352395015923697
26.987,0.12445393385209902,-0.12445393385209902
26.988000000000003,0.15767573459176776,-0.15767573459176776
26.989,0.17222225826344995,-0.17222225826344995
26.99,0.16078747789141878,-0.16078747789141878
26.991000000000003,0.12138455395764025,-0.12138455395764025
26.992,0.057628499360126595,-0.057628499360126595
26.993,0.02226661214502701,0.02226661214502701
26.994000000000003,0.10736246831479801,0.10736246831479801
26.995,0.18617244184530257,0.18617244184530257
26.996,0.24859909784551526,0.24859909784551526
26.997000000000003,0.28727311175712655,0.28727311175712655
26.998,0.298177104881699,0.298177104881699
26.999,0.2806537421843289,0.2806537421843289
27.000000000000004,0.23701824573441876,0.23701824573441876
27.001,0.17200018436787912,0.17200018436787912
27.002,0.092155007351864,0.092155007351864
27.003,0.005270960091428911,0.005270960091428911
27.004,0.08028513807920468,-0.08028513807920468
27.005000000000003,0.1563485242820133,-0.1563485242820133
27.006,0.2158617396999416,-0.2158617396999416
27.007,0.25379506627648474,-0.25379506627648474
27.008000000000003,0.26788095398424117,-0.26788095398424117
27.009,0.258937873175898,-0.258937873175898
27.01,0.23062922442922473,-0.23062922442922473
27.011000000000003,0.188652190210724,-0.188652190210724
27.012,0.13952945392226945,-0.13952945392226945
27.013,0.08931629264041219,-0.08931629264041219
27.014000000000003,0.042578829604609014,-0.042578829604609014
27.015,0.0019215063042152813,-0.0019215063042152813
27.016,0.03183681386278758,0.03183681386278758
27.017000000000003,0.05895870380905577,0.05895870380905577
27.018,0.07985963484850012,0.07985963484850012
27.019,0.09433639414833728,0.09433639414833728
27.020000000000003,0.10127372424205516,0.10127372424205516
27.021,0.09896950165379592,0.09896950165379592
27.022,0.08597883670069639,0.08597883670069639
27.023000000000003,0.06216425428174022,0.06216425428174022
27.024,0.029531681831154843,0.029531681831154843
27.025,0.007526039977878374,-0.007526039977878374
27.026000000000003,0.0427734991472325,-0.0427734991472325
27.027,0.06939543221529498,-0.06939543221529498
27.028,0.08165131573918016,-0.08165131573918016
27.029000000000003,0.07643573164630335,-0.07643573164630335
27.03,0.0542544618345604,-0.0542544618345604
27.031,0.019284139032124226,-0.019284139032124226
27.032,0.021545569765864858,0.021545569765864858
27.033,0.06021092574772302,0.06021092574772302
27.034,0.0895306402433147,0.0895306402433147
27.035,0.10483236569530185,0.10483236569530185
27.036,0.10488678736110346,0.10488678736110346
27.037000000000003,0.09187229433214417,0.09187229433214417
27.038,0.07042523519669364,0.07042523519669364
27.039,0.04609684903793165,0.04609684903793165
27.040000000000003,0.02369696411768385,0.02369696411768385
27.041,0.0060124501352254445,0.0060124501352254445
27.042,0.006749445674464227,-0.006749445674464227
27.043000000000003,0.016676127479943847,-0.016676127479943847
27.044,0.027158921851793694,-0.027158921851793694
27.045,0.04152794576643071,-0.04152794576643071
27.046000000000003,0.06172962799796611,-0.06172962799796611
27.047,0.08742511527640862,-0.08742511527640862
27.048,0.11574809037636813,-0.11574809037636813
27.049000000000003,0.14177014069875415,-0.14177014069875415
27.05,0.15953862866578217,-0.15953862866578217
27.051,0.16342296821101387,-0.16342296821101387
27.052000000000003,0.1494541787992909,-0.1494541787992909
27.053,0.11636794670895212,-0.11636794670895212
27.054,0.06614249961384056,-0.06614249961384056
27.055000000000003,0.003930978127096085,-0.003930978127096085
27.056,0.06260161092124283,0.06260161092124283
27.057,0.12443029474598033,0.12443029474598033
27.058000000000003,0.17262843955663776,0.17262843955663776
27.059,0.1998969137235298,0.1998969137235298
27.06,0.20190179359299498,0.20190179359299498
27.061000000000003,0.17816569862323228,0.17816569862323228
27.062,0.13230937410362253,0.13230937410362253
27.063,0.07154114882260543,0.07154114882260543
27.064,0.0054351404449490825,0.0054351404449490825
27.065,0.05579995920251457,-0.05579995920251457
27.066000000000003,0.1032205404946327,-0.1032205404946327
27.067,0.13080223204677666,-0.13080223204677666
27.068,0.13646165992335058,-0.13646165992335058
27.069000000000003,0.12219419380888108,-0.12219419380888108
27.07,0.09329387685850354,-0.09329387685850354
27.071,0.05686547913065165,-0.05686547913065165
27.072000000000003,0.020035853355020006,-0.020035853355020006
27.073,0.011642678815814378,0.011642678815814378
27.074,0.035164837962356366,0.035164837962356366
27.075000000000003,0.050184377527236146,0.050184377527236146
27.076,0.05830262919036833,0.05830262919036833
27.077,0.0618350253140707,0.0618350253140707
27.078000000000003,0.0625234710364857,0.0625234710364857
27.079,0.060671273324285346,0.060671273324285346
27.08,0.05502048503999135,0.05502048503999135
27.081000000000003,0.043418297204500966,0.043418297204500966
27.082,0.024021881951824975,0.024021881951824975
27.083,0.003425152707345558,-0.003425152707345558
27.084000000000003,0.03676573983475229,-0.03676573983475229
27.085,0.07143782719107339,-0.07143782719107339
27.086,0.1014192875864045,-0.1014192875864045
27.087000000000003,0.12086950145822317,-0.12086950145822317
27.088,0.12595076852107467,-0.12595076852107467
27.089,0.11620202255380374,-0.11620202255380374
27.090000000000003,0.0949422401955109,-0.0949422401955109
27.091,0.0684772179554044,-0.0684772179554044
27.092,0.044278489280638045,-0.044278489280638045
27.093000000000004,0.028665483405413084,-0.028665483405413084
27.094,0.024725068254076277,-0.024725068254076277
27.095,0.031168906575015032,-0.031168906575015032
27.096,0.042558745957831046,-0.042558745957831046
27.097,0.05090337261884126,-0.05090337261884126
27.098000000000003,0.04818456694497364,-0.04818456694497364
27.099,0.029050178125040516,-0.029050178125040516
27.1,0.007170692119522926,0.007170692119522926
27.101000000000003,0.05578917555321228,0.05578917555321228
27.102,0.1076728686639119,0.1076728686639119
27.103,0.151525722646084,0.151525722646084
27.104000000000003,0.1768789430551181,0.1768789430551181
27.105,0.1769209818468549,0.1769209818468549
27.106,0.15034666959694643,0.15034666959694643
27.107000000000003,0.10170952799011768,0.10170952799011768
27.108,0.040217074865122715,0.040217074865122715
27.109,0.02263078447720368,-0.02263078447720368
27.110000000000003,0.07584048096106644,-0.07584048096106644
27.111,0.1113569825448889,-0.1113569825448889
27.112,0.12549338403790122,-0.12549338403790122
27.113000000000003,0.11907395551446176,-0.11907395551446176
27.114,0.0964195489441495,-0.0964195489441495
27.115,0.06364028163421798,-0.06364028163421798
27.116000000000003,0.02685529112621232,-0.02685529112621232
27.117,0.009104372167465735,0.009104372167465735
27.118,0.04119702612424425,0.04119702612424425
27.119000000000003,0.06788793165329565,0.06788793165329565
27.12,0.08838105761381798,0.08838105761381798
27.121,0.101810283358994,0.101810283358994
27.122000000000003,0.10680007510416845,0.10680007510416845
27.123,0.10161232363748618,0.10161232363748618
27.124,0.08482588261013713,0.08482588261013713
27.125000000000004,0.056254956186583494,0.056254956186583494
27.126,0.01769381144072213,0.01769381144072213
27.127,0.02687771134867334,-0.02687771134867334
27.128,0.07179989536316533,-0.07179989536316533
27.129,0.11085598381770678,-0.11085598381770678
27.130000000000003,0.13868009091822542,-0.13868009091822542
27.131,0.15199797346674893,-0.15199797346674893
27.132,0.15029204596878154,-0.15029204596878154
27.133000000000003,0.1356747532580942,-0.1356747532580942
27.134,0.11202680368181073,-0.11202680368181073
27.135,0.08371008663945512,-0.08371008663945512
27.136000000000003,0.054307486522062076,-0.054307486522062076
27.137,0.025821683557838093,-0.025821683557838093
27.138,0.0014102362869685692,0.0014102362869685692
27.139000000000003,0.02809641889198211,0.02809641889198211
27.14,0.054936021943153834,0.054936021943153834
27.141,0.08156499215927937,0.08156499215927937
27.142000000000003,0.10593891432660185,0.10593891432660185
27.143,0.1244327311712714,0.1244327311712714
27.144,0.132675300217302,0.132675300217302
27.145000000000003,0.1268639247380432,0.1268639247380432
27.146,0.10511790500506679,0.10511790500506679
27.147,0.06839787847617029,0.06839787847617029
27.148000000000003,0.020651864978785017,0.020651864978785017
27.149,0.03189672349113182,-0.03189672349113182
27.15,0.08211788815749543,-0.08211788815749543
27.151000000000003,0.12358140938034667,-0.12358140938034667
27.152,0.15190683331351018,-0.15190683331351018
27.153,0.16545674023600865,-0.16545674023600865
27.154000000000003,0.1652008735758802,-0.1652008735758802
27.155,0.1538604217302545,-0.1538604217302545
27.156,0.13467877744477974,-0.13467877744477974
27.157,0.110275680769655,-0.110275680769655
27.158,0.08198920696867074,-0.08198920696867074
27.159,0.04991560216442248,-0.04991560216442248
27.16,0.013591192479691316,-0.013591192479691316
27.161,0.026981360460557546,0.026981360460557546
27.162000000000003,0.07039230200629665,0.07039230200629665
27.163,0.11337487627977194,0.11337487627977194
27.164,0.15107913305569487,0.15107913305569487
27.165000000000003,0.17804254314148116,0.17804254314148116
27.166,0.1895748087740201,0.1895748087740201
27.167,0.18311264334811383,0.18311264334811383
27.168000000000003,0.159090170718708,0.159090170718708
27.169,0.12101690083133687,0.12101690083133687
27.17,0.07470890376030037,0.07470890376030037
27.171000000000003,0.026893816864334452,0.026893816864334452
27.172,0.016386596299124978,-0.016386596299124978
27.173,0.051090030166341505,-0.051090030166341505
27.174000000000003,0.07581554489361542,-0.07581554489361542
27.175,0.09161140244687604,-0.09161140244687604
27.176,0.10106195480084612,-0.10106195480084612
27.177000000000003,0.106999203685469,-0.106999203685469
27.178,0.1112964715870024,-0.1112964715870024
27.179,0.11415678221505798,-0.11415678221505798
27.180000000000003,0.11412454705409325,-0.11412454705409325
27.181,0.10879055693936424,-0.10879055693936424
27.182,0.09591638369596522,-0.09591638369596522
27.183000000000003,0.07455861119062401,-0.07455861119062401
27.184,0.045775199505044495,-0.045775199505044495
27.185,0.012644353599245317,-0.012644353599245317
27.186000000000003,0.02043095571495379,0.02043095571495379
27.187,0.04890613694246082,0.04890613694246082
27.188,0.06936268361829168,0.06936268361829168
27.189,0.08041992196131953,0.08041992196131953
27.19,0.08296664437856371,0.08296664437856371
27.191000000000003,0.07962086949405789,0.07962086949405789
27.192,0.07359640886274521,0.07359640886274521
27.193,0.06737101324934636,0.06737101324934636
27.194000000000003,0.061636749034348126,0.061636749034348126
27.195,0.05493533852793586,0.05493533852793586
27.196,0.04416025583855765,0.04416025583855765
27.197000000000003,0.02581277281482408,0.02581277281482408
27.198,0.002372987673356808,-0.002372987673356808
27.199,0.03997876354955898,-0.03997876354955898
27.200000000000003,0.08315353460652075,-0.08315353460652075
27.201,0.12490755315408997,-0.12490755315408997
27.202,0.15647820052514405,-0.15647820052514405
27.203000000000003,0.16945825306956552,-0.16945825306956552
27.204,0.1581167744229599,-0.1581167744229599
27.205,0.12124532671033872,-0.12124532671033872
27.206000000000003,0.06296359551246489,-0.06296359551246489
27.207,0.007805893977580913,0.007805893977580913
27.208,0.07911351012079759,0.07911351012079759
27.209000000000003,0.13857184982454296,0.13857184982454296
27.21,0.17608661776316947,0.17608661776316947
27.211,0.18601407028386086,0.18601407028386086
27.212000000000003,0.16819279555125033,0.16819279555125033
27.213,0.1276173773521101,0.1276173773521101
27.214,0.07290246172760373,0.07290246172760373
27.215000000000003,0.014014345297689967,0.014014345297689967
27.216,0.04007299589862101,-0.04007299589862101
27.217,0.08315936320347528,-0.08315936320347528
27.218000000000004,0.11260513447460307,-0.11260513447460307
27.219,0.12901570550488717,-0.12901570550488717
27.22,0.13505538953828233,-0.13505538953828233
27.221,0.133871713278353,-0.133871713278353
27.222,0.12769539218532855,-0.12769539218532855
27.223000000000003,0.11708041538996938,-0.11708041538996938
27.224,0.10100163414172492,-0.10100163414172492
27.225,0.07771891087637695,-0.07771891087637695
27.226000000000003,0.04604991556087268,-0.04604991556087268
27.227,0.006555043273520522,-0.006555043273520522
27.228,0.03782899411116025,0.03782899411116025
27.229000000000003,0.08197938332955346,0.08197938332955346
27.23,0.11959051617250438,0.11959051617250438
27.231,0.14469956761057134,0.14469956761057134
27.232000000000003,0.15325982782123893,0.15325982782123893
27.233,0.14426055910616453,0.14426055910616453
27.234,0.12003063134922143,0.12003063134922143
27.235000000000003,0.0856205080759056,0.0856205080759056
27.236,0.04744823443650481,0.04744823443650481
27.237,0.011624609564002686,0.011624609564002686
27.238000000000003,0.01753327933802107,-0.01753327933802107
27.239,0.03836107661233623,-0.03836107661233623
27.24,0.051848206000297825,-0.051848206000297825
27.241000000000003,0.06082701876796359,-0.06082701876796359
27.242,0.06864961299491545,-0.06864961299491545
27.243,0.07780099664943407,-0.07780099664943407
27.244000000000003,0.0888971633616823,-0.0888971633616823
27.245,0.100372891457434,-0.100372891457434
27.246,0.10892923818528644,-0.10892923818528644
27.247000000000003,0.1105653351079876,-0.1105653351079876
27.248,0.10184379798213528,-0.10184379798213528
27.249,0.08098741104916818,-0.08098741104916818
27.250000000000004,0.048486276415443896,-0.048486276415443896
27.251,0.0070735365940365336,-0.0070735365940365336
27.252,0.03886270012356219,0.03886270012356219
27.253,0.08419666101030288,0.08419666101030288
27.254,0.12400620506197346,0.12400620506197346
27.255000000000003,0.1542746975703777,0.1542746975703777
27.256,0.17221908293147092,0.17221908293147092
27.257,0.17627046644890565,0.17627046644890565
27.258000000000003,0.16586181392644228,0.16586181392644228
27.259,0.14122506424582237,0.14122506424582237
27.26,0.10335244631281437,0.10335244631281437
27.261000000000003,0.0541579796947953,0.0541579796947953
27.262,0.0032624616531462536,-0.0032624616531462536
27.263,0.06447006839808223,-0.06447006839808223
27.264000000000003,0.12382816812468667,-0.12382816812468667
27.265,0.17507307217600965,-0.17507307217600965
27.266,0.21227372020780977,-0.21227372020780977
27.267000000000003,0.23097505740870017,-0.23097505740870017
27.268,0.22920646069513484,-0.22920646069513484
27.269,0.2080268904452901,-0.2080268904452901
27.270000000000003,0.17138635259968138,-0.17138635259968138
27.271,0.12527956787665262,-0.12527956787665262
27.272,0.07638935341537867,-0.07638935341537867
27.273000000000003,0.030588504440538733,-0.030588504440538733
27.274,0.008271583798820537,0.008271583798820537
27.275,0.03893476663329154,0.03893476663329154
27.276000000000003,0.0625188140296491,0.0625188140296491
27.277,0.08158878338947284,0.08158878338947284
27.278,0.09883615751534558,0.09883615751534558
27.279000000000003,0.11579670372821593,0.11579670372821593
27.28,0.13202267936400514,0.13202267936400514
27.281,0.1449749830687268,0.1449749830687268
27.282,0.15066867295296826,0.15066867295296826
27.283,0.14486784538465214,0.14486784538465214
27.284,0.12445996541180437,0.12445996541180437
27.285,0.08859604667558774,0.08859604667558774
27.286,0.03926984767782238,0.03926984767782238
27.287000000000003,0.018808890543330237,-0.018808890543330237
27.288,0.07898017921416955,-0.07898017921416955
27.289,0.13380019823371947,-0.13380019823371947
27.290000000000003,0.17629110391443326,-0.17629110391443326
27.291,0.2009858172970732,-0.2009858172970732
27.292,0.20459246460510838,-0.20459246460510838
27.293000000000003,0.1862488101833798,-0.1862488101833798
27.294,0.14745685747410076,-0.14745685747410076
27.295,0.09183933400414701,-0.09183933400414701
27.296000000000003,0.024832259990338335,-0.024832259990338335
27.297,0.0466549756136887,0.0466549756136887
27.298,0.11467120081790716,0.11467120081790716
27.299000000000003,0.17085351425989814,0.17085351425989814
27.3,0.2073349288959596,0.2073349288959596
27.301,0.21790638108562876,0.21790638108562876
27.302000000000003,0.19926817042506806,0.19926817042506806
27.303,0.15208243270779032,0.15208243270779032
27.304,0.08149107537636202,0.08149107537636202
27.305000000000003,0.0031720797525531808,-0.0031720797525531808
27.306,0.08957383309451117,-0.08957383309451117
27.307,0.16434136608879346,-0.16434136608879346
27.308000000000003,0.2154231012992751,-0.2154231012992751
27.309,0.23433892940797552,-0.23433892940797552
27.31,0.21779829987937793,-0.21779829987937793
27.311000000000003,0.1683016922205156,-0.1683016922205156
27.312,0.09358870691301313,-0.09358870691301313
27.313,0.005082336581129776,-0.005082336581129776
27.314,0.08428069200761246,0.08428069200761246
27.315,0.16231849172133694,0.16231849172133694
27.316000000000003,0.2194779533345299,0.2194779533345299
27.317,0.24997281043094,0.24997281043094
27.318,0.25207187917554386,0.25207187917554386
27.319000000000003,0.2276502036609671,0.2276502036609671
27.32,0.18127305493209533,0.18127305493209533
27.321,0.11913121207520172,0.11913121207520172
27.322000000000003,0.048087332795197835,0.048087332795197835
27.323,0.025033834313720638,-0.025033834313720638
27.324,0.09391551142751275,-0.09391551142751275
27.325000000000003,0.15307492539600542,-0.15307492539600542
27.326,0.19815661649171135,-0.19815661649171135
27.327,0.22624813173283098,-0.22624813173283098
27.328000000000003,0.23618062693723962,-0.23618062693723962
27.329,0.22869852268109436,-0.22869852268109436
27.33,0.2063620656788424,-0.2063620656788424
27.331000000000003,0.17310252888231992,-0.17310252888231992
27.332,0.13346554750946182,-0.13346554750946182
27.333,0.09170851289484616,-0.09170851289484616
27.334000000000003,0.05100649962844184,-0.05100649962844184
27.335,0.013023124293992216,-0.013023124293992216
27.336,0.021995419726135612,0.021995419726135612
27.337000000000003,0.05461716603846334,0.05461716603846334
27.338,0.08531406641279404,0.08531406641279404
27.339,0.11357996866433395,0.11357996866433395
27.340000000000003,0.13743464150378126,0.13743464150378126
27.341,0.15356343508640258,0.15356343508640258
27.342,0.15813087489295174,0.15813087489295174
27.343000000000004,0.148059751623842,0.148059751623842
27.344,0.12237106813277676,0.12237106813277676
27.345,0.08310889383568476,0.08310889383568476
27.346,0.035463121821489585,0.035463121821489585
27.347,0.013066155076050134,-0.013066155076050134
27.348000000000003,0.05431526014100818,-0.05431526014100818
27.349,0.08148838596708441,-0.08148838596708441
27.35,0.09098850706072559,-0.09098850706072559
27.351000000000003,0.08348179481613194,-0.08348179481613194
27.352,0.06383002332406096,-0.06383002332406096
27.353,0.03985004175439322,-0.03985004175439322
27.354000000000003,0.02020928864625149,-0.02020928864625149
27.355,0.012032347236651919,-0.012032347236651919
27.356,0.018891502965366014,-0.018891502965366014
27.357000000000003,0.03975230148609221,-0.03975230148609221
27.358,0.06917387813637987,-0.06917387813637987
27.359,0.09870633477996105,-0.09870633477996105
27.360000000000003,0.11909203882149166,-0.11909203882149166
27.361,0.12266353218287307,-0.12266353218287307
27.362,0.10529690619402421,-0.10529690619402421
27.363000000000003,0.06742822968749917,-0.06742822968749917
27.364,0.0139190447522487,-0.0139190447522487
27.365,0.04712360172315777,0.04712360172315777
27.366000000000003,0.10620153581221148,0.10620153581221148
27.367,0.15444289135215894,0.15444289135215894
27.368,0.18528405809303106,0.18528405809303106
27.369000000000003,0.19546306277825476,0.19546306277825476
27.37,0.18519186342179283,0.18519186342179283
27.371,0.1575980213689312,0.1575980213689312
27.372000000000003,0.11768837472077975,0.11768837472077975
27.373,0.0711534736270596,0.0711534736270596
27.374,0.023301536081825835,0.023301536081825835
27.375000000000004,0.021686180545928968,-0.021686180545928968
27.376,0.061106657732946545,-0.061106657732946545
27.377,0.09372358083606047,-0.09372358083606047
27.378,0.11948470575080339,-0.11948470575080339
27.379,0.13907764619854524,-0.13907764619854524
27.380000000000003,0.15342314924576295,-0.15342314924576295
27.381,0.1631875473704727,-0.1631875473704727
27.382,0.16838723494490437,-0.16838723494490437
27.383000000000003,0.16815960595462365,-0.16815960595462365
27.384,0.16077512870474642,-0.16077512870474642
27.385,0.14394601064324752,-0.14394601064324752
27.386000000000003,0.11543505373317775,-0.11543505373317775
27.387,0.07388550645866465,-0.07388550645866465
27.388,0.019699216331191982,-0.019699216331191982
27.389000000000003,0.04427993352619897,0.04427993352619897
27.39,0.11253213404090223,0.11253213404090223
27.391,0.17726374758657415,0.17726374758657415
27.392000000000003,0.2294870205395776,0.2294870205395776
27.393,0.2606304221031699,0.2606304221031699
27.394,0.2643542612294312,0.2643542612294312
27.395000000000003,0.23813716777924165,0.23813716777924165
27.396,0.1842030965784347,0.1842030965784347
27.397,0.10948761990842515,0.10948761990842515
27.398000000000003,0.024569348801895874,0.024569348801895874
27.399,0.05824277752175955,-0.05824277752175955
27.4,0.1272486175993226,-0.1272486175993226
27.401000000000003,0.17358335534127123,-0.17358335534127123
27.402,0.19281468636885501,-0.19281468636885501
27.403,0.1855550639646555,-0.1855550639646555
27.404000000000003,0.1569870695234905,-0.1569870695234905
27.405,0.11547257302903602,-0.11547257302903602
27.406,0.07063026323987165,-0.07063026323987165
27.407,0.03136392161669865,-0.03136392161669865
27.408,0.0042854719981365585,-0.0042854719981365585
27.409,0.0071755979913592505,0.0071755979913592505
27.41,0.002896443779189184,0.002896443779189184
27.411,0.014458886413473815,-0.014458886413473815
27.412000000000003,0.0403463728726009,-0.0403463728726009
27.413,0.0693439662415769,-0.0693439662415769
27.414,0.09601522073175917,-0.09601522073175917
27.415000000000003,0.11551853236808651,-0.11551853236808651
27.416,0.12397009438361295,-0.12397009438361295
27.417,0.11865241413339722,-0.11865241413339722
27.418000000000003,0.09817711613322722,-0.09817711613322722
27.419,0.06266367813144957,-0.06266367813144957
27.42,0.013913765494796837,-0.013913765494796837
27.421000000000003,0.04451371955566508,0.04451371955566508
27.422,0.1074507536918401,0.1074507536918401
27.423,0.1685803134338857,0.1685803134338857
27.424000000000003,0.22120696660986106,0.22120696660986106
27.425,0.2592234874989148,0.2592234874989148
27.426,0.2780680040561132,0.2780680040561132
27.427000000000003,0.27543585200669685,0.27543585200669685
27.428,0.25155858565372924,0.25155858565372924
27.429,0.2089786304981862,0.2089786304981862
27.430000000000003,0.15189507498711508,0.15189507498711508
27.431,0.08528393137244694,0.08528393137244694
27.432,0.014059191283242622,0.014059191283242622
27.433000000000003,0.057485236063641754,-0.057485236063641754
27.434,0.12582166356331903,-0.12582166356331903
27.435,0.187947649935036,-0.187947649935036
27.436000000000003,0.24093153956173818,-0.24093153956173818
27.437,0.2815067178566584,-0.2815067178566584
27.438,0.3059710685643948,-0.3059710685643948
27.439,0.3105457347110754,-0.3105457347110754
27.44,0.2921792653370685,-0.2921792653370685
27.441000000000003,0.24960445784324647,-0.24960445784324647
27.442,0.18432656062011532,-0.18432656062011532
27.443,0.10118967676897406,-0.10118967676897406
27.444000000000003,0.008249919342576462,-0.008249919342576462
27.445,0.08414031636314001,0.08414031636314001
27.446,0.16491272637684773,0.16491272637684773
27.447000000000003,0.224205235931914,0.224205235931914
27.448,0.2551858711960089,0.2551858711960089
27.449,0.2553393237401178,0.2553393237401178
27.450000000000003,0.2268981938882546,0.2268981938882546
27.451,0.17630883079095772,0.17630883079095772
27.452,0.1128587163215462,0.1128587163215462
27.453000000000003,0.046793485698537696,0.046793485698537696
27.454,0.012636173624412272,-0.012636173624412272
27.455,0.058760843429209175,-0.058760843429209175
27.456000000000003,0.08838746702857259,-0.08838746702857259
27.457,0.10186472784274692,-0.10186472784274692
27.458,0.10238672157808992,-0.10238672157808992
27.459000000000003,0.09477552556814606,-0.09477552556814606
27.46,0.0840811772265434,-0.0840811772265434
27.461,0.07434348817590286,-0.07434348817590286
27.462000000000003,0.06778249107759604,-0.06778249107759604
27.463,0.06455215453476837,-0.06455215453476837
27.464,0.06304456951678228,-0.06304456951678228
27.465000000000003,0.0606067977490341,-0.0606067977490341
27.466,0.05445638610277792,-0.05445638610277792
27.467,0.04256423679890298,-0.04256423679890298
27.468000000000004,0.024309075145149905,-0.024309075145149905
27.469,0.0007788218730341301,-0.0007788218730341301
27.47,0.025321038085748482,0.025321038085748482
27.471,0.050113136532696556,0.050113136532696556
27.472,0.06924922996486504,0.06924922996486504
27.473000000000003,0.07873262980710227,0.07873262980710227
27.474,0.0757168943755886,0.0757168943755886
27.475,0.05914444672769825,0.05914444672769825
27.476000000000003,0.0301135027431787,0.0301135027431787
27.477,0.00810070747276026,-0.00810070747276026
27.478,0.050396076242930854,-0.050396076242930854
27.479000000000003,0.09053442626917252,-0.09053442626917252
27.48,0.12208331689729024,-0.12208331689729024
27.481,0.13946630612505617,-0.13946630612505617
27.482000000000003,0.13894373531904258,-0.13894373531904258
27.483,0.11933948419844209,-0.11933948419844209
27.484,0.0823587567800339,-0.0823587567800339
27.485000000000003,0.03240788498025593,-0.03240788498025593
27.486,0.024079859731450437,0.024079859731450437
27.487,0.07970624421858119,0.07970624421858119
27.488000000000003,0.12736322350375295,0.12736322350375295
27.489,0.16143457829901897,0.16143457829901897
27.49,0.17869753509875452,0.17869753509875452
27.491000000000003,0.1787345212023601,0.1787345212023601
27.492,0.16376867347603197,0.16376867347603197
27.493,0.13796482232839424,0.13796482232839424
27.494000000000003,0.10636062788369194,0.10636062788369194
27.495,0.07368019833633377,0.07368019833633377
27.496,0.04331207309254692,0.04331207309254692
27.497000000000003,0.016695626596416213,0.016695626596416213
27.498,0.006738118656832159,-0.006738118656832159
27.499,0.029061258290217218,-0.029061258290217218
27.500000000000004,0.05291083642474759,-0.05291083642474759
27.501,0.08036159636694307,-0.08036159636694307
27.502,0.11190838161218597,-0.11190838161218597
27.503,0.14583931426551222,-0.14583931426551222
27.504,0.1781931325191457,-0.1781931325191457
27.505000000000003,0.20335557124076564,-0.20335557124076564
27.506,0.21519248026731086,-0.21519248026731086
27.507,0.20847876281214306,-0.20847876281214306
27.508000000000003,0.18029590311797627,-0.18029590311797627
27.509,0.1310590217294334,-0.1310590217294334
27.51,0.06490232236210403,-0.06490232236210403
27.511000000000003,0.010713687023697016,0.010713687023697016
27.512,0.0861376454746221,0.0861376454746221
27.513,0.15119854438151226,0.15119854438151226
27.514000000000003,0.19707468849135346,0.19707468849135346
27.515,0.21796321640293748,0.21796321640293748
27.516,0.2121820037012594,0.2121820037012594
27.517000000000003,0.18244984304990441,0.18244984304990441
27.518,0.1352671736913349,0.1352671736913349
27.519,0.07952026065300499,0.07952026065300499
27.520000000000003,0.024611143026229243,0.024611143026229243
27.521,0.02146893372851022,-0.02146893372851022
27.522,0.05368358645558935,-0.05368358645558935
27.523000000000003,0.07075609816586159,-0.07075609816586159
27.524,0.07504918037385244,-0.07504918037385244
27.525,0.07155641516838451,-0.07155641516838451
27.526000000000003,0.06626388483902057,-0.06626388483902057
27.527,0.06430614550522984,-0.06430614550522984
27.528,0.0684052346399141,-0.0684052346399141
27.529000000000003,0.07802255263257751,-0.07802255263257751
27.53,0.08947921411913207,-0.08947921411913207
27.531,0.09704942266291217,-0.09704942266291217
27.532,0.09476509307729619,-0.09476509307729619
27.533,0.0784582523238142,-0.0784582523238142
27.534,0.04747098001599903,-0.04747098001599903
27.535,0.005514467058245542,-0.005514467058245542
27.536,0.0396449149379694,0.0396449149379694
27.537000000000003,0.07769732613020586,0.07769732613020586
27.538,0.09819922834251837,0.09819922834251837
27.539,0.09331569856243993,0.09331569856243993
27.540000000000003,0.06019796965126356,0.06019796965126356
27.541,0.00234433741296991,0.00234433741296991
27.542,0.07048711612576652,-0.07048711612576652
27.543000000000003,0.14390014734365086,-0.14390014734365086
27.544,0.20171774907989637,-0.20171774907989637
27.545,0.22945234378993695,-0.22945234378993695
27.546000000000003,0.21758863744376056,-0.21758863744376056
27.547,0.1638991534711538,-0.1638991534711538
27.548,0.074228657334102,-0.074228657334102
27.549000000000003,0.03845721770946775,0.03845721770946775
27.55,0.15655295167042427,0.15655295167042427
27.551,0.2612595052362181,0.2612595052362181
27.552000000000003,0.3362165784068951,0.3362165784068951
27.553,0.3705199341675409,0.3705199341675409
27.554,0.3604950997425136,0.3604950997425136
27.555000000000003,0.3099138057593678,0.3099138057593678
27.556,0.22871216105062442,0.22871216105062442
27.557,0.13060402818646888,0.13060402818646888
27.558000000000003,0.030199232109462182,0.030199232109462182
27.559,0.05971005520287609,-0.05971005520287609
27.56,0.130139186553492,-0.130139186553492
27.561000000000003,0.17684869303974293,-0.17684869303974293
27.562,0.20017923420403028,-0.20017923420403028
27.563,0.20398837124772495,-0.20398837124772495
27.564,0.19406655389332927,-0.19406655389332927
27.565,0.176469772149912,-0.176469772149912
27.566000000000003,0.15615563810098454,-0.15615563810098454
27.567,0.1361775872473444,-0.1361775872473444
27.568,0.11752296833709819,-0.11752296833709819
27.569000000000003,0.09952051546107932,-0.09952051546107932
27.57,0.08062569403356135,-0.08062569403356135
27.571,0.05933612371301589,-0.05933612371301589
27.572000000000003,0.034993862620728344,-0.034993862620728344
27.573,0.008284325614905996,-0.008284325614905996
27.574,0.01867543034534158,0.01867543034534158
27.575000000000003,0.042672002606986004,0.042672002606986004
27.576,0.06007741407665712,0.06007741407665712
27.577,0.06772668960749573,0.06772668960749573
27.578000000000003,0.0637934689852464,0.0637934689852464
27.579,0.048453772991579935,0.048453772991579935
27.58,0.024157059473174147,0.024157059473174147
27.581000000000003,0.004605171007019404,-0.004605171007019404
27.582,0.03203743012190785,-0.03203743012190785
27.583,0.05216759054681164,-0.05216759054681164
27.584000000000003,0.06013608971255324,-0.06013608971255324
27.585,0.05335195751672528,-0.05335195751672528
27.586,0.03222089672783357,-0.03222089672783357
27.587000000000003,0.00022901321987212064,-0.00022901321987212064
27.588,0.03668897313616748,0.03668897313616748
27.589,0.0713890319059578,0.0713890319059578
27.590000000000003,0.09709091119276492,0.09709091119276492
27.591,0.10890769012927559,0.10890769012927559
27.592,0.10494768570009883,0.10494768570009883
27.593000000000004,0.08670298359655204,0.08670298359655204
27.594,0.058619667944970866,0.058619667944970866
27.595,0.026959277929893943,0.026959277929893943
27.596,0.0017517813289330553,-0.0017517813289330553
27.597,0.02228260782818703,-0.02228260782818703
27.598000000000003,0.03187244219396179,-0.03187244219396179
27.599,0.030739924614917036,-0.030739924614917036
27.6,0.02183603987626015,-0.02183603987626015
27.601000000000003,0.009953763883898348,-0.009953763883898348
27.602,0.0004662044326390058,-0.0004662044326390058
27.603,0.001965031481763857,0.001965031481763857
27.604000000000003,0.0055981680536484335,-0.0055981680536484335
27.605,0.023832760426093058,-0.023832760426093058
27.606,0.051133536541469016,-0.051133536541469016
27.607000000000003,0.08401387341719957,-0.08401387341719957
27.608,0.1177534217618621,-0.1177534217618621
27.609,0.14711222151448444,-0.14711222151448444
27.610000000000003,0.16698686431274812,-0.16698686431274812
27.611,0.17296711553427313,-0.17296711553427313
27.612,0.16181838117531055,-0.16181838117531055
27.613000000000003,0.13193455702500378,-0.13193455702500378
27.614,0.08376902189109259,-0.08376902189109259
27.615,0.020178263293098575,-0.020178263293098575
27.616000000000003,0.053457897813394384,0.053457897813394384
27.617,0.12950050743491826,0.12950050743491826
27.618,0.1988129041931992,0.1988129041931992
27.619000000000003,0.2520117450838255,0.2520117450838255
27.62,0.2810399715689629,0.2810399715689629
27.621,0.28074897194705617,0.28074897194705617
27.622000000000003,0.25010446847556334,0.25010446847556334
27.623,0.1926686989152182,0.1926686989152182
27.624,0.11616330159820643,0.11616330159820643
27.625000000000004,0.031146188749085812,0.031146188749085812
27.626,0.05092502953054312,-0.05092502953054312
27.627,0.11979595923336461,-0.11979595923336461
27.628,0.1681857717032288,-0.1681857717032288
27.629,0.19281723575600052,-0.19281723575600052
27.630000000000003,0.19450686597969058,-0.19450686597969058
27.631,0.17737645814823222,-0.17737645814823222
27.632,0.1474791016990481,-0.1474791016990481
27.633000000000003,0.11126413842959249,-0.11126413842959249
27.634,0.07429951666235601,-0.07429951666235601
27.635,0.04053632433525145,-0.04053632433525145
27.636000000000003,0.01219127883827742,-0.01219127883827742
27.637,0.009885679762587252,0.009885679762587252
27.638,0.025627949670677053,0.025627949670677053
27.639000000000003,0.0352439676218681,0.0352439676218681
27.64,0.03898357406591635,0.03898357406591635
27.641,0.03721759293826232,0.03721759293826232
27.642000000000003,0.030707165816233006,0.030707165816233006
27.643,0.02084310786633181,0.02084310786633181
27.644,0.00964430514310144,0.00964430514310144
27.645000000000003,0.0005855661291168657,-0.0005855661291168657
27.646,0.007877236788185527,-0.007877236788185527
27.647,0.01127235586413089,-0.01127235586413089
27.648000000000003,0.011266834284981098,-0.011266834284981098
27.649,0.009777523235472874,-0.009777523235472874
27.65,0.009546652161380398,-0.009546652161380398
27.651000000000003,0.013114222681095522,-0.013114222681095522
27.652,0.021681950028984542,-0.021681950028984542
27.653,0.03428524101872432,-0.03428524101872432
27.654000000000003,0.04763595589186653,-0.04763595589186653
27.655,0.056803555698246355,-0.056803555698246355
27.656,0.05662360581988424,-0.05662360581988424
27.657,0.04345312528685841,-0.04345312528685841
27.658,0.016727873121010983,-0.016727873121010983
27.659,0.02021741359703344,0.02021741359703344
27.66,0.0604184776130301,0.0604184776130301
27.661,0.09467757618685502,0.09467757618685502
27.662000000000003,0.11377466570983152,0.11377466570983152
27.663,0.11091282480696418,0.11091282480696418
27.664,0.08371515198137569,0.08371515198137569
27.665000000000003,0.03519250208213953,0.03519250208213953
27.666,0.026621033058746302,-0.026621033058746302
27.667,0.09029925588477083,-0.09029925588477083
27.668000000000003,0.1435081559151049,-0.1435081559151049
27.669,0.17570649736690636,-0.17570649736690636
27.67,0.18038868529870855,-0.18038868529870855
27.671000000000003,0.15634709572113104,-0.15634709572113104
27.672,0.10771507083088872,-0.10771507083088872
27.673,0.042876480203382306,-0.042876480203382306
27.674000000000003,0.027403694134416456,0.027403694134416456
27.675,0.0921310731021705,0.0921310731021705
27.676,0.14202685699319484,0.14202685699319484
27.677000000000003,0.1709087522328061,0.1709087522328061
27.678,0.17634582264879617,0.17634582264879617
27.679,0.15961387920155334,0.15961387920155334
27.680000000000003,0.12510592296725087,0.12510592296725087
27.681,0.07939820431657019,0.07939820431657019
27.682,0.030150885493656077,0.030150885493656077
27.683000000000003,0.015029189205987503,-0.015029189205987503
27.684,0.049676536444063446,-0.049676536444063446
27.685,0.06942370155811972,-0.06942370155811972
27.686000000000003,0.07271664407143841,-0.07271664407143841
27.687,0.06114658066753209,-0.06114658066753209
27.688,0.039257630625337714,-0.039257630625337714
27.689,0.013754177013510782,-0.013754177013510782
27.69,0.007838337616712376,0.007838337616712376
27.691000000000003,0.018841155903985163,0.018841155903985163
27.692,0.015057317551421034,0.015057317551421034
27.693,0.004048547145515058,-0.004048547145515058
27.694000000000003,0.03498766290384725,-0.03498766290384725
27.695,0.07087928212448125,-0.07087928212448125
27.696,0.10299071662832071,-0.10299071662832071
27.697000000000003,0.1228318842108822,-0.1228318842108822
27.698,0.1242692506724794,-0.1242692506724794
27.699,0.10509238912993935,-0.10509238912993935
27.700000000000003,0.06760413224315409,-0.06760413224315409
27.701,0.018076133793094917,-0.018076133793094917
27.702,0.034766423080608844,0.034766423080608844
27.703000000000003,0.08179534497719443,0.08179534497719443
27.704,0.11549373781278693,0.11549373781278693
27.705,0.13140424239728188,0.13140424239728188
27.706000000000003,0.1286824306435821,0.1286824306435821
27.707,0.10971645275689212,0.10971645275689212
27.708,0.07905385835425416,0.07905385835425416
27.709000000000003,0.04205427204233936,0.04205427204233936
27.71,0.0037090546512366096,0.0037090546512366096
27.711,0.032060326399619865,-0.032060326399619865
27.712000000000003,0.06253742886841229,-0.06253742886841229
27.713,0.08592124941536194,-0.08592124941536194
27.714,0.10090197765913422,-0.10090197765913422
27.715000000000003,0.10640647976061124,-0.10640647976061124
27.716,0.10169898020627233,-0.10169898020627233
27.717,0.08682311774465112,-0.08682311774465112
27.718000000000004,0.06317603316722775,-0.06317603316722775
27.719,0.033896070721605165,-0.033896070721605165
27.72,0.003772027602425565,-0.003772027602425565
27.721,0.021460476358022174,0.021460476358022174
27.722,0.036337522749101625,0.036337522749101625
27.723000000000003,0.03708316533085054,0.03708316533085054
27.724,0.02278674170116557,0.02278674170116557
27.725,0.0040638584951480095,-0.0040638584951480095
27.726000000000003,0.03791888698596757,-0.03791888698596757
27.727,0.07133134881610292,-0.07133134881610292
27.728,0.09664374026810307,-0.09664374026810307
27.729000000000003,0.1077248405670298,-0.1077248405670298
27.73,0.10127467538609014,-0.10127467538609014
27.731,0.07736512437152399,-0.07736512437152399
27.732000000000003,0.03913736075370611,-0.03913736075370611
27.733,0.008156627373936631,0.008156627373936631
27.734,0.05839772662043541,0.05839772662043541
27.735000000000003,0.10571947001223103,0.10571947001223103
27.736,0.14520806536908148,0.14520806536908148
27.737,0.17310070728786298,0.17310070728786298
27.738000000000003,0.18662553068038612,0.18662553068038612
27.739,0.18377104631762897,0.18377104631762897
27.74,0.16327716005421378,0.16327716005421378
27.741000000000003,0.1250013865709354,0.1250013865709354
27.742,0.07058908199352132,0.07058908199352132
27.743,0.0041599999794557085,0.0041599999794557085
27.744000000000003,0.06738852031675713,-0.06738852031675713
27.745,0.13480927977212231,-0.13480927977212231
27.746,0.1877976974278206,-0.1877976974278206
27.747000000000003,0.2169749617521709,-0.2169749617521709
27.748,0.21609553241246937,-0.21609553241246937
27.749,0.1838490507413033,-0.1838490507413033
27.750000000000004,0.12466526314613846,-0.12466526314613846
27.751,0.048175768685736475,-0.048175768685736475
27.752,0.03263159006467764,0.03263159006467764
27.753,0.1041334730654031,0.1041334730654031
27.754,0.1549571098707978,0.1549571098707978
27.755000000000003,0.17826005532968137,0.17826005532968137
27.756,0.1728114286338509,0.1728114286338509
27.757,0.14264654143931477,0.14264654143931477
27.758000000000003,0.09549557073738968,0.09549557073738968
27.759,0.040538159994045975,0.040538159994045975
27.76,0.013805134148689224,-0.013805134148689224
27.761000000000003,0.061413891259211595,-0.061413891259211595
27.762,0.0989937068254686,-0.0989937068254686
27.763,0.12561855154053814,-0.12561855154053814
27.764000000000003,0.14165940984068848,-0.14165940984068848
27.765,0.1476471534364141,-0.1476471534364141
27.766,0.1435782343275387,-0.1435782343275387
27.767000000000003,0.1289386801550767,-0.1289386801550767
27.768,0.10339030970033214,-0.10339030970033214
27.769,0.06776369096955748,-0.06776369096955748
27.770000000000003,0.024852085434426296,-0.024852085434426296
27.771,0.020441177616652206,0.020441177616652206
27.772,0.06180346535542247,0.06180346535542247
27.773000000000003,0.09292289518179353,0.09292289518179353
27.774,0.10916531127743867,0.10916531127743867
27.775,0.10892921244798659,0.10892921244798659
27.776000000000003,0.09416298415268631,0.09416298415268631
27.777,0.06980306042938711,0.06980306042938711
27.778,0.04227115070193821,0.04227115070193821
27.779000000000003,0.017515002579599814,0.017515002579599814
27.78,0.0007401335430347045,-0.0007401335430347045
27.781,0.011916870642719513,-0.011916870642719513
27.782,0.018355687358032946,-0.018355687358032946
27.783,0.024007903533694086,-0.024007903533694086
27.784,0.03252476760144207,-0.03252476760144207
27.785,0.04545033250736574,-0.04545033250736574
27.786,0.06120975212367963,-0.06120975212367963
27.787000000000003,0.07531607979902932,-0.07531607979902932
27.788,0.08178693097622347,-0.08178693097622347
27.789,0.07531802854255032,-0.07531802854255032
27.790000000000003,0.053462758334619664,-0.053462758334619664
27.791,0.018026289222001335,-0.018026289222001335
27.792,0.024878315313057398,0.024878315313057398
27.793000000000003,0.06622247790836977,0.06622247790836977
27.794,0.09651762273667885,0.09651762273667885
27.795,0.10857022252820592,0.10857022252820592
27.796000000000003,0.09964565728656671,0.09964565728656671
27.797,0.07232281037481503,0.07232281037481503
27.798,0.03373962801868835,0.03373962801868835
27.799000000000003,0.006545226488110845,-0.006545226488110845
27.8,0.03939462098333468,-0.03939462098333468
27.801,0.05872801009833861,-0.05872801009833861
27.802000000000003,0.06310911596936042,-0.06310911596936042
27.803,0.05579507179812593,-0.05579507179812593
27.804,0.043265444825285826,-0.043265444825285826
27.805000000000003,0.03274886935234478,-0.03274886935234478
27.806,0.02958811462007227,-0.02958811462007227
27.807,0.03532601737667407,-0.03532601737667407
27.808000000000003,0.04714473825145937,-0.04714473825145937
27.809,0.05883615895000549,-0.05883615895000549
27.81,0.06297497018524678,-0.06297497018524678
27.811000000000003,0.05357496046133525,-0.05357496046133525
27.812,0.02835824197525083,-0.02835824197525083
27.813,0.01010022593346327,0.01010022593346327
27.814,0.05472480871724117,0.05472480871724117
27.815,0.09568549500016221,0.09568549500016221
27.816000000000003,0.12300677731587695,0.12300677731587695
27.817,0.12925761671231095,0.12925761671231095
27.818,0.11154031596782654,0.11154031596782654
27.819000000000003,0.07223253882555558,0.07223253882555558
27.82,0.01832426859185743,0.01832426859185743
27.821,0.04039740922237034,-0.04039740922237034
27.822000000000003,0.09375405766204026,-0.09375405766204026
27.823,0.13348861287839775,-0.13348861287839775
27.824,0.15488648558358242,-0.15488648558358242
27.825000000000003,0.15735348878476563,-0.15735348878476563
27.826,0.14391899894486582,-0.14391899894486582
27.827,0.11992462848361907,-0.11992462848361907
27.828000000000003,0.09134231435437612,-0.09134231435437612
27.829,0.06320379831096312,-0.06320379831096312
27.83,0.03852688438020302,-0.03852688438020302
27.831000000000003,0.017940845440204023,-0.017940845440204023
27.832,8.358332347468966e-06,-8.358332347468966e-06
27.833,0.01792764672323144,0.01792764672323144
27.834000000000003,0.03864151523942172,0.03864151523942172
27.835,0.0639550357698091,0.0639550357698091
27.836,0.09394390255349094,0.09394390255349094
27.837000000000003,0.1265819069243972,0.1265819069243972
27.838,0.1578891419251669,0.1578891419251669
27.839,0.18255856201637743,0.18255856201637743
27.840000000000003,0.19495359650226152,0.19495359650226152
27.841,0.1903011365334848,0.1903011365334848
27.842,0.1658542744003355,0.1658542744003355
27.843000000000004,0.12177842988851406,0.12177842988851406
27.844,0.06153710842085536,0.06153710842085536
27.845,0.008370229605385915,-0.008370229605385915
27.846,0.07933841591565938,-0.07933841591565938
27.847,0.14211799304345418,-0.14211799304345418
27.848000000000003,0.18852219826403016,-0.18852219826403016
27.849,0.21299964217696055,-0.21299964217696055
27.85,0.2136908730124848,-0.2136908730124848
27.851000000000003,0.19269175123124116,-0.19269175123124116
27.852,0.15543938737525353,-0.15543938737525353
27.853,0.10936746334880798,-0.10936746334880798
27.854000000000003,0.062179366379356726,-0.062179366379356726
27.855,0.020195639127450704,-0.020195639127450704
27.856,0.012791429364757523,0.012791429364757523
27.857000000000003,0.03587617506514307,0.03587617506514307
27.858,0.050568429874118914,0.050568429874118914
27.859,0.059698593536248845,0.059698593536248845
27.860000000000003,0.06608463340849213,0.06608463340849213
27.861,0.07140122282895356,0.07140122282895356
27.862,0.07560403163438911,0.07560403163438911
27.863000000000003,0.0770642432402362,0.0770642432402362
27.864,0.07332721652065932,0.07332721652065932
27.865,0.06220567886409878,0.06220567886409878
27.866000000000003,0.042818238181276724,0.042818238181276724
27.867,0.016217596317958938,0.016217596317958938
27.868,0.014597336837990804,-0.014597336837990804
27.869000000000003,0.04528109669190672,-0.04528109669190672
27.87,0.07115224627685823,-0.07115224627685823
27.871,0.0882964540566259,-0.0882964540566259
27.872000000000003,0.09443892566454903,-0.09443892566454903
27.873,0.08936345182323702,-0.08936345182323702
27.874,0.07481657957981347,-0.07481657957981347
27.875000000000004,0.05399522656552591,-0.05399522656552591
27.876,0.030818494794050744,-0.030818494794050744
27.877,0.009200605374937387,-0.009200605374937387
27.878,0.007520843591295234,0.007520843591295234
27.879,0.0169505242704866,0.0169505242704866
27.880000000000003,0.01783700430972157,0.01783700430972157
27.881,0.0101927152748289,0.0101927152748289
27.882,0.004612237706146938,-0.004612237706146938
27.883000000000003,0.02380203727075625,-0.02380203727075625
27.884,0.04329175307009725,-0.04329175307009725
27.885,0.05806116654927418,-0.05806116654927418
27.886000000000003,0.06289424622682294,-0.06289424622682294
27.887,0.05345230214933794,-0.05345230214933794
27.888,0.027490950623076604,-0.027490950623076604
27.889000000000003,0.014101172423256259,0.014101172423256259
27.89,0.06680694297266787,0.06680694297266787
27.891,0.12280986417540385,0.12280986417540385
27.892000000000003,0.17222624497978178,0.17222624497978178
27.893,0.20505136077689778,0.20505136077689778
27.894,0.21338410211087488,0.21338410211087488
27.895000000000003,0.19335741861837286,0.19335741861837286
27.896,0.14623190599304503,0.14623190599304503
27.897,0.0783117511730318,0.0783117511730318
27.898000000000003,0.00033821238480380433,-0.00033821238480380433
27.899,0.07805560302124992,-0.07805560302124992
27.9,0.14405297551288498,-0.14405297551288498
27.901000000000003,0.19054729312568408,-0.19054729312568408
27.902,0.2140101135165695,-0.2140101135165695
27.903,0.2152779557726635,-0.2152779557726635
27.904000000000003,0.19860650489551845,-0.19860650489551845
27.905,0.17005203341679365,-0.17005203341679365
27.906,0.13572311662383207,-0.13572311662383207
27.907,0.10042011852932464,-0.10042011852932464
27.908,0.06698894457796067,-0.06698894457796067
27.909,0.036435742346282995,-0.036435742346282995
27.91,0.008584919526280821,-0.008584919526280821
27.911,0.017092370143648505,0.017092370143648505
27.912000000000003,0.04084941792667296,0.04084941792667296
27.913,0.06245720506142538,0.06245720506142538
27.914,0.08141739246692081,0.08141739246692081
27.915000000000003,0.09738729254239531,0.09738729254239531
27.916,0.11050914440054083,0.11050914440054083
27.917,0.12138403501405959,0.12138403501405959
27.918000000000003,0.1306080573731052,0.1306080573731052
27.919,0.13802142178902366,0.13802142178902366
27.92,0.1420102958754792,0.1420102958754792
27.921000000000003,0.1392588865690747,0.1392588865690747
27.922,0.1252367699829886,0.1252367699829886
27.923,0.09545130851283679,0.09545130851283679
27.924000000000003,0.0471844097314722,0.0471844097314722
27.925,0.01881641579526272,-0.01881641579526272
27.926,0.09730753008409831,-0.09730753008409831
27.927000000000003,0.17866456740778458,-0.17866456740778458
27.928,0.25031121511527366,-0.25031121511527366
27.929,0.29921865022667826,-0.29921865022667826
27.930000000000003,0.3148661542320793,-0.3148661542320793
27.931,0.29185849071138714,-0.29185849071138714
27.932,0.23144768768564639,-0.23144768768564639
27.933000000000003,0.14149943439950985,-0.14149943439950985
27.934,0.0348889201728958,-0.0348889201728958
27.935,0.07323420978640671,0.07323420978640671
27.936000000000003,0.16855428815605222,0.16855428815605222
27.937,0.2402353311209764,0.2402353311209764
27.938,0.2824502692436295,0.2824502692436295
27.939,0.2945173568191328,0.2945173568191328
27.94,0.2798093459781168,0.2798093459781168
27.941000000000003,0.24395819813494524,0.24395819813494524
27.942,0.19303453637387213,0.19303453637387213
27.943,0.1322938727227927,0.1322938727227927
27.944000000000003,0.06579479145918743,0.06579479145918743
27.945,0.003178980223848993,-0.003178980223848993
27.946,0.07127963921865266,-0.07127963921865266
27.947000000000003,0.13437440656467392,-0.13437440656467392
27.948,0.18740354200297527,-0.18740354200297527
27.949,0.2250151829341307,-0.2250151829341307
27.950000000000003,0.24282670456148692,-0.24282670456148692
27.951,0.2388645698611337,-0.2388645698611337
27.952,0.21460470125409992,-0.21460470125409992
27.953000000000003,0.1751284693392784,-0.1751284693392784
27.954,0.12819759090117322,-0.12819759090117322
27.955,0.08243303910673472,-0.08243303910673472
27.956000000000003,0.04511980874653998,-0.04511980874653998
27.957,0.02032557730786866,-0.02032557730786866
27.958,0.007950723073822719,-0.007950723073822719
27.959000000000003,0.0040377498982656634,-0.0040377498982656634
27.96,0.002256772528225204,-0.002256772528225204
27.961,0.003907678649514024,0.003907678649514024
27.962000000000003,0.018977788881716418,0.018977788881716418
27.963,0.04401539809377786,0.04401539809377786
27.964,0.07632599251408334,0.07632599251408334
27.965000000000003,0.11039361421519445,0.11039361421519445
27.966,0.13969116000428317,0.13969116000428317
27.967,0.1587232832218457,0.1587232832218457
27.968000000000004,0.1645988159985885,0.1645988159985885
27.969,0.15761513830233564,0.15761513830233564
27.97,0.14070073236728242,0.14070073236728242
27.971,0.11797451173231299,0.11797451173231299
27.972,0.09299526669162628,0.09299526669162628
27.973000000000003,0.06738064314702252,0.06738064314702252
27.974,0.04033530036036237,0.04033530036036237
27.975,0.009291750199021287,0.009291750199021287
27.976000000000003,0.028546651507506682,-0.028546651507506682
27.977,0.07431710699882166,-0.07431710699882166
27.978,0.12597520575160404,-0.12597520575160404
27.979000000000003,0.1777593592725898,-0.1777593592725898
27.98,0.2209509624681627,-0.2209509624681627
27.981,0.24581214262887718,-0.24581214262887718
27.982000000000003,0.24418183107559133,-0.24418183107559133
27.983,0.2119692311127397,-0.2119692311127397
27.984,0.15078143800283683,-0.15078143800283683
27.985000000000003,0.06815982961753952,-0.06815982961753952
27.986,0.023698932606251555,0.023698932606251555
27.987,0.11042430165823514,0.11042430165823514
27.988000000000003,0.1785048110516385,0.1785048110516385
27.989,0.21808263175227904,0.21808263175227904
27.99,0.22481277143291778,0.22481277143291778
27.991000000000003,0.200375581498478,0.200375581498478
27.992,0.15161357471721604,0.15161357471721604
27.993,0.08862427309606113,0.08862427309606113
27.994000000000003,0.022377636085991748,0.022377636085991748
27.995,0.037516270624022297,-0.037516270624022297
27.996,0.08438284538903473,-0.08438284538903473
27.997000000000003,0.11513514588963314,-0.11513514588963314
27.998,0.13001240890180077,-0.13001240890180077
27.999,0.1316438139642242,-0.1316438139642242
28.000000000000004,0.12380165326432202,-0.12380165326432202
28.001,0.11021275619536097,-0.11021275619536097
28.002,0.09370343757010247,-0.09370343757010247
28.003,0.07580856452313556,-0.07580856452313556
28.004,0.056831718464624426,-0.056831718464624426
28.005000000000003,0.036240060085363845,-0.036240060085363845
28.006,0.013230741745945296,-0.013230741745945296
28.007,0.012690543322358305,0.012690543322358305
28.008000000000003,0.041243917923418305,0.041243917923418305
28.009,0.07110433575822239,0.07110433575822239
28.01,0.0998685863697546,0.0998685863697546
28.011000000000003,0.1242723553373648,0.1242723553373648
28.012,0.1406392378308392,0.1406392378308392
28.013,0.14550762454899568,0.14550762454899568
28.014000000000003,0.136339271354321,0.136339271354321
28.015,0.11217475916513919,0.11217475916513919
28.016,0.07408280793265853,0.07408280793265853
28.017000000000003,0.025268846409750356,0.025268846409750356
28.018,0.029230109880392763,-0.029230109880392763
28.019,0.08324181415022858,-0.08324181415022858
28.020000000000003,0.1304199347234638,-0.1304199347234638
28.021,0.1652644098571785,-0.1652644098571785
28.022,0.1839705857691093,-0.1839705857691093
28.023000000000003,0.1849194599167585,-0.1849194599167585
28.024,0.168721830368739,-0.168721830368739
28.025,0.137855952196848,-0.137855952196848
28.026000000000003,0.09604873646448842,-0.09604873646448842
28.027,0.047606112695224856,-0.047606112695224856
28.028,0.0031205005766854477,0.0031205005766854477
28.029000000000003,0.05202962670051958,0.05202962670051958
28.03,0.09534281696800284,0.09534281696800284
28.031,0.1295746205635664,0.1295746205635664
28.032000000000004,0.1515650684609704,0.1515650684609704
28.033,0.15870812595906458,0.15870812595906458
28.034,0.14940818605526163,0.14940818605526163
28.035,0.12366432159961693,0.12366432159961693
28.036,0.08357240665718035,0.08357240665718035
28.037000000000003,0.033497410715607856,0.033497410715607856
28.038,0.020272936642628636,-0.020272936642628636
28.039,0.07043690620210508,-0.07043690620210508
28.040000000000003,0.11000717743551791,-0.11000717743551791
28.041,0.13375206628448522,-0.13375206628448522
28.042,0.13936236931194612,-0.13936236931194612
28.043000000000003,0.1279956408264743,-0.1279956408264743
28.044,0.10400419188121524,-0.10400419188121524
28.045,0.07387897885794126,-0.07387897885794126
28.046000000000003,0.04466858899714066,-0.04466858899714066
28.047,0.022287864986532346,-0.022287864986532346
28.048,0.010163816382838142,-0.010163816382838142
28.049000000000003,0.008566590513883199,-0.008566590513883199
28.05,0.014773073379901192,-0.014773073379901192
28.051,0.023974753320908704,-0.023974753320908704
28.052000000000003,0.030643925949331963,-0.030643925949331963
28.053,0.029971541595728568,-0.029971541595728568
28.054,0.019009620347630873,-0.019009620347630873
28.055000000000003,0.0027261258568416213,0.0027261258568416213
28.056,0.03326170747127244,0.03326170747127244
28.057,0.0686794277626055,0.0686794277626055
28.058000000000003,0.1039365704569506,0.1039365704569506
28.059,0.13376166824446134,0.13376166824446134
28.06,0.15345435963390486,0.15345435963390486
28.061000000000003,0.1595040886772936,0.1595040886772936
28.062,0.15002253144180333,0.15002253144180333
28.063,0.12501978412487924,0.12501978412487924
28.064,0.08653635921036162,0.08653635921036162
28.065,0.0385924251419969,0.0385924251419969
28.066000000000003,0.013127860608360131,-0.013127860608360131
28.067,0.06193583463277619,-0.06193583463277619
28.068,0.10115051384439977,-0.10115051384439977
28.069000000000003,0.12534785862224418,-0.12534785862224418
28.07,0.13159598131438965,-0.13159598131438965
28.071,0.1203383152332338,-0.1203383152332338
28.072000000000003,0.0956004394840857,-0.0956004394840857
28.073,0.06433100235606659,-0.06433100235606659
28.074,0.03491864517015342,-0.03491864517015342
28.075000000000003,0.015188712220281286,-0.015188712220281286
28.076,0.010387509810441009,-0.010387509810441009
28.077,0.021728239567759156,-0.021728239567759156
28.078000000000003,0.04596103953871722,-0.04596103953871722
28.079,0.07615767233033655,-0.07615767233033655
28.08,0.10354476021702763,-0.10354476021702763
28.081000000000003,0.11988947330129085,-0.11988947330129085
28.082,0.1197492795033952,-0.1197492795033952
28.083,0.10191474661305189,-0.10191474661305189
28.084000000000003,0.06960692875731378,-0.06960692875731378
28.085,0.02937185375073026,-0.02937185375073026
28.086,0.010975662451266022,0.010975662451266022
28.087000000000003,0.0447023846182899,0.0447023846182899
28.088,0.06804932628373939,0.06804932628373939
28.089,0.08106465410687669,0.08106465410687669
28.090000000000003,0.08712461679800088,0.08712461679800088
28.091,0.09132660304721063,0.09132660304721063
28.092,0.09831628524045355,0.09831628524045355
28.093000000000004,0.11030257863569237,0.11030257863569237
28.094,0.12595330732267196,0.12595330732267196
28.095,0.14056920030940567,0.14056920030940567
28.096,0.147501993755917,0.147501993755917
28.097,0.14035906648631902,0.14035906648631902
28.098000000000003,0.11526546164393081,0.11526546164393081
28.099,0.07242691673275492,0.07242691673275492
28.1,0.016464584219374467,0.016464584219374467
28.101000000000003,0.04460297373534006,-0.04460297373534006
28.102,0.1014091710762558,-0.1014091710762558
28.103,0.14566296557428982,-0.14566296557428982
28.104000000000003,0.17217643502651425,-0.17217643502651425
28.105,0.17987261834280677,-0.17987261834280677
28.106,0.17150345166883507,-0.17150345166883507
28.107000000000003,0.15224553820695652,-0.15224553820695652
28.108,0.12771289264603758,-0.12771289264603758
28.109,0.1021039061274448,-0.1021039061274448
28.110000000000003,0.07712547581703422,-0.07712547581703422
28.111,0.05203921911361653,-0.05203921911361653
28.112,0.024759122460600302,-0.024759122460600302
28.113000000000003,0.006456546696978371,0.006456546696978371
28.114,0.041397642934023926,0.041397642934023926
28.115,0.0770353655233651,0.0770353655233651
28.116000000000003,0.10779370778574626,0.10779370778574626
28.117,0.1269494773078137,0.1269494773078137
28.118,0.1287371784278415,0.1287371784278415
28.119000000000003,0.1104584028390947,0.1104584028390947
28.12,0.0738543686347859,0.0738543686347859
28.121,0.025213247869007693,0.025213247869007693
28.122000000000003,0.02591698102447093,-0.02591698102447093
28.123,0.06908551820049957,-0.06908551820049957
28.124,0.09568269170160992,-0.09568269170160992
28.125000000000004,0.10124469183597207,-0.10124469183597207
28.126,0.08661303824288391,-0.08661303824288391
28.127,0.05758843793548607,-0.05758843793548607
28.128,0.023178997440753135,-0.023178997440753135
28.129,0.007029348912579225,0.007029348912579225
28.130000000000003,0.025591572484278124,0.025591572484278124
28.131,0.02920841823621667,0.02920841823621667
28.132,0.019445881808045407,0.019445881808045407
28.133000000000003,0.00199737192141769,0.00199737192141769
28.134,0.01524369552894067,-0.01524369552894067
28.135,0.024689381107038333,-0.024689381107038333
28.136000000000003,0.02138233845544857,-0.02138233845544857
28.137,0.004467693953046359,-0.004467693953046359
28.138,0.02258035197196606,0.02258035197196606
