Czas,AbsSum,Sum
85.81,0.00597565639599803,0.00597565639599803
85.811,0.004338794116887532,0.004338794116887532
85.81200000000001,0.0015215684910774383,0.0015215684910774383
85.813,0.0024817267684609364,-0.0024817267684609364
85.81400000000001,0.007336895863890064,-0.007336895863890064
85.81500000000001,0.012359182265769446,-0.012359182265769446
85.816,0.016616210879633293,-0.016616210879633293
85.81700000000001,0.019134119141862232,-0.019134119141862232
85.81800000000001,0.019158635441869003,-0.019158635441869003
85.819,0.016396353085348318,-0.016396353085348318
85.82000000000001,0.011157246058056762,-0.011157246058056762
85.82100000000001,0.004341696301336923,-0.004341696301336923
85.822,0.0027409592602625,0.0027409592602625
85.82300000000001,0.008683059925250775,0.008683059925250775
85.82400000000001,0.012335313421870329,0.012335313421870329
85.825,0.013106479972925942,0.013106479972925942
85.82600000000001,0.011115118943197609,0.011115118943197609
85.82700000000001,0.007144474222003456,0.007144474222003456
85.828,0.002410972209679153,0.002410972209679153
85.82900000000001,0.001785312293628087,-0.001785312293628087
85.83000000000001,0.004422617922710673,-0.004422617922710673
85.831,0.005022443286433931,-0.005022443286433931
85.83200000000001,0.003739473957814825,-0.003739473957814825
85.83300000000001,0.0012552266075476705,-0.0012552266075476705
85.834,0.0014824822735025778,0.0014824822735025778
85.83500000000001,0.00358327505501034,0.00358327505501034
85.83600000000001,0.004492238041359077,0.004492238041359077
85.837,0.004132227578095154,0.004132227578095154
85.83800000000001,0.002869599898445307,0.002869599898445307
85.83900000000001,0.0013248384257975648,0.0013248384257975648
85.84,0.0001034328588469546,0.0001034328588469546
85.84100000000001,0.000450937930650025,-0.000450937930650025
85.84200000000001,0.00038864193680152433,-0.00038864193680152433
85.843,0.00012226465802999084,-0.00012226465802999084
85.84400000000001,0.0002419693241838302,-0.0002419693241838302
85.84500000000001,0.0012464974617848739,-0.0012464974617848739
85.846,0.003291490133593274,-0.003291490133593274
85.84700000000001,0.006053889063736528,-0.006053889063736528
85.84800000000001,0.008772504887032805,-0.008772504887032805
85.849,0.010463386358832951,-0.010463386358832951
85.85000000000001,0.010245531450787085,-0.010245531450787085
85.85100000000001,0.007669791893687732,-0.007669791893687732
85.852,0.0029368493606825347,-0.0029368493606825347
85.85300000000001,0.0030778817891868333,0.0030778817891868333
85.85400000000001,0.00901369766081932,0.00901369766081932
85.855,0.013379892498605644,0.013379892498605644
85.85600000000001,0.014972899519536247,0.014972899519536247
85.85700000000001,0.013228632929182936,0.013228632929182936
85.858,0.008401224407392088,0.008401224407392088
85.85900000000001,0.0015119850419720675,0.0015119850419720675
85.86000000000001,0.005917243867879493,-0.005917243867879493
85.861,0.012266848170438443,-0.012266848170438443
85.86200000000001,0.01623916788874251,-0.01623916788874251
85.863,0.017174100860529274,-0.017174100860529274
85.864,0.01517476116906335,-0.01517476116906335
85.86500000000001,0.011017500869020551,-0.011017500869020551
85.866,0.005885752927944555,-0.005885752927944555
85.867,0.0010167486199549993,-0.0010167486199549993
85.86800000000001,0.0026303982034899254,0.0026303982034899254
85.869,0.004591663380990206,0.004591663380990206
85.87,0.0049488475866972725,0.0049488475866972725
85.87100000000001,0.004217200646015712,0.004217200646015712
85.872,0.00312163338656322,0.00312163338656322
85.873,0.0023412435697852847,0.0023412435697852847
85.87400000000001,0.0023024957192810196,0.0023024957192810196
85.875,0.003077148010371644,0.003077148010371644
85.876,0.004402226020673348,0.004402226020673348
85.87700000000001,0.005799948810722611,0.005799948810722611
85.878,0.006748114250534126,0.006748114250534126
85.879,0.006843239369785754,0.006843239369785754
85.88000000000001,0.005909705240823807,0.005909705240823807
85.881,0.004031901547471598,0.004031901547471598
85.882,0.0015131593021997624,0.0015131593021997624
85.88300000000001,0.0012141877401609339,-0.0012141877401609339
85.884,0.0036945855238095316,-0.0036945855238095316
85.885,0.005541512671330037,-0.005541512671330037
85.88600000000001,0.00649876639922534,-0.00649876639922534
85.887,0.006467222034092463,-0.006467222034092463
85.888,0.005503564514776492,-0.005503564514776492
85.88900000000001,0.0038008062494452204,-0.0038008062494452204
85.89,0.0016577156686414963,-0.0016577156686414963
85.891,0.0005608712332588998,0.0005608712332588998
85.89200000000001,0.0024741729252597106,0.0024741729252597106
85.893,0.003745906496600153,0.003745906496600153
85.894,0.004148884145201863,0.004148884145201863
85.89500000000001,0.00361996816378696,0.00361996816378696
85.896,0.0022870328023307626,0.0022870328023307626
85.897,0.0004520414733742666,0.0004520414733742666
85.89800000000001,0.0014749994574495568,-0.0014749994574495568
85.899,0.0030801992967101816,-0.0030801992967101816
85.9,0.0040609380603868865,-0.0040609380603868865
85.90100000000001,0.004315736521643507,-0.004315736521643507
85.902,0.003975398534693676,-0.003975398534693676
85.903,0.0033577983968470105,-0.0033577983968470105
85.90400000000001,0.0028534308937239973,-0.0028534308937239973
85.905,0.00277444883039392,-0.00277444883039392
85.906,0.0032169835852009212,-0.0032169835852009212
85.90700000000001,0.003987802319919659,-0.003987802319919659
85.908,0.004629590659764595,-0.004629590659764595
85.909,0.0045484934833732536,-0.0045484934833732536
85.91000000000001,0.0032124906160578078,-0.0032124906160578078
85.911,0.0003615663419628018,-0.0003615663419628018
85.912,0.003839420396250894,0.003839420396250894
85.91300000000001,0.00876200456334894,0.00876200456334894
85.914,0.013414410136442295,0.013414410136442295
85.915,0.016663535469186044,0.016663535469186044
85.91600000000001,0.017522115945049127,0.017522115945049127
85.917,0.015421266864629003,0.015421266864629003
85.918,0.01038925787883672,0.01038925787883672
85.91900000000001,0.0030823906983498107,0.0030823906983498107
85.92,0.005344190315934781,-0.005344190315934781
85.921,0.01349197159854318,-0.01349197159854318
85.92200000000001,0.02003132859217751,-0.02003132859217751
85.923,0.023986477324601938,-0.023986477324601938
85.924,0.024919609023575384,-0.024919609023575384
85.92500000000001,0.022972478689724796,-0.022972478689724796
85.926,0.018766185856151862,-0.018766185856151862
85.927,0.013199576203251708,-0.013199576203251708
85.92800000000001,0.007211638984691501,-0.007211638984691501
85.929,0.0015767895862035953,-0.0015767895862035953
85.93,0.003215515243390254,0.003215515243390254
85.93100000000001,0.006976704560641126,0.006976704560641126
85.932,0.009744672253639524,0.009744672253639524
85.933,0.01165922803875876,0.01165922803875876
85.93400000000001,0.012838123854127127,0.012838123854127127
85.935,0.013297415401359194,0.013297415401359194
85.936,0.012939560842434455,0.012939560842434455
85.93700000000001,0.011606870432970769,0.011606870432970769
85.938,0.009175642337688274,0.009175642337688274
85.93900000000001,0.005654389262199144,0.005654389262199144
85.94000000000001,0.0012506667914708339,0.0012506667914708339
85.941,0.0036167252120681698,-0.0036167252120681698
85.94200000000001,0.008365247811520232,-0.008365247811520232
85.94300000000001,0.012343313840872816,-0.012343313840872816
85.944,0.014947864587954567,-0.014947864587954567
85.94500000000001,0.015737082890713155,-0.015737082890713155
85.94600000000001,0.01451473891725297,-0.01451473891725297
85.947,0.011371661289267917,-0.011371661289267917
85.94800000000001,0.00667987159846031,-0.00667987159846031
85.94900000000001,0.0010431172633144448,-0.0010431172633144448
85.95,0.004787279834482013,0.004787279834482013
85.95100000000001,0.010019625206123862,0.010019625206123862
85.95200000000001,0.013938793905202163,0.013938793905202163
85.953,0.016017832785083473,0.016017832785083473
85.95400000000001,0.01600733369176938,0.01600733369176938
85.95500000000001,0.013985237918254376,0.013985237918254376
85.956,0.010352690192760843,0.010352690192760843
85.95700000000001,0.005769396983245015,0.005769396983245015
85.95800000000001,0.0010343617084301712,0.0010343617084301712
85.959,0.0030677242044004987,-0.0030677242044004987
85.96000000000001,0.005922152135112163,-0.005922152135112163
85.96100000000001,0.007204781705354631,-0.007204781705354631
85.962,0.006935838002773878,-0.006935838002773878
85.96300000000001,0.00545098070861463,-0.00545098070861463
85.96400000000001,0.003296067064121468,-0.003296067064121468
85.965,0.0010743780494132556,-0.0010743780494132556
85.96600000000001,0.0007100217955860063,0.0007100217955860063
85.96700000000001,0.0017672787184592389,0.0017672787184592389
85.968,0.002062361165152708,0.002062361165152708
85.96900000000001,0.001772505389376375,0.001772505389376375
85.97000000000001,0.0011802400555997361,0.0011802400555997361
85.971,0.0005424896742095795,0.0005424896742095795
85.97200000000001,1.560331350151353e-05,-1.560331350151353e-05
85.97300000000001,0.0005423970088503263,-0.0005423970088503263
85.974,0.0012207222882794709,-0.0012207222882794709
85.97500000000001,0.0022620088466420566,-0.0022620088466420566
85.97600000000001,0.0037737631562514244,-0.0037737631562514244
85.977,0.005653271459548747,-0.005653271459548747
85.97800000000001,0.007554158305305393,-0.007554158305305393
85.97900000000001,0.008948537423179895,-0.008948537423179895
85.98,0.009273630622848712,-0.009273630622848712
85.98100000000001,0.008119545289427155,-0.008119545289427155
85.98200000000001,0.005396011241803571,-0.005396011241803571
85.983,0.0014177379169736859,-0.0014177379169736859
85.98400000000001,0.003128867380789725,0.003128867380789725
85.98500000000001,0.007337541228525724,0.007337541228525724
85.986,0.010313113671062392,0.010313113671062392
85.98700000000001,0.01141409537334782,0.01141409537334782
85.988,0.010432696962012654,0.010432696962012654
85.989,0.007655546654619555,0.007655546654619555
85.99000000000001,0.0037847887272578025,0.0037847887272578025
85.991,0.00025719310304408646,-0.00025719310304408646
85.992,0.0035798643273020248,-0.0035798643273020248
85.99300000000001,0.005556868748055034,-0.005556868748055034
85.994,0.005969917755811866,-0.005969917755811866
85.995,0.00502551571095504,-0.00502551571095504
85.99600000000001,0.003247527734794408,-0.003247527734794408
85.997,0.0012879167062944698,-0.0012879167062944698
85.998,0.00027827155320543016,0.00027827155320543016
85.99900000000001,0.001106994494379424,0.001106994494379424
86.0,0.0011436669952548549,0.0011436669952548549
86.001,0.0005774114869839987,0.0005774114869839987
86.00200000000001,0.00028038170859388155,-0.00028038170859388155
86.003,0.0011398536064942942,-0.0011398536064942942
86.004,0.001841480586180433,-0.001841480586180433
86.00500000000001,0.002390099314427736,-0.002390099314427736
86.006,0.0029064064400846587,-0.0029064064400846587
86.007,0.003522294087690207,-0.003522294087690207
86.00800000000001,0.004269476598355719,-0.004269476598355719
86.009,0.005014027218294295,-0.005014027218294295
86.01,0.005471267361637735,-0.005471267361637735
86.01100000000001,0.005302646358823576,-0.005302646358823576
86.012,0.004261261020993957,-0.004261261020993957
86.013,0.0023291226950566176,-0.0023291226950566176
86.01400000000001,0.00021308050548967604,0.00021308050548967604
86.015,0.0028220831523559976,0.0028220831523559976
86.016,0.004834837224681289,0.004834837224681289
86.01700000000001,0.00567788220738554,0.00567788220738554
86.018,0.005073943094160497,0.005073943094160497
86.019,0.003170535102388017,0.003170535102388017
86.02000000000001,0.0005365321390836193,0.0005365321390836193
86.021,0.0019850414985747343,-0.0019850414985747343
86.022,0.0035301597185672133,-0.0035301597185672133
86.02300000000001,0.0034953643539541047,-0.0034953643539541047
86.024,0.0017549806028554521,-0.0017549806028554521
86.025,0.0012629729336117188,0.0012629729336117188
86.02600000000001,0.004676106364434477,0.004676106364434477
86.027,0.007399389737265401,0.007399389737265401
86.028,0.00847474961675867,0.00847474961675867
86.02900000000001,0.007375046672643396,0.007375046672643396
86.03,0.004183409844177958,0.004183409844177958
86.031,0.0004135988661286791,-0.0004135988661286791
86.03200000000001,0.005321515791102965,-0.005321515791102965
86.033,0.009363328427551562,-0.009363328427551562
86.034,0.01163235631419799,-0.01163235631419799
86.03500000000001,0.011759756985514378,-0.011759756985514378
86.036,0.010010116361992281,-0.010010116361992281
86.037,0.007173817533401131,-0.007173817533401131
86.03800000000001,0.0042911301221604725,-0.0042911301221604725
86.039,0.002298430095006735,-0.002298430095006735
86.04,0.0017131443410037047,-0.0017131443410037047
86.04100000000001,0.0024619220574027484,-0.0024619220574027484
86.042,0.003909790435024843,-0.003909790435024843
86.043,0.005081822651796338,-0.005081822651796338
86.04400000000001,0.005004903475782277,-0.005004903475782277
86.045,0.003056714438483522,-0.003056714438483522
86.046,0.0007943563784534805,0.0007943563784534805
86.04700000000001,0.005939661576172343,0.005939661576172343
86.048,0.011290271305147,0.011290271305147
86.049,0.015596813536100566,0.015596813536100566
86.05000000000001,0.01782663730880618,0.01782663730880618
86.051,0.017476368403193998,0.017476368403193998
86.052,0.014718548641778571,0.014718548641778571
86.05300000000001,0.01033502452274608,0.01033502452274608
86.054,0.005459394123458648,0.005459394123458648
86.055,0.0012132371443407803,0.0012132371443407803
86.05600000000001,0.0016445203561021105,-0.0016445203561021105
86.057,0.0029403579956992906,-0.0029403579956992906
86.058,0.003108647088657195,-0.003108647088657195
86.05900000000001,0.003007709160130816,-0.003007709160130816
86.06,0.003591582641017089,-0.003591582641017089
86.061,0.005547518216308316,-0.005547518216308316
86.06200000000001,0.009020899296391981,-0.009020899296391981
86.063,0.01352084823376857,-0.01352084823376857
86.06400000000001,0.018040513738955412,-0.018040513738955412
86.06500000000001,0.021355367933624563,-0.021355367933624563
86.066,0.022403971685507458,-0.022403971685507458
86.06700000000001,0.020627951894041624,-0.020627951894041624
86.06800000000001,0.016160535166395932,-0.016160535166395932
86.069,0.009801848754264904,-0.009801848754264904
86.07000000000001,0.002788384162650198,-0.002788384162650198
86.07100000000001,0.003569112089937067,0.003569112089937067
86.072,0.00826241718113003,0.00826241718113003
86.07300000000001,0.01085598584371423,0.01085598584371423
86.07400000000001,0.011564557538858636,0.011564557538858636
86.075,0.011115917705061273,0.011115917705061273
86.07600000000001,0.010447573859433715,0.010447573859433715
86.07700000000001,0.010341268643414708,0.010341268643414708
86.078,0.011120275498111815,0.011120275498111815
86.07900000000001,0.012514152413922229,0.012514152413922229
86.08000000000001,0.013740391030500508,0.013740391030500508
86.081,0.013780021059076667,0.013780021059076667
86.08200000000001,0.011758314238614148,0.011758314238614148
86.08300000000001,0.007304010789251171,0.007304010789251171
86.084,0.0007637478695676315,0.0007637478695676315
86.08500000000001,0.006807792889556521,-0.006807792889556521
86.08600000000001,0.01389065701865167,-0.01389065701865167
86.087,0.01890858718847566,-0.01890858718847566
86.08800000000001,0.020681842975835106,-0.020681842975835106
86.08900000000001,0.018783839124351623,-0.018783839124351623
86.09,0.013688107614433516,-0.013688107614433516
86.09100000000001,0.00665505573014621,-0.00665505573014621
86.09200000000001,0.0006121019691005599,0.0006121019691005599
86.093,0.006441092759297243,0.006441092759297243
86.09400000000001,0.009651967334986512,0.009651967334986512
86.09500000000001,0.009867159124477894,0.009867159124477894
86.096,0.00757767217446836,0.00757767217446836
86.09700000000001,0.003948200478865119,0.003948200478865119
86.09800000000001,0.00042471843697155495,0.00042471843697155495
86.099,0.001731136002407993,-0.001731136002407993
86.10000000000001,0.0018348458997751896,-0.0018348458997751896
86.10100000000001,2.290802239737593e-05,2.290802239737593e-05
86.102,0.003032363585978424,0.003032363585978424
86.10300000000001,0.0059535868391130346,0.0059535868391130346
86.10400000000001,0.00754298218576131,0.00754298218576131
86.105,0.006978852131301433,0.006978852131301433
86.10600000000001,0.004148245770468488,0.004148245770468488
86.10700000000001,0.00029800086712727513,-0.00029800086712727513
86.108,0.005140777215868552,-0.005140777215868552
86.10900000000001,0.008977082312951405,-0.008977082312951405
86.11000000000001,0.010670668276986765,-0.010670668276986765
86.111,0.009724309696682719,-0.009724309696682719
86.11200000000001,0.006453056815645005,-0.006453056815645005
86.113,0.001900355718726041,-0.001900355718726041
86.114,0.0024797286798119754,0.0024797286798119754
86.11500000000001,0.0052764789660656895,0.0052764789660656895
86.116,0.005570959646337261,0.005570959646337261
86.117,0.0032376345780765117,0.0032376345780765117
86.11800000000001,0.0009972514403530854,-0.0009972514403530854
86.119,0.005761667928707347,-0.005761667928707347
86.12,0.009447203544351293,-0.009447203544351293
86.12100000000001,0.01069766894080063,-0.01069766894080063
86.122,0.008828016780148914,-0.008828016780148914
86.123,0.004046151133860984,-0.004046151133860984
86.12400000000001,0.002589154073986129,0.002589154073986129
86.125,0.009460300899628316,0.009460300899628316
86.126,0.014843417151548256,0.014843417151548256
86.12700000000001,0.01738493270761125,0.01738493270761125
86.128,0.01646133620194464,0.01646133620194464
86.129,0.0123201283924621,0.0123201283924621
86.13000000000001,0.00596911618427014,0.00596911618427014
86.131,0.0011416355013634755,-0.0011416355013634755
86.132,0.007539951806210103,-0.007539951806210103
86.13300000000001,0.012122503729997588,-0.012122503729997588
86.134,0.0144012429033125,-0.0144012429033125
86.135,0.014541554966561664,-0.014541554966561664
86.13600000000001,0.013197907954218099,-0.013197907954218099
86.137,0.011217310623238917,-0.011217310623238917
86.138,0.009319668059814,-0.009319668059814
86.13900000000001,0.007865262992069834,-0.007865262992069834
86.14,0.006783851529905295,-0.006783851529905295
86.141,0.00568015347351665,-0.00568015347351665
86.14200000000001,0.004067481307961974,-0.004067481307961974
86.143,0.0016363344168554678,-0.0016363344168554678
86.144,0.0015468933763867433,0.0015468933763867433
86.14500000000001,0.004990580703168933,0.004990580703168933
86.146,0.007903738821208211,0.007903738821208211
86.147,0.009459254675297823,0.009459254675297823
86.14800000000001,0.009104949785707259,0.009104949785707259
86.149,0.006811039190661494,0.006811039190661494
86.15,0.0031588161341753692,0.0031588161341753692
86.15100000000001,0.0007747818573452257,-0.0007747818573452257
86.152,0.0037145011862431783,-0.0037145011862431783
86.153,0.004580576841371663,-0.004580576841371663
86.15400000000001,0.002855965282302828,-0.002855965282302828
86.155,0.0011948121086948812,0.0011948121086948812
86.156,0.0065360066992887714,0.0065360066992887714
86.15700000000001,0.011612077315240556,0.011612077315240556
86.158,0.014776605934033427,0.014776605934033427
86.159,0.014776693145715784,0.014776693145715784
86.16000000000001,0.011148468720711305,0.011148468720711305
86.161,0.004400919015856197,0.004400919015856197
86.162,0.004074949236621508,-0.004074949236621508
86.16300000000001,0.01235415089814063,-0.01235415089814063
86.164,0.018488659614813194,-0.018488659614813194
86.165,0.021037008981145935,-0.021037008981145935
86.16600000000001,0.019460652134730395,-0.019460652134730395
86.167,0.014272341702300385,-0.014272341702300385
86.168,0.006892904680045243,-0.006892904680045243
86.16900000000001,0.0007431991356151996,0.0007431991356151996
86.17,0.006721028431103443,0.006721028431103443
86.171,0.00966538724203851,0.00966538724203851
86.17200000000001,0.00910150731862397,0.00910150731862397
86.173,0.0055567621308725435,0.0055567621308725435
86.174,0.0003790956459413084,0.0003790956459413084
86.17500000000001,0.004671284928222228,-0.004671284928222228
86.176,0.007937156231356282,-0.007937156231356282
86.177,0.008338804485023273,-0.008338804485023273
86.17800000000001,0.005674828462679156,-0.005674828462679156
86.179,0.0006681662270294873,-0.0006681662270294873
86.18,0.005250201192945358,0.005250201192945358
86.18100000000001,0.010353726776084635,0.010353726776084635
86.182,0.01310967798270995,0.01310967798270995
86.183,0.012607805867308745,0.012607805867308745
86.18400000000001,0.008811126372853384,0.008811126372853384
86.185,0.0025638604261281894,0.0025638604261281894
86.186,0.004639968454577009,-0.004639968454577009
86.18700000000001,0.011058532315846373,-0.011058532315846373
86.188,0.015161772404558994,-0.015161772404558994
86.18900000000001,0.016023525202053506,-0.016023525202053506
86.19000000000001,0.013543471281281392,-0.013543471281281392
86.191,0.00844539371332967,-0.00844539371332967
86.19200000000001,0.0020600260035206625,-0.0020600260035206625
86.19300000000001,0.0040419932486212545,0.0040419932486212545
86.194,0.008464054678282217,0.008464054678282217
86.19500000000001,0.010332934849901809,0.010332934849901809
86.19600000000001,0.009493804489270665,0.009493804489270665
86.197,0.006505996389039698,0.006505996389039698
86.19800000000001,0.0024497928768089155,0.0024497928768089155
86.19900000000001,0.0013952750480829281,-0.0013952750480829281
86.2,0.0039081608875941,-0.0039081608875941
86.20100000000001,0.004421913429104464,-0.004421913429104464
86.20200000000001,0.002880227515538378,-0.002880227515538378
86.203,0.00018055951270364387,0.00018055951270364387
86.20400000000001,0.003809907138454982,0.003809907138454982
86.20500000000001,0.0069240729497011145,0.0069240729497011145
86.206,0.00860599649340976,0.00860599649340976
86.20700000000001,0.008339328982046949,0.008339328982046949
86.20800000000001,0.006115184249456889,0.006115184249456889
86.209,0.0023904477857970745,0.0023904477857970745
86.21000000000001,0.0020786121554225616,-0.0020786121554225616
86.21100000000001,0.006467711425619695,-0.006467711425619695
86.212,0.010104928603157117,-0.010104928603157117
86.21300000000001,0.012612325103996699,-0.012612325103996699
86.21400000000001,0.013930761284205269,-0.013930761284205269
86.215,0.014231347455316842,-0.014231347455316842
86.21600000000001,0.01375653169669829,-0.01375653169669829
86.21700000000001,0.012658170505037357,-0.012658170505037357
86.218,0.010900489472269173,-0.010900489472269173
86.21900000000001,0.008271794965319353,-0.008271794965319353
86.22000000000001,0.004507671107504768,-0.004507671107504768
86.221,0.000516057127535118,0.000516057127535118
86.22200000000001,0.0065944383540475025,0.0065944383540475025
86.22300000000001,0.013089890834145896,0.013089890834145896
86.224,0.018973597070641574,0.018973597070641574
86.22500000000001,0.023025540563331958,0.023025540563331958
86.22600000000001,0.024151165796251962,0.024151165796251962
86.227,0.021725462747974683,0.021725462747974683
86.22800000000001,0.01585381441489057,0.01585381441489057
86.22900000000001,0.00745294096848926,0.00745294096848926
86.23,0.0018967961428554211,-0.0018967961428554211
86.23100000000001,0.010307717039193667,-0.010307717039193667
86.23200000000001,0.01606132175614757,-0.01606132175614757
86.233,0.018071005037873143,-0.018071005037873143
86.23400000000001,0.016191086157274947,-0.016191086157274947
86.23500000000001,0.01127057348836981,-0.01127057348836981
86.236,0.004923104083670579,-0.004923104083670579
86.23700000000001,0.0009293033981877744,0.0009293033981877744
86.238,0.004608715350171169,0.004608715350171169
86.239,0.005165483237829774,0.005165483237829774
86.24000000000001,0.00264576249923481,0.00264576249923481
86.241,0.001942520474070135,-0.001942520474070135
86.242,0.006957806437019266,-0.006957806437019266
86.24300000000001,0.010647372904417862,-0.010647372904417862
86.244,0.011701771936264687,-0.011701771936264687
86.245,0.00966698278285382,-0.00966698278285382
86.24600000000001,0.005083817761843461,-0.005083817761843461
86.247,0.0006895289108092068,0.0006895289108092068
86.248,0.005914372856615112,0.005914372856615112
86.24900000000001,0.009026687632614584,0.009026687632614584
86.25,0.009130996222287337,0.009130996222287337
86.251,0.006273706743004703,0.006273706743004703
86.25200000000001,0.0014092201475721523,0.0014092201475721523
86.253,0.0039264837509216275,-0.0039264837509216275
86.254,0.00812350049217038,-0.00812350049217038
86.25500000000001,0.010016163493695164,-0.010016163493695164
86.256,0.009238826269305464,-0.009238826269305464
86.257,0.006302535697573462,-0.006302535697573462
86.25800000000001,0.002371610677868251,-0.002371610677868251
86.259,0.0011779176780873741,0.0011779176780873741
86.26,0.00326107929576728,0.00326107929576728
86.26100000000001,0.0034699999468623417,0.0034699999468623417
86.262,0.0022058981576052947,0.0022058981576052947
86.263,0.0005086644416093963,0.0005086644416093963
86.26400000000001,0.0003574281761608894,-0.0003574281761608894
86.265,0.0005846685443037581,0.0005846685443037581
86.266,0.0036005002236972083,0.0036005002236972083
86.26700000000001,0.008065770375192698,0.008065770375192698
86.268,0.012610096367823872,0.012610096367823872
86.269,0.015547550152914931,0.015547550152914931
86.27000000000001,0.015456172497724468,0.015456172497724468
86.271,0.01171079932229635,0.01171079932229635
86.272,0.00478141387410746,0.00478141387410746
86.27300000000001,0.0038181859337488764,-0.0038181859337488764
86.274,0.011932497017850601,-0.011932497017850601
86.275,0.017400379161960734,-0.017400379161960734
86.27600000000001,0.01872628336355498,-0.01872628336355498
86.277,0.015570034646639986,-0.015570034646639986
86.278,0.00889199694194512,-0.00889199694194512
86.27900000000001,0.0006984183693873452,-0.0006984183693873452
86.28,0.006540783927712011,0.006540783927712011
86.281,0.010624326828120546,0.010624326828120546
86.28200000000001,0.010276000276041768,0.010276000276041768
86.283,0.005523277402631281,0.005523277402631281
86.284,0.0023156099026406347,-0.0023156099026406347
86.28500000000001,0.011026533981756657,-0.011026533981756657
86.286,0.018148672520729357,-0.018148672520729357
86.287,0.02167564423874999,-0.02167564423874999
86.28800000000001,0.020597505218994953,-0.020597505218994953
86.289,0.01513065837452235,-0.01513065837452235
86.29,0.006586389844193378,-0.006586389844193378
86.29100000000001,0.003057523581788004,0.003057523581788004
86.292,0.011731242073750219,0.011731242073750219
86.293,0.017809891176778666,0.017809891176778666
86.29400000000001,0.02045847565215899,0.02045847565215899
86.295,0.019706336432921457,0.019706336432921457
86.296,0.016267870157959816,0.016267870157959816
86.29700000000001,0.011206359968195048,0.011206359968195048
86.298,0.005576603809278546,0.005576603809278546
86.299,0.00016937655027261827,0.00016937655027261827
86.30000000000001,0.004574583415955025,-0.004574583415955025
86.301,0.008487711239861697,-0.008487711239861697
86.302,0.011506557346578536,-0.011506557346578536
86.30300000000001,0.013511085115816855,-0.013511085115816855
86.304,0.014258868028768907,-0.014258868028768907
86.305,0.013450487154017197,-0.013450487154017197
86.30600000000001,0.01089760380927132,-0.01089760380927132
86.307,0.006712854423861336,-0.006712854423861336
86.308,0.0014228464663354017,-0.0014228464663354017
86.30900000000001,0.004069590170096891,0.004069590170096891
86.31,0.0086888659994647,0.0086888659994647
86.311,0.011500535544283182,0.011500535544283182
86.31200000000001,0.012026785660133309,0.012026785660133309
86.313,0.010440431613750882,0.010440431613750882
86.31400000000001,0.007547906290931542,0.007547906290931542
86.31500000000001,0.00454342185228531,0.00454342185228531
86.316,0.002601483349115248,0.002601483349115248
86.31700000000001,0.0024419235689468956,0.0024419235689468956
86.31800000000001,0.004024207367765156,0.004024207367765156
86.319,0.006494449449998789,0.006494449449998789
86.32000000000001,0.008427768624728776,0.008427768624728776
86.32100000000001,0.008306344798744373,0.008306344798744373
86.322,0.005085047438977376,0.005085047438977376
86.32300000000001,0.001346098463764857,-0.001346098463764857
86.32400000000001,0.009972479995501219,-0.009972479995501219
86.325,0.018827776592501167,-0.018827776592501167
86.32600000000001,0.025502642336426205,-0.025502642336426205
86.32700000000001,0.02784926248559077,-0.02784926248559077
86.328,0.024668967555886816,-0.024668967555886816
86.32900000000001,0.016163530911862657,-0.016163530911862657
86.33000000000001,0.00399501360207872,-0.00399501360207872
86.331,0.00908474335272875,0.00908474335272875
86.33200000000001,0.019941834365085793,0.019941834365085793
86.33300000000001,0.02590607856705567,0.02590607856705567
86.334,0.02550969640940698,0.02550969640940698
86.33500000000001,0.018902438535879248,0.018902438535879248
86.33600000000001,0.007821394895664514,0.007821394895664514
86.337,0.004875320846381109,-0.004875320846381109
86.33800000000001,0.015975134662064565,-0.015975134662064565
86.33900000000001,0.0227580171373797,-0.0227580171373797
86.34,0.023687182369014733,-0.023687182369014733
86.34100000000001,0.018759589507078588,-0.018759589507078588
86.34200000000001,0.009436307119836007,-0.009436307119836007
86.343,0.001805587640466526,0.001805587640466526
86.34400000000001,0.012155633483671182,0.012155633483671182
86.34500000000001,0.019189114310821726,0.019189114310821726
86.346,0.02143103964146338,0.02143103964146338
86.34700000000001,0.018633152713500363,0.018633152713500363
86.34800000000001,0.011722917203711615,0.011722917203711615
86.349,0.0024754426939623576,0.0024754426939623576
86.35000000000001,0.006974387647498534,-0.006974387647498534
86.35100000000001,0.014637734828282851,-0.014637734828282851
86.352,0.01907208555437201,-0.01907208555437201
86.35300000000001,0.01960170782134359,-0.01960170782134359
86.35400000000001,0.016344115186904505,-0.016344115186904505
86.355,0.010079345518215226,-0.010079345518215226
86.35600000000001,0.0020270882100722793,-0.0020270882100722793
86.35700000000001,0.006401312791614849,0.006401312791614849
86.358,0.013827003635504192,0.013827003635504192
86.35900000000001,0.019080995695860508,0.019080995695860508
86.36000000000001,0.021333522499462205,0.021333522499462205
86.361,0.020183551424755405,0.020183551424755405
86.36200000000001,0.015713015094812283,0.015713015094812283
86.363,0.008499382452354034,0.008499382452354034
86.364,0.00042913928766899034,-0.00042913928766899034
86.36500000000001,0.009711327353172832,-0.009711327353172832
86.366,0.017846379653238334,-0.017846379653238334
86.367,0.023443573833283375,-0.023443573833283375
86.36800000000001,0.0254850180293367,-0.0254850180293367
86.369,0.023543260150979763,-0.023543260150979763
86.37,0.017896549531173252,-0.017896549531173252
86.37100000000001,0.00950380040942595,-0.00950380040942595
86.372,0.00016567238480383326,0.00016567238480383326
86.373,0.009415388518623537,0.009415388518623537
86.37400000000001,0.01665568988127786,0.01665568988127786
86.375,0.020712740203127016,0.020712740203127016
86.376,0.021043633538905142,0.021043633538905142
86.37700000000001,0.017813386827594035,0.017813386827594035
86.378,0.011824285663342239,0.011824285663342239
86.379,0.004322517243210618,0.004322517243210618
86.38000000000001,0.0032679230529939827,-0.0032679230529939827
86.381,0.009623761810185661,-0.009623761810185661
86.382,0.013757906445307465,-0.013757906445307465
86.38300000000001,0.015172240188140455,-0.015172240188140455
86.384,0.013909063367534155,-0.013909063367534155
86.385,0.010502530799238666,-0.010502530799238666
86.38600000000001,0.005846917698246959,-0.005846917698246959
86.387,0.0010085083193089525,-0.0010085083193089525
86.388,0.0029866445103155,0.0029866445103155
86.38900000000001,0.005354428592203798,0.005354428592203798
86.39,0.005709326213644204,0.005709326213644204
86.391,0.004145207137021065,0.004145207137021065
86.39200000000001,0.001218680289424677,0.001218680289424677
86.393,0.0021705665143477476,-0.0021705665143477476
86.394,0.0049862392719925925,-0.0049862392719925925
86.39500000000001,0.006309170906319829,-0.006309170906319829
86.396,0.005580567871400256,-0.005580567871400256
86.397,0.0027712234897524462,-0.0027712234897524462
86.39800000000001,0.0015753925317408771,0.0015753925317408771
86.399,0.006449615781743276,0.006449615781743276
86.4,0.010615330318891114,0.010615330318891114
86.40100000000001,0.01292676888279126,0.01292676888279126
86.402,0.012638846835792071,0.012638846835792071
86.403,0.00962293768274366,0.00962293768274366
86.40400000000001,0.00442192433975911,0.00442192433975911
86.405,0.0018779011031348084,-0.0018779011031348084
86.406,0.007927261081446266,-0.007927261081446266
86.40700000000001,0.012469370550074505,-0.012469370550074505
86.408,0.014668680148180928,-0.014668680148180928
86.409,0.01431720680830244,-0.01431720680830244
86.41000000000001,0.011858584870325449,-0.011858584870325449
86.411,0.008224829436777999,-0.008224829436777999
86.412,0.004537589274556451,-0.004537589274556451
86.41300000000001,0.0017663448565973523,-0.0017663448565973523
86.414,0.0004476218887780149,-0.0004476218887780149
86.415,0.0005483183541451296,-0.0005483183541451296
86.41600000000001,0.0015097798892695301,-0.0015097798892695301
86.417,0.0024526044406664753,-0.0024526044406664753
86.418,0.00247362897644566,-0.00247362897644566
86.41900000000001,0.0009413274266101089,-0.0009413274266101089
86.42,0.0022990074274266813,0.0022990074274266813
86.421,0.006866564256392256,0.006866564256392256
86.42200000000001,0.011941389375028687,0.011941389375028687
86.423,0.016477705049094522,0.016477705049094522
86.424,0.019465136171490583,0.019465136171490583
86.42500000000001,0.02016226801360475,0.02016226801360475
86.426,0.018244443458467857,0.018244443458467857
86.427,0.013840798363368687,0.013840798363368687
86.42800000000001,0.007471299151981728,0.007471299151981728
86.429,7.94652132635345e-05,-7.94652132635345e-05
86.43,0.007906279958993572,-0.007906279958993572
86.43100000000001,0.01510844413141568,-0.01510844413141568
86.432,0.020879271455781223,-0.020879271455781223
86.433,0.02456404082143428,-0.02456404082143428
86.43400000000001,0.025703047920634093,-0.025703047920634093
86.435,0.024075867119137118,-0.024075867119137118
86.436,0.01975076459965716,-0.01975076459965716
86.43700000000001,0.01312627726951761,-0.01312627726951761
86.438,0.00493942387197721,-0.00493942387197721
86.43900000000001,0.003785778285022328,0.003785778285022328
86.44000000000001,0.011862521681319488,0.011862521681319488
86.441,0.018127684785138185,0.018127684785138185
86.44200000000001,0.021655165709782834,0.021655165709782834
86.44300000000001,0.021944362684593693,0.021944362684593693
86.444,0.01903185242553828,0.01903185242553828
86.44500000000001,0.013491730740833903,0.013491730740833903
86.44600000000001,0.006320061175201595,0.006320061175201595
86.447,0.001268551677608099,-0.001268551677608099
86.44800000000001,0.008080229251874434,-0.008080229251874434
86.44900000000001,0.013157504494154532,-0.013157504494154532
86.45,0.015923213330063444,-0.015923213330063444
86.45100000000001,0.016229374010062487,-0.016229374010062487
86.45200000000001,0.014317012817974394,-0.014317012817974394
86.453,0.010715700183653037,-0.010715700183653037
86.45400000000001,0.006120639464195099,-0.006120639464195099
86.45500000000001,0.001279121512189345,-0.001279121512189345
86.456,0.0030980995972011392,0.0030980995972011392
86.45700000000001,0.006402629817015156,0.006402629817015156
86.45800000000001,0.008183898218015372,0.008183898218015372
86.459,0.00820487976997329,0.00820487976997329
86.46000000000001,0.00649616427210489,0.00649616427210489
86.46100000000001,0.0033903562164836858,0.0033903562164836858
86.462,0.0004911436645108245,-0.0004911436645108245
86.46300000000001,0.004322870661988056,-0.004322870661988056
86.46400000000001,0.007235487683619759,-0.007235487683619759
86.465,0.00852522889914549,-0.00852522889914549
86.46600000000001,0.00785777878163116,-0.00785777878163116
86.46700000000001,0.005398087955394875,-0.005398087955394875
86.468,0.001808227647641163,-0.001808227647641163
86.46900000000001,0.0019090495571896027,0.0019090495571896027
86.47000000000001,0.004692398548768579,0.004692398548768579
86.471,0.0057519024236817795,0.0057519024236817795
86.47200000000001,0.004841272374312284,0.004841272374312284
86.47300000000001,0.002373081206893803,0.002373081206893803
86.474,0.000678778715254864,-0.000678778715254864
86.47500000000001,0.0030767113160684303,-0.0030767113160684303
86.47600000000001,0.0037329858194282885,-0.0037329858194282885
86.477,0.002106481121233354,-0.002106481121233354
86.47800000000001,0.0015562692499544407,0.0015562692499544407
86.47900000000001,0.006232093587259657,0.006232093587259657
86.48,0.010400598648592782,0.010400598648592782
86.48100000000001,0.012516345510639716,0.012516345510639716
86.48200000000001,0.011525989643622015,0.011525989643622015
86.483,0.007257180771124279,0.007257180771124279
86.48400000000001,0.000539354815308812,0.000539354815308812
86.48500000000001,0.006999540774481194,-0.006999540774481194
86.486,0.013408470595585609,-0.013408470595585609
86.48700000000001,0.01701365442134539,-0.01701365442134539
86.488,0.01694778381168888,-0.01694778381168888
86.489,0.013428857779980312,-0.013428857779980312
86.49000000000001,0.007688612732857129,-0.007688612732857129
86.491,0.0015669220884278205,-0.0015669220884278205
86.492,0.0030971579821737487,0.0030971579821737487
86.49300000000001,0.005074686920594071,0.005074686920594071
86.494,0.004149480341396315,0.004149480341396315
86.495,0.0011745670979498577,0.0011745670979498577
86.49600000000001,0.002240008350246778,-0.002240008350246778
86.497,0.004303697793202692,-0.004303697793202692
86.498,0.0036894610172843955,-0.0036894610172843955
86.49900000000001,2.318497660483702e-05,-2.318497660483702e-05
86.5,0.00595190034372456,0.00595190034372456
86.501,0.012594780396095446,0.012594780396095446
86.50200000000001,0.017896461286356087,0.017896461286356087
86.503,0.020138767106736316,0.020138767106736316
86.504,0.018456472550175552,0.018456472550175552
86.50500000000001,0.01311170159554319,0.01311170159554319
86.506,0.005391000584219306,0.005391000584219306
86.507,0.0028321160861023704,-0.0028321160861023704
86.50800000000001,0.00971018598622111,-0.00971018598622111
86.509,0.013992918060004642,-0.013992918060004642
86.51,0.015358853516202807,-0.015358853516202807
86.51100000000001,0.014400780879655163,-0.014400780879655163
86.512,0.012286467665750474,-0.012286467665750474
86.513,0.010235145821840938,-0.010235145821840938
86.51400000000001,0.009015864223882704,-0.009015864223882704
86.515,0.008661969920173008,-0.008661969920173008
86.516,0.008510799256596865,-0.008510799256596865
86.51700000000001,0.007550638583297312,-0.007550638583297312
86.518,0.004935621199147349,-0.004935621199147349
86.519,0.00045953486297259014,-0.00045953486297259014
86.52000000000001,0.005210956703760539,0.005210956703760539
86.521,0.01065606493563832,0.01065606493563832
86.522,0.014154128675903509,0.014154128675903509
86.52300000000001,0.014311541344955436,0.014311541344955436
86.524,0.010639505411162424,0.010639505411162424
86.525,0.003850988340046923,0.003850988340046923
86.52600000000001,0.0042576603523915265,-0.0042576603523915265
86.527,0.011329239252902575,-0.011329239252902575
86.528,0.01521074523994971,-0.01521074523994971
86.52900000000001,0.01470047810328117,-0.01470047810328117
86.53,0.010008016756872082,-0.010008016756872082
86.531,0.0027464251198870407,-0.0027464251198870407
86.53200000000001,0.004566041442420347,0.004566041442420347
86.533,0.009344142081227457,0.009344142081227457
86.534,0.009835904137911479,0.009835904137911479
86.53500000000001,0.005772919859225012,0.005772919859225012
86.536,0.001466829135320462,-0.001466829135320462
86.537,0.009260555603204752,-0.009260555603204752
86.53800000000001,0.014590539359635989,-0.014590539359635989
86.539,0.015067179306897315,-0.015067179306897315
86.54,0.00978153464705795,-0.00978153464705795
86.54100000000001,0.0003083628981784006,0.0003083628981784006
86.542,0.012602447109362081,0.012602447109362081
86.543,0.02363612756714375,0.02363612756714375
86.54400000000001,0.030163919208579294,0.030163919208579294
86.545,0.030195395630528876,0.030195395630528876
86.546,0.023640480296283344,0.023640480296283344
86.54700000000001,0.012347682147251857,0.012347682147251857
86.548,0.0004807258392081056,-0.0004807258392081056
86.549,0.011305818366807488,-0.011305818366807488
86.55000000000001,0.017367358600313982,-0.017367358600313982
86.551,0.017531856942276207,-0.017531856942276207
86.552,0.012598594381778322,-0.012598594381778322
86.55300000000001,0.004970728261999246,-0.004970728261999246
86.554,0.002190183852512632,0.002190183852512632
86.555,0.00603854963698253,0.00603854963698253
86.55600000000001,0.004989153152704735,0.004989153152704735
86.557,0.0007776825509215764,-0.0007776825509215764
86.558,0.009407781873970138,-0.009407781873970138
86.55900000000001,0.018018105890098564,-0.018018105890098564
86.56,0.023669266252626407,-0.023669266252626407
86.561,0.024337031126623818,-0.024337031126623818
86.56200000000001,0.01956341054735955,-0.01956341054735955
86.563,0.010582820319809746,-0.010582820319809746
86.56400000000001,0.00010198691599003277,0.00010198691599003277
86.56500000000001,0.009537960196965317,0.009537960196965317
86.566,0.015254223087112304,0.015254223087112304
86.56700000000001,0.01600343164378997,0.01600343164378997
86.56800000000001,0.012082482491106033,0.012082482491106033
86.569,0.00515131217646617,0.00515131217646617
86.57000000000001,0.002363766710118759,-0.002363766710118759
86.57100000000001,0.0080655920935191,-0.0080655920935191
86.572,0.01031287768220349,-0.01031287768220349
86.57300000000001,0.008651162649486257,-0.008651162649486257
86.57400000000001,0.0038343225996589425,-0.0038343225996589425
86.575,0.002533828615545115,0.002533828615545115
86.57600000000001,0.008585643226912843,0.008585643226912843
86.57700000000001,0.012789353676433322,0.012789353676433322
86.578,0.014363959246395004,0.014363959246395004
86.57900000000001,0.01339290690806304,0.01339290690806304
86.58000000000001,0.01063516072945849,0.01063516072945849
86.581,0.007137453835280956,0.007137453835280956
86.58200000000001,0.003810690610160435,0.003810690610160435
86.58300000000001,0.0011292393220162101,0.0011292393220162101
86.584,0.0009492876320505679,-0.0009492876320505679
86.58500000000001,0.002837741371583483,-0.002837741371583483
86.58600000000001,0.005026959166996641,-0.005026959166996641
86.587,0.007777254012900816,-0.007777254012900816
86.58800000000001,0.01092149371933034,-0.01092149371933034
86.58900000000001,0.013856982101230708,-0.013856982101230708
86.59,0.0157269275785001,-0.0157269275785001
86.59100000000001,0.01571993834331691,-0.01571993834331691
86.59200000000001,0.013374376827921228,-0.013374376827921228
86.593,0.008777039119497006,-0.008777039119497006
86.59400000000001,0.0025886030189877576,-0.0025886030189877576
86.59500000000001,0.004107122464526724,0.004107122464526724
86.596,0.010072460363329549,0.010072460363329549
86.59700000000001,0.014211430207917035,0.014211430207917035
86.59800000000001,0.015801530364017102,0.015801530364017102
86.599,0.014605971216307323,0.014605971216307323
86.60000000000001,0.01086036455675118,0.01086036455675118
86.60100000000001,0.005171563251148983,0.005171563251148983
86.602,0.0016133412881195388,-0.0016133412881195388
86.60300000000001,0.008518986027871803,-0.008518986027871803
86.60400000000001,0.014517080555567085,-0.014517080555567085
86.605,0.018583867223468185,-0.018583867223468185
86.60600000000001,0.019780477508128926,-0.019780477508128926
86.60700000000001,0.01739184946847475,-0.01739184946847475
86.608,0.011127225184649378,-0.011127225184649378
86.60900000000001,0.0013380957139975018,-0.0013380957139975018
86.61000000000001,0.010830566461128533,0.010830566461128533
86.611,0.023451366148777582,0.023451366148777582
86.61200000000001,0.03405420221817033,0.03405420221817033
86.613,0.0400947631832516,0.0400947631832516
86.614,0.03956819509431275,0.03956819509431275
86.61500000000001,0.03161266271290083,0.03161266271290083
86.616,0.01691704777982778,0.01691704777982778
86.617,0.002224609829719958,-0.002224609829719958
86.61800000000001,0.02228367365049683,-0.02228367365049683
86.619,0.03924327976351087,-0.03924327976351087
86.62,0.049551495345936745,-0.049551495345936745
86.62100000000001,0.051032848711824744,-0.051032848711824744
86.622,0.04349983713730762,-0.04349983713730762
86.623,0.028873810068111218,-0.028873810068111218
86.62400000000001,0.01075403103225163,-0.01075403103225163
86.625,0.006471727566959353,0.006471727566959353
86.626,0.018747803338882364,0.018747803338882364
86.62700000000001,0.02340282555988818,0.02340282555988818
86.628,0.019845908295710677,0.019845908295710677
86.629,0.00971370113344497,0.00971370113344497
86.63000000000001,0.0035749738618453108,-0.0035749738618453108
86.631,0.01573798318662682,-0.01573798318662682
86.632,0.02277519913266102,-0.02277519913266102
86.63300000000001,0.02203484464309934,-0.02203484464309934
86.634,0.012921547288712816,-0.012921547288712816
86.635,0.0029323499563058747,0.0029323499563058747
86.63600000000001,0.02206542394262632,0.02206542394262632
86.637,0.040040588148238895,0.040040588148238895
86.638,0.05252647799096182,0.05252647799096182
86.63900000000001,0.056332415978191615,0.056332415978191615
86.64,0.05014731659769562,0.05014731659769562
86.641,0.03481846322803866,0.03481846322803866
86.64200000000001,0.013126155137950398,0.013126155137950398
86.643,0.010867905902565611,-0.010867905902565611
86.644,0.032726788826815595,-0.032726788826815595
86.64500000000001,0.04858131545663016,-0.04858131545663016
86.646,0.0558998471575181,-0.0558998471575181
86.647,0.05392912089449624,-0.05392912089449624
86.64800000000001,0.04373415962948892,-0.04373415962948892
86.649,0.027857238558991585,-0.027857238558991585
86.65,0.009695596382709787,-0.009695596382709787
86.65100000000001,0.007250378238764933,0.007250378238764933
86.652,0.020090521895200053,0.020090521895200053
86.653,0.027071809393159958,0.027071809393159958
86.65400000000001,0.027820337789126577,0.027820337789126577
86.655,0.023267356194106897,0.023267356194106897
86.656,0.015298996630521219,0.015298996630521219
86.65700000000001,0.006228322866328056,0.006228322866328056
86.658,0.001776959921239474,-0.001776959921239474
86.659,0.007174774540279853,-0.007174774540279853
86.66000000000001,0.009329747537366637,-0.009329747537366637
86.661,0.008542199075714428,-0.008542199075714428
86.662,0.005837981726569541,-0.005837981726569541
86.66300000000001,0.002592543166649664,-0.002592543166649664
86.664,0.00010169205085545186,-0.00010169205085545186
86.665,0.0007810972622997605,0.0007810972622997605
86.66600000000001,0.00015303474050527106,-0.00015303474050527106
86.667,0.0024691754713164447,-0.0024691754713164447
86.668,0.005274558417785295,-0.005274558417785295
86.66900000000001,0.007519591104068669,-0.007519591104068669
86.67,0.00831636318176876,-0.00831636318176876
86.671,0.007180983567196752,-0.007180983567196752
86.67200000000001,0.00413865379193965,-0.00413865379193965
86.673,0.000320871200084843,0.000320871200084843
86.674,0.005402190427634966,0.005402190427634966
86.67500000000001,0.01021195735136324,0.01021195735136324
86.676,0.013945874041395955,0.013945874041395955
86.677,0.016006949672880518,0.016006949672880518
86.67800000000001,0.016043298660070537,0.016043298660070537
86.679,0.013929031831113678,0.013929031831113678
86.68,0.009731211709197654,0.009731211709197654
86.68100000000001,0.0037015913476286127,0.0037015913476286127
86.682,0.0036935530027893695,-0.0036935530027893695
86.683,0.011726728232394625,-0.011726728232394625
86.68400000000001,0.01939379741401519,-0.01939379741401519
86.685,0.025482617226052284,-0.025482617226052284
86.686,0.02875508287595477,-0.02875508287595477
86.68700000000001,0.028226442088170246,-0.028226442088170246
86.688,0.023474934722458193,-0.023474934722458193
86.68900000000001,0.014880111018382287,-0.014880111018382287
86.69000000000001,0.003687366874069112,-0.003687366874069112
86.691,0.008164231842361832,0.008164231842361832
86.69200000000001,0.018442668432662714,0.018442668432662714
86.69300000000001,0.025163730183394524,0.025163730183394524
86.694,0.02712240322533222,0.02712240322533222
86.69500000000001,0.024248875727832627,0.024248875727832627
86.69600000000001,0.017661908450056486,0.017661908450056486
86.697,0.009378656451626331,0.009378656451626331
86.69800000000001,0.0017481363171944653,0.0017481363171944653
86.69900000000001,0.003230273984548444,-0.003230273984548444
86.7,0.004495174247422726,-0.004495174247422726
86.70100000000001,0.002230101338870291,-0.002230101338870291
86.70200000000001,0.0022154406570890554,0.0022154406570890554
86.703,0.0067732467281398845,0.0067732467281398845
86.70400000000001,0.00933352435447653,0.00933352435447653
86.70500000000001,0.008435128104661157,0.008435128104661157
86.706,0.00374451582365245,0.00374451582365245
86.70700000000001,0.0038334473605896426,-0.0038334473605896426
86.70800000000001,0.012448285523998409,-0.012448285523998409
86.709,0.01990096657664824,-0.01990096657664824
86.71000000000001,0.024343801023693146,-0.024343801023693146
86.71100000000001,0.024848008300306354,-0.024848008300306354
86.712,0.021650673323106332,-0.021650673323106332
86.71300000000001,0.016004688106772757,-0.016004688106772757
86.71400000000001,0.009693437322989811,-0.009693437322989811
86.715,0.004388092399428539,-0.004388092399428539
86.71600000000001,0.0010784154924562619,-0.0010784154924562619
86.71700000000001,0.0002210526389000855,0.0002210526389000855
86.718,0.00038857807544223925,0.00038857807544223925
86.71900000000001,0.0007729268880413982,0.0007729268880413982
86.72000000000001,0.002591721885422898,0.002591721885422898
86.721,0.006377420942409995,0.006377420942409995
86.72200000000001,0.011682017821646948,0.011682017821646948
86.72300000000001,0.017158468739898767,0.017158468739898767
86.724,0.020999505896138616,0.020999505896138616
86.72500000000001,0.02158228065826477,0.02158228065826477
86.72600000000001,0.01808825399127351,0.01808825399127351
86.727,0.010871275808084368,0.010871275808084368
86.72800000000001,0.001432661429711322,0.001432661429711322
86.72900000000001,0.007999750464203197,-0.007999750464203197
86.73,0.015150396525894538,-0.015150396525894538
86.73100000000001,0.018401221198357368,-0.018401221198357368
86.73200000000001,0.01728065291658888,-0.01728065291658888
86.733,0.012569063030688927,-0.012569063030688927
86.73400000000001,0.005988909419865744,-0.005988909419865744
86.73500000000001,0.0004053603097103951,0.0004053603097103951
86.736,0.004917374865881063,0.004917374865881063
86.73700000000001,0.006733326598147532,0.006733326598147532
86.738,0.006099288948781043,0.006099288948781043
86.739,0.004099693421813283,0.004099693421813283
86.74000000000001,0.0021335630743822102,0.0021335630743822102
86.741,0.0012970087858086294,0.0012970087858086294
86.742,0.0019143180286786332,0.0019143180286786332
86.74300000000001,0.0034025012354532333,0.0034025012354532333
86.744,0.004525982722132056,0.004525982722132056
86.745,0.0039464551624220495,0.0039464551624220495
86.74600000000001,0.0008545516020120105,0.0008545516020120105
86.747,0.004569621785239816,-0.004569621785239816
86.748,0.011063905392155963,-0.011063905392155963
86.74900000000001,0.016622761869098154,-0.016622761869098154
86.75,0.019167424418996673,-0.019167424418996673
86.751,0.017315282980635185,-0.017315282980635185
86.75200000000001,0.01096513622304659,-0.01096513622304659
86.753,0.0014672702789865183,-0.0014672702789865183
86.754,0.008712221108559579,0.008712221108559579
86.75500000000001,0.016743198233030693,0.016743198233030693
86.756,0.02035411561309142,0.02035411561309142
86.757,0.018607216950066823,0.018607216950066823
86.75800000000001,0.012246826071537861,0.012246826071537861
86.759,0.0034820456837109516,0.0034820456837109516
86.76,0.004739377789214672,-0.004739377789214672
86.76100000000001,0.009727506658687218,-0.009727506658687218
86.762,0.009975840627147835,-0.009975840627147835
86.763,0.005690417173460614,-0.005690417173460614
86.76400000000001,0.0012720563028739472,0.0012720563028739472
86.765,0.008048002602860791,0.008048002602860791
86.766,0.011778394299415617,0.011778394299415617
86.76700000000001,0.010639117446671804,0.010639117446671804
86.768,0.004527338666831633,0.004527338666831633
86.769,0.004845571445634041,-0.004845571445634041
86.77000000000001,0.014500186157314774,-0.014500186157314774
86.771,0.021195871791601067,-0.021195871791601067
86.772,0.022554431498635175,-0.022554431498635175
86.77300000000001,0.01790901674515835,-0.01790901674515835
86.774,0.008575986458460244,-0.008575986458460244
86.775,0.002555590654352486,0.002555590654352486
86.77600000000001,0.011984779315939886,0.011984779315939886
86.777,0.016783156789780988,0.016783156789780988
86.778,0.015592818919326007,0.015592818919326007
86.77900000000001,0.009087669851400465,0.009087669851400465
86.78,0.0002688520152199666,-0.0002688520152199666
86.781,0.009091632325943106,-0.009091632325943106
86.78200000000001,0.014268303217889404,-0.014268303217889404
86.783,0.014062031617789128,-0.014062031617789128
86.784,0.008730686144845805,-0.008730686144845805
86.78500000000001,0.0004351916483040449,-0.0004351916483040449
86.786,0.007542251981087416,0.007542251981087416
86.787,0.012004017320723133,0.012004017320723133
86.78800000000001,0.011044130152270518,0.011044130152270518
86.789,0.004822333978907195,0.004822333978907195
86.79,0.004388112828316123,-0.004388112828316123
86.79100000000001,0.012924577661332398,-0.012924577661332398
86.792,0.01700633340228371,-0.01700633340228371
86.793,0.014128053285473936,-0.014128053285473936
86.79400000000001,0.004091608753226204,-0.004091608753226204
86.795,0.010701899043284342,0.010701899043284342
86.796,0.025839486711841064,0.025839486711841064
86.79700000000001,0.036209496554207146,0.036209496554207146
86.798,0.03763714790204483,0.03763714790204483
86.799,0.028316895823203656,0.028316895823203656
86.80000000000001,0.009565207006028961,0.009565207006028961
86.801,0.014375658699495392,-0.014375658699495392
86.802,0.037453276301780664,-0.037453276301780664
86.80300000000001,0.053516206527238784,-0.053516206527238784
86.804,0.05810288800120901,-0.05810288800120901
86.805,0.049760186386291615,-0.049760186386291615
86.80600000000001,0.030486795122612306,-0.030486795122612306
86.807,0.00516732191963153,-0.00516732191963153
86.808,0.01982605947419933,0.01982605947419933
86.80900000000001,0.03843509169859937,0.03843509169859937
86.81,0.04657583813911539,0.04657583813911539
86.811,0.04316999713666116,0.04316999713666116
86.81200000000001,0.030264812480941573,0.030264812480941573
86.813,0.012245843726450295,0.012245843726450295
86.81400000000001,0.005578057627356296,-0.005578057627356296
86.81500000000001,0.018560440634625985,-0.018560440634625985
86.816,0.02398796328578201,-0.02398796328578201
86.81700000000001,0.021673813942086128,-0.021673813942086128
86.81800000000001,0.013741090334329001,-0.013741090334329001
86.819,0.0037217328893572044,-0.0037217328893572044
86.82000000000001,0.004699157498002963,0.004699157498002963
86.82100000000001,0.008875265302274536,0.008875265302274536
86.822,0.007957606267255264,0.007957606267255264
86.82300000000001,0.00301241142544641,0.00301241142544641
86.82400000000001,0.0034913687116426492,-0.0034913687116426492
86.825,0.008614819040593146,-0.008614819040593146
86.82600000000001,0.009972609265044004,-0.009972609265044004
86.82700000000001,0.006512025467647802,-0.006512025467647802
86.828,0.0011858777978184583,0.0011858777978184583
86.82900000000001,0.011146778729094135,0.011146778729094135
86.83000000000001,0.02067117345732823,0.02067117345732823
86.831,0.027187882970685175,0.027187882970685175
86.83200000000001,0.02901026118671945,0.02901026118671945
86.83300000000001,0.025765937495086766,0.025765937495086766
86.834,0.018393977452183217,0.018393977452183217
86.83500000000001,0.008750383805553133,0.008750383805553133
86.83600000000001,0.0010160137550967478,-0.0010160137550967478
86.837,0.009097507302148306,-0.009097507302148306
86.83800000000001,0.014470792087932784,-0.014470792087932784
86.83900000000001,0.01703231856156692,-0.01703231856156692
86.84,0.01742242735625768,-0.01742242735625768
86.84100000000001,0.01663888737756545,-0.01663888737756545
86.84200000000001,0.015600227113511795,-0.015600227113511795
86.843,0.01481849502127026,-0.01481849502127026
86.84400000000001,0.014285284517638054,-0.014285284517638054
86.84500000000001,0.013587832975860076,-0.013587832975860076
86.846,0.012186435377341213,-0.012186435377341213
86.84700000000001,0.009730051247341486,-0.009730051247341486
86.84800000000001,0.0062806936784443835,-0.0062806936784443835
86.849,0.0023580888528298466,-0.0023580888528298466
86.85000000000001,0.0012129437303677437,0.0012129437303677437
86.85100000000001,0.0035953820985648584,0.0035953820985648584
86.852,0.004264217885303347,0.004264217885303347
86.85300000000001,0.003240851919944884,0.003240851919944884
86.85400000000001,0.0011468792744693194,0.0011468792744693194
86.855,0.0009521842982150035,-0.0009521842982150035
86.85600000000001,0.001871644675096601,-0.001871644675096601
86.85700000000001,0.0007020144604098476,-0.0007020144604098476
86.858,0.0028511951775343786,0.0028511951775343786
86.85900000000001,0.0082928996483046,0.0082928996483046
86.86000000000001,0.014392229270007011,0.014392229270007011
86.861,0.019461573983781053,0.019461573983781053
86.86200000000001,0.021792554235270697,0.021792554235270697
86.863,0.02013479960203579,0.02013479960203579
86.864,0.014088995188226101,0.014088995188226101
86.86500000000001,0.004305377131254871,0.004305377131254871
86.866,0.007573515693474651,-0.007573515693474651
86.867,0.019224264768370764,-0.019224264768370764
86.86800000000001,0.028144235811320438,-0.028144235811320438
86.869,0.03223203291585492,-0.03223203291585492
86.87,0.030312999400880773,-0.030312999400880773
86.87100000000001,0.022483561224780648,-0.022483561224780648
86.872,0.010184035291255996,-0.010184035291255996
86.873,0.00403342753971062,0.00403342753971062
86.87400000000001,0.017008078819748047,0.017008078819748047
86.875,0.025647931628546103,0.025647931628546103
86.876,0.027638211618265858,0.027638211618265858
86.87700000000001,0.02202064746397783,0.02202064746397783
86.878,0.009501255227367687,0.009501255227367687
86.879,0.007603424616907879,-0.007603424616907879
86.88000000000001,0.025793792892717177,-0.025793792892717177
86.881,0.04111312164369166,-0.04111312164369166
86.882,0.05002021968479841,-0.05002021968479841
86.88300000000001,0.050211587879898885,-0.050211587879898885
86.884,0.041195579001973716,-0.041195579001973716
86.885,0.024470014053954412,-0.024470014053954412
86.88600000000001,0.0032440110632804228,-0.0032440110632804228
86.887,0.018245949615221167,0.018245949615221167
86.888,0.03567382353847112,0.03567382353847112
86.88900000000001,0.04559643914927738,0.04559643914927738
86.89,0.046227829156657366,0.046227829156657366
86.891,0.0378284083797307,0.0378284083797307
86.89200000000001,0.022616218382208845,0.022616218382208845
86.893,0.004226029089678645,0.004226029089678645
86.894,0.013146381901591158,-0.013146381901591158
86.89500000000001,0.025702539107431255,-0.025702539107431255
86.896,0.030870991739299837,-0.030870991739299837
86.897,0.02781793149996899,-0.02781793149996899
86.89800000000001,0.017535554948383603,-0.017535554948383603
86.899,0.002513795156078168,-0.002513795156078168
86.9,0.01389875434529886,0.01389875434529886
86.90100000000001,0.028273092035811454,0.028273092035811454
86.902,0.03782861917106663,0.03782861917106663
86.903,0.040955403671280845,0.040955403671280845
86.90400000000001,0.037439068956955264,0.037439068956955264
86.905,0.028376720785269798,0.028376720785269798
86.906,0.015842039459976875,0.015842039459976875
86.90700000000001,0.0024015101771994183,0.0024015101771994183
86.908,0.00940436267385815,-0.00940436267385815
86.909,0.017516762135263163,-0.017516762135263163
86.91000000000001,0.02068501312027616,-0.02068501312027616
86.911,0.018632488092013504,-0.018632488092013504
86.912,0.012058660225540859,-0.012058660225540859
86.91300000000001,0.0024916381065155967,-0.0024916381065155967
86.914,0.00798446040807979,0.00798446040807979
86.915,0.017094540611820773,0.017094540611820773
86.91600000000001,0.022785498190974363,0.022785498190974363
86.917,0.023627295298676965,0.023627295298676965
86.918,0.01912880604845094,0.01912880604845094
86.91900000000001,0.009892748226744238,0.009892748226744238
86.92,0.0024483767350363655,-0.0024483767350363655
86.921,0.015532676844607329,-0.015532676844607329
86.92200000000001,0.0267649233968212,-0.0267649233968212
86.923,0.03390722722562057,-0.03390722722562057
86.924,0.03562064747495182,-0.03562064747495182
86.92500000000001,0.03180745915022523,-0.03180745915022523
86.926,0.02364249849332124,-0.02364249849332124
86.927,0.013260906768796168,-0.013260906768796168
86.92800000000001,0.0031688372360046957,-0.0031688372360046957
86.929,0.004466491370747387,0.004466491370747387
86.93,0.008441130618942947,0.008441130618942947
86.93100000000001,0.008857622665906591,0.008857622665906591
86.932,0.007065618020294504,0.007065618020294504
86.933,0.0051974107635412315,0.0051974107635412315
86.93400000000001,0.005424942256306308,0.005424942256306308
86.935,0.009162556083059579,0.009162556083059579
86.936,0.01647193757868536,0.01647193757868536
86.93700000000001,0.02587706193211944,0.02587706193211944
86.938,0.03467800123345248,0.03467800123345248
86.93900000000001,0.03969734914112424,0.03969734914112424
86.94000000000001,0.03825004274336304,0.03825004274336304
86.941,0.029043552775473894,0.029043552775473894
86.94200000000001,0.012721036313083002,0.012721036313083002
86.94300000000001,0.008142287712079664,-0.008142287712079664
86.944,0.029616799200478862,-0.029616799200478862
86.94500000000001,0.04741959979830605,-0.04741959979830605
86.94600000000001,0.05805174165685196,-0.05805174165685196
86.947,0.05973362892572133,-0.05973362892572133
86.94800000000001,0.05285505384280358,-0.05285505384280358
86.94900000000001,0.03980111579419118,-0.03980111579419118
86.95,0.02420632026238132,-0.02420632026238132
86.95100000000001,0.009866396704518504,-0.009866396704518504
86.95200000000001,0.00035601112910864775,0.00035601112910864775
86.953,0.005294657245176722,0.005294657245176722
86.95400000000001,0.005680972452715879,0.005680972452715879
86.95500000000001,0.0037322525873603124,0.0037322525873603124
86.956,0.0022721185013301285,0.0022721185013301285
86.95700000000001,0.003678177542391947,0.003678177542391947
86.95800000000001,0.009005950330542021,0.009005950330542021
86.959,0.017578935985766157,0.017578935985766157
86.96000000000001,0.027181041360929956,0.027181041360929956
86.96100000000001,0.034789205767303134,0.034789205767303134
86.962,0.037605412738484646,0.037605412738484646
86.96300000000001,0.03404670664310069,0.03404670664310069
86.96400000000001,0.02436240575404059,0.02436240575404059
86.965,0.010666421552384647,0.010666421552384647
86.96600000000001,0.0036387229623865897,-0.0036387229623865897
86.96700000000001,0.01487191052105477,-0.01487191052105477
86.968,0.02020052717439072,-0.02020052717439072
86.96900000000001,0.018526210751205974,-0.018526210751205974
86.97000000000001,0.010844139656778043,-0.010844139656778043
86.971,4.448507271363008e-05,4.448507271363008e-05
86.97200000000001,0.010383492632034228,0.010383492632034228
86.97300000000001,0.016615362511909954,0.016615362511909954
86.974,0.016480831920230855,0.016480831920230855
86.97500000000001,0.00972411615025773,0.00972411615025773
86.97600000000001,0.0018144310463461312,-0.0018144310463461312
86.977,0.014747235634218077,-0.014747235634218077
86.97800000000001,0.02516234459727626,-0.02516234459727626
86.97900000000001,0.029809151410553805,-0.029809151410553805
86.98,0.027089052814540486,-0.027089052814540486
86.98100000000001,0.017555201466529436,-0.017555201466529436
86.98200000000001,0.00377555859558112,-0.00377555859558112
86.983,0.010395861839136041,0.010395861839136041
86.98400000000001,0.020921443168754196,0.020921443168754196
86.98500000000001,0.024733131912714423,0.024733131912714423
86.986,0.020605446946167484,0.020605446946167484
86.98700000000001,0.009505289847644153,0.009505289847644153
86.988,0.005670186037498315,-0.005670186037498315
86.989,0.020882739191338026,-0.020882739191338026
86.99000000000001,0.03204146101292969,-0.03204146101292969
86.991,0.03608901759182784,-0.03608901759182784
86.992,0.031796306590036634,-0.031796306590036634
86.99300000000001,0.020065373711629298,-0.020065373711629298
86.994,0.0036778761439258236,-0.0036778761439258236
86.995,0.013427724693654067,0.013427724693654067
86.99600000000001,0.027151327286736936,0.027151327286736936
86.997,0.03424149912862326,0.03424149912862326
86.998,0.033072864018482744,0.033072864018482744
86.99900000000001,0.024011285871045368,0.024011285871045368
87.0,0.009294527160715795,0.009294527160715795
87.001,0.007526965189638476,-0.007526965189638476
87.00200000000001,0.022444900551813668,-0.022444900551813668
87.003,0.031937808631233064,-0.031937808631233064
87.004,0.033786714348681364,-0.033786714348681364
87.00500000000001,0.027578228202233997,-0.027578228202233997
87.006,0.014785167436516969,-0.014785167436516969
87.007,0.0015894336418833055,0.0015894336418833055
87.00800000000001,0.0177212680783867,0.0177212680783867
87.009,0.02986330099507616,0.02986330099507616
87.01,0.035225974040338504,0.035225974040338504
87.01100000000001,0.03263236420450058,0.03263236420450058
87.012,0.02279041511543611,0.02279041511543611
87.013,0.008112150341703091,0.008112150341703091
87.01400000000001,0.00788192092345776,-0.00788192092345776
87.015,0.021431393185975492,-0.021431393185975492
87.016,0.02946328609859083,-0.02946328609859083
87.01700000000001,0.030343346330214155,-0.030343346330214155
87.018,0.024256768176210093,-0.024256768176210093
87.019,0.01311738812598704,-0.01311738812598704
87.02000000000001,2.862125678158086e-05,-2.862125678158086e-05
87.021,0.011558994717689106,0.011558994717689106
87.022,0.018764396875075938,0.018764396875075938
87.02300000000001,0.020015973378938904,0.020015973378938904
87.024,0.015413802227087658,0.015413802227087658
87.025,0.006621140039644653,0.006621140039644653
87.02600000000001,0.0036721589005785844,-0.0036721589005785844
87.027,0.012548569363099178,-0.012548569363099178
87.028,0.01768537020256706,-0.01768537020256706
87.02900000000001,0.017961261256413452,-0.017961261256413452
87.03,0.013679668787256306,-0.013679668787256306
87.031,0.006362990705516439,-0.006362990705516439
87.03200000000001,0.0017952372516046571,0.0017952372516046571
87.033,0.008631749177248994,0.008631749177248994
87.034,0.012641633255632698,0.012641633255632698
87.03500000000001,0.01334197551140772,0.01334197551140772
87.036,0.01127635921398202,0.01127635921398202
87.037,0.007689020511936944,0.007689020511936944
87.03800000000001,0.00400591399956114,0.00400591399956114
87.039,0.0013169936508697479,0.0013169936508697479
87.04,4.154609940148809e-05,4.154609940148809e-05
87.04100000000001,0.00011731646125014192,-0.00011731646125014192
87.042,6.640740830508968e-05,6.640740830508968e-05
87.043,0.0002447477213880719,-0.0002447477213880719
87.04400000000001,0.00153566402069791,-0.00153566402069791
87.045,0.0036892383019014015,-0.0036892383019014015
87.046,0.006005913581501565,-0.006005913581501565
87.04700000000001,0.007488843073284124,-0.007488843073284124
87.048,0.007286097044479613,-0.007286097044479613
87.049,0.005115633202927283,-0.005115633202927283
87.05000000000001,0.0014978494966521477,-0.0014978494966521477
87.051,0.0023138348757444703,0.0023138348757444703
87.052,0.004704434585502519,0.004704434585502519
87.05300000000001,0.004256803875490615,0.004256803875490615
87.054,0.0003078706987185643,0.0003078706987185643
87.055,0.006700103406942798,-0.006700103406942798
87.05600000000001,0.015213452780795483,-0.015213452780795483
87.057,0.022932550399229965,-0.022932550399229965
87.058,0.02744800136340902,-0.02744800136340902
87.05900000000001,0.026951087415217255,-0.026951087415217255
87.06,0.02079172329502938,-0.02079172329502938
87.061,0.009703902447967722,-0.009703902447967722
87.06200000000001,0.004373249344492679,0.004373249344492679
87.063,0.01881833985274368,0.01881833985274368
87.06400000000001,0.03102325227740446,0.03102325227740446
87.06500000000001,0.039039077723926535,0.039039077723926535
87.066,0.041975775575488365,0.041975775575488365
87.06700000000001,0.040050913597806936,0.040050913597806936
87.06800000000001,0.03430752390412663,0.03430752390412663
87.069,0.02613349101058237,0.02613349101058237
87.07000000000001,0.016774996877844724,0.016774996877844724
87.07100000000001,0.0070238706896593355,0.0070238706896593355
87.072,0.002820449763629626,-0.002820449763629626
87.07300000000001,0.012728478970881394,-0.012728478970881394
87.07400000000001,0.02257858289229439,-0.02257858289229439
87.075,0.031833807610467,-0.031833807610467
87.07600000000001,0.039422618359411896,-0.039422618359411896
87.07700000000001,0.04390786863800124,-0.04390786863800124
87.078,0.04391047010450828,-0.04391047010450828
87.07900000000001,0.03864383146799141,-0.03864383146799141
87.08000000000001,0.02835517919934503,-0.02835517919934503
87.081,0.014485626426677133,-0.014485626426677133
87.08200000000001,0.0005500369227335002,0.0005500369227335002
87.08300000000001,0.013930282389765649,0.013930282389765649
87.084,0.023178094975772563,0.023178094975772563
87.08500000000001,0.02685662475170754,0.02685662475170754
87.08600000000001,0.024973869161150856,0.024973869161150856
87.087,0.01894959791044455,0.01894959791044455
87.08800000000001,0.011142038110752312,0.011142038110752312
87.08900000000001,0.004082556350034395,0.004082556350034395
87.09,0.0003295019135039052,-0.0003295019135039052
87.09100000000001,0.0014007008629741996,-0.0014007008629741996
87.09200000000001,0.0002098439166410058,0.0002098439166410058
87.093,0.002821722672987198,0.002821722672987198
87.09400000000001,0.004426824387914949,0.004426824387914949
87.09500000000001,0.003500443337177034,0.003500443337177034
87.096,0.000361002233981466,-0.000361002233981466
87.09700000000001,0.006211340997001514,-0.006211340997001514
87.09800000000001,0.012031283804136646,-0.012031283804136646
87.099,0.015429429881019342,-0.015429429881019342
87.10000000000001,0.014533032516868903,-0.014533032516868903
87.10100000000001,0.00875764657698238,-0.00875764657698238
87.102,0.000825588111500211,0.000825588111500211
87.10300000000001,0.011678220595241177,0.011678220595241177
87.10400000000001,0.02050646694229544,0.02050646694229544
87.105,0.02428472809217115,0.02428472809217115
87.10600000000001,0.021264187735526126,0.021264187735526126
87.10700000000001,0.011631794974327442,0.011631794974327442
87.108,0.0024121985084141107,-0.0024121985084141107
87.10900000000001,0.017208008286132774,-0.017208008286132774
87.11000000000001,0.028668818763194066,-0.028668818763194066
87.111,0.033482479052622686,-0.033482479052622686
87.11200000000001,0.030112851288527108,-0.030112851288527108
87.113,0.01928831930833601,-0.01928831930833601
87.114,0.003821281499615505,-0.003821281499615505
87.11500000000001,0.012191659380088898,0.012191659380088898
87.116,0.02454889783515309,0.02454889783515309
87.117,0.030147658717721158,0.030147658717721158
87.11800000000001,0.027853250275877085,0.027853250275877085
87.119,0.01878019436973711,0.01878019436973711
87.12,0.0059127368621657095,0.0059127368621657095
87.12100000000001,0.00680871739947676,-0.00680871739947676
87.122,0.015653023039617846,-0.015653023039617846
87.123,0.018167077813122438,-0.018167077813122438
87.12400000000001,0.013839610746891001,-0.013839610746891001
87.125,0.00418196695840487,-0.00418196695840487
87.126,0.007774427940064039,0.007774427940064039
87.12700000000001,0.01839440987584051,0.01839440987584051
87.128,0.024487792450931654,0.024487792450931654
87.129,0.024185037981420066,0.024185037981420066
87.13000000000001,0.01740052401279947,0.01740052401279947
87.131,0.005775479921702842,0.005775479921702842
87.132,0.007852851175784737,-0.007852851175784737
87.13300000000001,0.020277954443077367,-0.020277954443077367
87.134,0.02879688492527975,-0.02879688492527975
87.135,0.03188326657598004,-0.03188326657598004
87.13600000000001,0.029487601457531213,-0.029487601457531213
87.137,0.022908613317872594,-0.022908613317872594
87.138,0.014303407582815501,-0.014303407582815501
87.13900000000001,0.0060005705646610785,-0.0060005705646610785
87.14,0.00017573809877324706,0.00017573809877324706
87.141,0.0033794600276403114,0.0033794600276403114
87.14200000000001,0.003891575917394484,0.003891575917394484
87.143,0.002920336671104848,0.002920336671104848
87.144,0.0021286713256010157,0.0021286713256010157
87.14500000000001,0.0030388755817941887,0.0030388755817941887
87.146,0.006494596783022021,0.006494596783022021
87.147,0.012339477468090946,0.012339477468090946
87.14800000000001,0.019407619346221233,0.019407619346221233
87.149,0.025831277851404464,0.025831277851404464
87.15,0.029580140787653975,0.029580140787653975
87.15100000000001,0.029078650279677643,0.029078650279677643
87.152,0.02372173660769956,0.02372173660769956
87.153,0.014133079952303602,0.014133079952303602
87.15400000000001,0.00207861582818786,0.00207861582818786
87.155,0.009955878181820067,-0.009955878181820067
87.156,0.019416417834653154,-0.019416417834653154
87.15700000000001,0.024383152929138646,-0.024383152929138646
87.158,0.024121265501830223,-0.024121265501830223
87.159,0.019312578414899577,-0.019312578414899577
87.16000000000001,0.011885716083062124,-0.011885716083062124
87.161,0.00447746332110494,-0.00447746332110494
87.162,0.00033074031718124085,0.00033074031718124085
87.16300000000001,0.000783340760852442,0.000783340760852442
87.164,0.003501308691112878,-0.003501308691112878
87.165,0.011377357512652281,-0.011377357512652281
87.16600000000001,0.02047120956756965,-0.02047120956756965
87.167,0.027857441062221183,-0.027857441062221183
87.168,0.030916047291226784,-0.030916047291226784
87.16900000000001,0.028114883626032868,-0.028114883626032868
87.17,0.019478082985282384,-0.019478082985282384
87.171,0.006594038716462018,-0.006594038716462018
87.17200000000001,0.007841830891500971,0.007841830891500971
87.173,0.020808039132526792,0.020808039132526792
87.174,0.029816722741349763,0.029816722741349763
87.17500000000001,0.03358144251635793,0.03358144251635793
87.176,0.032285048239724765,0.032285048239724765
87.177,0.027371554945556056,0.027371554945556056
87.17800000000001,0.020944603407495113,0.020944603407495113
87.179,0.014987256900473547,0.014987256900473547
87.18,0.01067800832779603,0.01067800832779603
87.18100000000001,0.008043731634564524,0.008043731634564524
87.182,0.0060715923438040996,0.0060715923438040996
87.183,0.0032379644572611372,0.0032379644572611372
87.18400000000001,0.0017404733822459226,-0.0017404733822459226
87.185,0.009215765074353514,-0.009215765074353514
87.186,0.018248998117453154,-0.018248998117453154
87.18700000000001,0.026743643630311086,-0.026743643630311086
87.188,0.03206082842330016,-0.03206082842330016
87.18900000000001,0.031927932283719526,-0.031927932283719526
87.19000000000001,0.02533239080321342,-0.02533239080321342
87.191,0.013076036428506946,-0.013076036428506946
87.19200000000001,0.0022374898932819394,0.0022374898932819394
87.19300000000001,0.01682726544638558,0.01682726544638558
87.194,0.026808197882396495,0.026808197882396495
87.19500000000001,0.029385895912715836,0.029385895912715836
87.19600000000001,0.023786048029748,0.023786048029748
87.197,0.011598725442768661,0.011598725442768661
87.19800000000001,0.003604014631979107,-0.003604014631979107
87.19900000000001,0.017286501916146144,-0.017286501916146144
87.2,0.02530242559603806,-0.02530242559603806
87.20100000000001,0.025163024055392426,-0.025163024055392426
87.20200000000001,0.01681741571689585,-0.01681741571689585
87.203,0.0026902686329778915,-0.0026902686329778915
87.20400000000001,0.013044171584761148,0.013044171584761148
87.20500000000001,0.025728937195868072,0.025728937195868072
87.206,0.031635553927329384,0.031635553927329384
87.20700000000001,0.029076763548187928,0.029076763548187928
87.20800000000001,0.018874654825072022,0.018874654825072022
87.209,0.004046338261924885,0.004046338261924885
87.21000000000001,0.011179425236257782,-0.011179425236257782
87.21100000000001,0.0226893707322978,-0.0226893707322978
87.212,0.027727888393245123,-0.027727888393245123
87.21300000000001,0.025662862427864728,-0.025662862427864728
87.21400000000001,0.018047783804248527,-0.018047783804248527
87.215,0.007987039730714431,-0.007987039730714431
87.21600000000001,0.0009625966695279771,0.0009625966695279771
87.21700000000001,0.005977777770228408,0.005977777770228408
87.218,0.005849869853783874,0.005849869853783874
87.21900000000001,0.001284547706516305,0.001284547706516305
87.22000000000001,0.005454457961648363,-0.005454457961648363
87.221,0.011410410780240183,-0.011410410780240183
87.22200000000001,0.013995490093114984,-0.013995490093114984
87.22300000000001,0.011882756067722745,-0.011882756067722745
87.224,0.0054316126908936675,-0.0054316126908936675
87.22500000000001,0.0034817143202096426,0.0034817143202096426
87.22600000000001,0.01215095818549086,0.01215095818549086
87.227,0.017992596817600504,0.017992596817600504
87.22800000000001,0.019430284999695572,0.019430284999695572
87.22900000000001,0.016409359724108997,0.016409359724108997
87.23,0.010374032466547058,0.010374032466547058
87.23100000000001,0.0037271215627196746,0.0037271215627196746
87.23200000000001,0.0010323412085690758,-0.0010323412085690758
87.233,0.002193414983589719,-0.002193414983589719
87.23400000000001,0.000561828683293225,0.000561828683293225
87.23500000000001,0.006034095971112555,0.006034095971112555
87.236,0.011900206299087125,0.011900206299087125
87.23700000000001,0.015488542740926705,0.015488542740926705
87.238,0.014678374197204934,0.014678374197204934
87.239,0.008630020022260858,0.008630020022260858
87.24000000000001,0.0018859947009021716,-0.0018859947009021716
87.241,0.014659371358467755,-0.014659371358467755
87.242,0.026649429734487515,-0.026649429734487515
87.24300000000001,0.03483974844160169,-0.03483974844160169
87.244,0.03707794003826962,-0.03707794003826962
87.245,0.032657327105685224,-0.032657327105685224
87.24600000000001,0.022486420425564334,-0.022486420425564334
87.247,0.008820557375882464,-0.008820557375882464
87.248,0.005344519623396416,0.005344519623396416
87.24900000000001,0.01703228148354311,0.01703228148354311
87.25,0.0239894522161402,0.0239894522161402
87.251,0.025162534181335135,0.025162534181335135
87.25200000000001,0.020853602977706404,0.020853602977706404
87.253,0.01255401941849703,0.01255401941849703
87.254,0.002531828346781051,0.002531828346781051
87.25500000000001,0.006707202985670136,-0.006707202985670136
87.256,0.01295815908029659,-0.01295815908029659
87.257,0.014751194715475379,-0.014751194715475379
87.25800000000001,0.01161534822975625,-0.01161534822975625
87.259,0.004144853027419076,-0.004144853027419076
87.26,0.006127672039416387,0.006127672039416387
87.26100000000001,0.0170240713897805,0.0170240713897805
87.262,0.026134830048048042,0.026134830048048042
87.263,0.03129309616328869,0.03129309616328869
87.26400000000001,0.0310306943669613,0.0310306943669613
87.265,0.02492739501986166,0.02492739501986166
87.266,0.013768167029210215,0.013768167029210215
87.26700000000001,0.0005510966927265055,-0.0005510966927265055
87.268,0.015379188787059832,-0.015379188787059832
87.269,0.027870848206441638,-0.027870848206441638
87.27000000000001,0.03563416121000746,-0.03563416121000746
87.271,0.03730424553500691,-0.03730424553500691
87.272,0.03288478115843237,-0.03288478115843237
87.27300000000001,0.023748977717838193,-0.023748977717838193
87.274,0.012280957841618345,-0.012280957841618345
87.275,0.0012429184613533541,-0.0012429184613533541
87.27600000000001,0.006959822211148962,0.006959822211148962
87.277,0.010904794034966634,0.010904794034966634
87.278,0.010483646386892528,0.010483646386892528
87.27900000000001,0.006838787144037937,0.006838787144037937
87.28,0.0019268030616512912,0.0019268030616512912
87.281,0.002151475972964307,-0.002151475972964307
87.28200000000001,0.003838409829080614,-0.003838409829080614
87.283,0.002602010693682588,-0.002602010693682588
87.284,0.0009419119092907187,0.0009419119092907187
87.28500000000001,0.005303167569227858,0.005303167569227858
87.286,0.00868791727629839,0.00868791727629839
87.287,0.009666934298838893,0.009666934298838893
87.28800000000001,0.007707483613452387,0.007707483613452387
87.289,0.003381168443733115,0.003381168443733115
87.29,0.0018279297903248711,-0.0018279297903248711
87.29100000000001,0.006050635969780387,-0.006050635969780387
87.292,0.007711993128404558,-0.007711993128404558
87.293,0.00612204429140491,-0.00612204429140491
87.29400000000001,0.0017643542251898142,-0.0017643542251898142
87.295,0.0038289781785058514,0.0038289781785058514
87.296,0.008583341240637088,0.008583341240637088
87.29700000000001,0.010600814050569623,0.010600814050569623
87.298,0.008845262308438375,0.008845262308438375
87.299,0.00355143874571589,0.00355143874571589
87.30000000000001,0.0037937551780857976,-0.0037937551780857976
87.301,0.010904713380396697,-0.010904713380396697
87.302,0.015441575006483483,-0.015441575006483483
87.30300000000001,0.0157979340721396,-0.0157979340721396
87.304,0.011663374647832986,-0.011663374647832986
87.305,0.004163657645872678,-0.004163657645872678
87.30600000000001,0.004478396115917316,0.004478396115917316
87.307,0.011656132473980414,0.011656132473980414
87.308,0.015232283887682177,0.015232283887682177
87.30900000000001,0.014246818666522264,0.014246818666522264
87.31,0.00923890752650163,0.00923890752650163
87.311,0.0020693508787081845,0.0020693508787081845
87.31200000000001,0.00470338446984038,-0.00470338446984038
87.313,0.008689519483350071,-0.008689519483350071
87.31400000000001,0.008488716316041235,-0.008488716316041235
87.31500000000001,0.004188821859286144,-0.004188821859286144
87.316,0.0026298334312113737,0.0026298334312113737
87.31700000000001,0.009394698161631606,0.009394698161631606
87.31800000000001,0.01338881344405325,0.01338881344405325
87.319,0.012672408096327291,0.012672408096327291
87.32000000000001,0.006776651647653763,0.006776651647653763
87.32100000000001,0.0030617480108312014,-0.0030617480108312014
87.322,0.014210787776202336,-0.014210787776202336
87.32300000000001,0.023410193636295012,-0.023410193636295012
87.32400000000001,0.02776122122909699,-0.02776122122909699
87.325,0.025633490008445694,-0.025633490008445694
87.32600000000001,0.01720767506700378,-0.01720767506700378
87.32700000000001,0.00448491175700331,-0.00448491175700331
87.328,0.009243021774605275,0.009243021774605275
87.32900000000001,0.020305829363725506,0.020305829363725506
87.33000000000001,0.025679828936500223,0.025679828936500223
87.331,0.023827867329949775,0.023827867329949775
87.33200000000001,0.015116532634121578,0.015116532634121578
87.33300000000001,0.0017021323779112904,0.0017021323779112904
87.334,0.013067192820199795,-0.013067192820199795
87.33500000000001,0.025550452875923977,-0.025550452875923977
87.33600000000001,0.03275503948942139,-0.03275503948942139
87.337,0.033063461902500264,-0.033063461902500264
87.33800000000001,0.02656362059978893,-0.02656362059978893
87.33900000000001,0.014921513129570853,-0.014921513129570853
87.34,0.0008640803482646848,-0.0008640803482646848
87.34100000000001,0.012560707735853015,0.012560707735853015
87.34200000000001,0.02273503183130634,0.02273503183130634
87.343,0.028040041097622863,0.028040041097622863
87.34400000000001,0.028117407970510815,0.028117407970510815
87.34500000000001,0.02379352774687574,0.02379352774687574
87.346,0.016727752546526434,0.016727752546526434
87.34700000000001,0.008909317871021576,0.008909317871021576
87.34800000000001,0.002149015124211258,0.002149015124211258
87.349,0.002308744463077825,-0.002308744463077825
87.35000000000001,0.0039781710622941915,-0.0039781710622941915
87.35100000000001,0.003115133054198416,-0.003115133054198416
87.352,0.0005320254162814363,-0.0005320254162814363
87.35300000000001,0.002680648463014284,0.002680648463014284
87.35400000000001,0.0054431535500855215,0.0054431535500855215
87.355,0.006917918667907132,0.006917918667907132
87.35600000000001,0.006644374622248626,0.006644374622248626
87.35700000000001,0.004570097026115562,0.004570097026115562
87.358,0.000996811313197387,0.000996811313197387
87.35900000000001,0.003526068894325964,-0.003526068894325964
87.36000000000001,0.008325865607299445,-0.008325865607299445
87.361,0.012721934490102775,-0.012721934490102775
87.36200000000001,0.016116502801139933,-0.016116502801139933
87.363,0.01805698981828621,-0.01805698981828621
87.364,0.018273286874281872,-0.018273286874281872
87.36500000000001,0.016696141493835467,-0.016696141493835467
87.366,0.013461377777254346,-0.013461377777254346
87.367,0.008901143478101567,-0.008901143478101567
87.36800000000001,0.0035199282087058667,-0.0035199282087058667
87.369,0.0020484742401726133,0.0020484742401726133
87.37,0.007105659438134215,0.007105659438134215
87.37100000000001,0.010973573731771546,0.010973573731771546
87.372,0.01309250259810021,0.01309250259810021
87.373,0.013118659400109107,0.013118659400109107
87.37400000000001,0.011003298198818281,0.011003298198818281
87.375,0.007033981748267305,0.007033981748267305
87.376,0.0018220113745107316,0.0018220113745107316
87.37700000000001,0.0037716130579466167,-0.0037716130579466167
87.378,0.008767021727252073,-0.008767021727252073
87.379,0.012234585134572401,-0.012234585134572401
87.38000000000001,0.013471913661831416,-0.013471913661831416
87.381,0.012152033353657924,-0.012152033353657924
87.382,0.00840796244023613,-0.00840796244023613
87.38300000000001,0.00282984268748749,-0.00282984268748749
87.384,0.0036310846262173134,0.0036310846262173134
87.385,0.009836137795328893,0.009836137795328893
87.38600000000001,0.01467608363176154,0.01467608363176154
87.387,0.01728552937983801,0.01728552937983801
87.388,0.017208702694251666,0.017208702694251666
87.38900000000001,0.014481435998187898,0.014481435998187898
87.39,0.009613599025735048,0.009613599025735048
87.391,0.003478929360411646,0.003478929360411646
87.39200000000001,0.0028608129537624157,-0.0028608129537624157
87.393,0.008358140950853346,-0.008358140950853346
87.394,0.012167167635470866,-0.012167167635470866
87.39500000000001,0.013781818099622917,-0.013781818099622917
87.396,0.013104321767339978,-0.013104321767339978
87.397,0.010438783478141133,-0.010438783478141133
87.39800000000001,0.006417916242132009,-0.006417916242132009
87.399,0.001879892828800033,-0.001879892828800033
87.4,0.002283432785452898,0.002283432785452898
87.40100000000001,0.005284552078108561,0.005284552078108561
87.402,0.006582411152846027,0.006582411152846027
87.403,0.005987046444297216,0.005987046444297216
87.40400000000001,0.0037067977747369005,0.0037067977747369005
87.405,0.0003226625558416301,0.0003226625558416301
87.406,0.003316171045698445,-0.003316171045698445
87.40700000000001,0.0062665118800039644,-0.0062665118800039644
87.408,0.007707356348054071,-0.007707356348054071
87.409,0.007153067039238938,-0.007153067039238938
87.41000000000001,0.0046090817117582054,-0.0046090817117582054
87.411,0.0006199693004410852,-0.0006199693004410852
87.412,0.0038198238591471865,0.0038198238591471865
87.41300000000001,0.007488135764418892,0.007488135764418892
87.414,0.009246377187038838,0.009246377187038838
87.415,0.008363303682067962,0.008363303682067962
87.41600000000001,0.004760147918752655,0.004760147918752655
87.417,0.0009024549927601266,-0.0009024549927601266
87.418,0.007337649471947183,-0.007337649471947183
87.41900000000001,0.012932405746556491,-0.012932405746556491
87.42,0.01616409996699557,-0.01616409996699557
87.421,0.01602223780255175,-0.01602223780255175
87.42200000000001,0.012313504104440924,-0.012313504104440924
87.423,0.00575452398322474,-0.00575452398322474
87.424,0.0021858435379628984,0.0021858435379628984
87.42500000000001,0.009660124791908725,0.009660124791908725
87.426,0.014931160077602512,0.014931160077602512
87.427,0.01683754916589465,0.01683754916589465
87.42800000000001,0.015099839219166666,0.015099839219166666
87.429,0.01037661421807814,0.01037661421807814
87.43,0.004053731129903803,0.004053731129903803
87.43100000000001,0.0021694233988672315,-0.0021694233988672315
87.432,0.00677100878241257,-0.00677100878241257
87.433,0.008826510273971928,-0.008826510273971928
87.43400000000001,0.008232184778384211,-0.008232184778384211
87.435,0.0056700868634380055,-0.0056700868634380055
87.436,0.0023347993577268566,-0.0023347993577268566
87.43700000000001,0.000483094539534172,0.000483094539534172
87.438,0.001818444774908398,0.001818444774908398
87.43900000000001,0.0013217647249821175,0.0013217647249821175
87.44000000000001,0.0006711286399144674,-0.0006711286399144674
87.441,0.0033040822787894068,-0.0033040822787894068
87.44200000000001,0.00553550430794136,-0.00553550430794136
87.44300000000001,0.006522819939276123,-0.006522819939276123
87.444,0.005921907317790571,-0.005921907317790571
87.44500000000001,0.0039986273676343295,-0.0039986273676343295
87.44600000000001,0.0015160394118005002,-0.0015160394118005002
87.447,0.0005606893682410157,0.0005606893682410157
87.44800000000001,0.0014361147556692607,0.0014361147556692607
87.44900000000001,0.0008004628149368872,0.0008004628149368872
87.45,0.001024332610853529,-0.001024332610853529
87.45100000000001,0.0031646664333537505,-0.0031646664333537505
87.45200000000001,0.004480110790353904,-0.004480110790353904
87.453,0.003961087230163603,-0.003961087230163603
87.45400000000001,0.0011072468341426966,-0.0011072468341426966
87.45500000000001,0.0038416125411595728,0.0038416125411595728
87.456,0.009903650120251004,0.009903650120251004
87.45700000000001,0.015590043459729194,0.015590043459729194
87.45800000000001,0.019308794212791875,0.019308794212791875
87.459,0.019815371635357987,0.019815371635357987
87.46000000000001,0.016574183947736208,0.016574183947736208
87.46100000000001,0.009924101236946814,0.009924101236946814
87.462,0.0010032621618822819,0.0010032621618822819
87.46300000000001,0.008537778343625924,-0.008537778343625924
87.46400000000001,0.016943926983876867,-0.016943926983876867
87.465,0.022763563473535864,-0.022763563473535864
87.46600000000001,0.025144785773419786,-0.025144785773419786
87.46700000000001,0.02395088323360016,-0.02395088323360016
87.468,0.019686625051128566,-0.019686625051128566
87.46900000000001,0.01328420508851456,-0.01328420508851456
87.47000000000001,0.005833108778140794,-0.005833108778140794
87.471,0.001658016389568909,0.001658016389568909
87.47200000000001,0.008405423882778366,0.008405423882778366
87.47300000000001,0.013882046929982806,0.013882046929982806
87.474,0.017763054967614628,0.017763054967614628
87.47500000000001,0.01983970485546298,0.01983970485546298
87.47600000000001,0.019959314231378315,0.019959314231378315
87.477,0.018028011375069538,0.018028011375069538
87.47800000000001,0.0140771952258595,0.0140771952258595
87.47900000000001,0.008359502212422352,0.008359502212422352
87.48,0.0014199890598374423,0.0014199890598374423
87.48100000000001,0.005908456096940277,-0.005908456096940277
87.48200000000001,0.0126106206450731,-0.0126106206450731
87.483,0.017681808050643677,-0.017681808050643677
87.48400000000001,0.020357590946888257,-0.020357590946888257
87.48500000000001,0.020309490649679296,-0.020309490649679296
87.486,0.017739901085176306,-0.017739901085176306
87.48700000000001,0.01333831808751652,-0.01333831808751652
87.488,0.00810470714431189,-0.00810470714431189
87.489,0.0030895668628951483,-0.0030895668628951483
87.49000000000001,0.0008714525348232524,0.0008714525348232524
87.491,0.003347814603300563,0.003347814603300563
87.492,0.004372913022875207,0.004372913022875207
87.49300000000001,0.004358227268743005,0.004358227268743005
87.494,0.0038970033008599897,0.0038970033008599897
87.495,0.0035272109385913538,0.0035272109385913538
87.49600000000001,0.0035352562682880798,0.0035352562682880798
87.497,0.003866035257382521,0.003866035257382521
87.498,0.004167093358770119,0.004167093358770119
87.49900000000001,0.0039480175662518656,0.0039480175662518656
87.5,0.0027966848516340972,0.0027966848516340972
87.501,0.0005749217432616182,0.0005749217432616182
87.50200000000001,0.0024763604758234765,-0.0024763604758234765
87.503,0.00576137491349227,-0.00576137491349227
87.504,0.008478012158074038,-0.008478012158074038
87.50500000000001,0.009844169226897995,-0.009844169226897995
87.506,0.009329822202750884,-0.009329822202750884
87.507,0.006821540117940086,-0.006821540117940086
87.50800000000001,0.0026688240667217117,-0.0026688240667217117
87.509,0.0023999274054180026,0.0023999274054180026
87.51,0.007463053828074073,0.007463053828074073
87.51100000000001,0.01163408231563301,0.01163408231563301
87.512,0.014264438930475435,0.014264438930475435
87.513,0.015064478586091883,0.015064478586091883
87.51400000000001,0.014116445219545224,0.014116445219545224
87.515,0.011788696459804128,0.011788696459804128
87.516,0.008590213478043205,0.008590213478043205
87.51700000000001,0.005018663371615018,0.005018663371615018
87.518,0.0014505352443041843,0.0014505352443041843
87.519,0.0018986956731983711,-0.0018986956731983711
87.52000000000001,0.004944415136718825,-0.004944415136718825
87.521,0.007657815738878611,-0.007657815738878611
87.522,0.009984541930919855,-0.009984541930919855
87.52300000000001,0.011793730631949757,-0.011793730631949757
87.524,0.012878742365775617,-0.012878742365775617
87.525,0.0130086559976058,-0.0130086559976058
87.52600000000001,0.012009286632416427,-0.012009286632416427
87.527,0.009841547117458622,-0.009841547117458622
87.528,0.006646923129604452,-0.006646923129604452
87.52900000000001,0.002743130173225311,-0.002743130173225311
87.53,0.0014280944151802265,0.0014280944151802265
87.531,0.005382236529820774,0.005382236529820774
87.53200000000001,0.008675024340562049,0.008675024340562049
87.533,0.010962764887219947,0.010962764887219947
87.534,0.012027771006463286,0.012027771006463286
87.53500000000001,0.011772696001928753,0.011772696001928753
87.536,0.010200381762400795,0.010200381762400795
87.537,0.007399728714923932,0.007399728714923932
87.53800000000001,0.003551282733503736,0.003551282733503736
87.539,0.0010484562447770495,-0.0010484562447770495
87.54,0.005961054775063557,-0.005961054775063557
87.54100000000001,0.01060531524936058,-0.01060531524936058
87.542,0.0143062393837972,-0.0143062393837972
87.543,0.016403192401665958,-0.016403192401665958
87.54400000000001,0.016402698080533278,-0.016402698080533278
87.545,0.014137186046809448,-0.014137186046809448
87.546,0.009876705304210491,-0.009876705304210491
87.54700000000001,0.004343637822234409,-0.004343637822234409
87.548,0.001397263947410609,0.001397263947410609
87.549,0.006164656300840111,0.006164656300840111
87.55000000000001,0.008953493585462489,0.008953493585462489
87.551,0.009216691294078943,0.009216691294078943
87.552,0.0070493889228942525,0.0070493889228942525
87.55300000000001,0.0032089457920395506,0.0032089457920395506
87.554,0.0010530670330205368,-0.0010530670330205368
87.555,0.004315314349814644,-0.004315314349814644
87.55600000000001,0.005385302662960805,-0.005385302662960805
87.557,0.003660396244307548,-0.003660396244307548
87.558,0.0006576701249270528,0.0006576701249270528
87.55900000000001,0.006567137435239687,0.006567137435239687
87.56,0.012500781186155954,0.012500781186155954
87.561,0.016734184369768344,0.016734184369768344
87.56200000000001,0.01785721017304206,0.01785721017304206
87.563,0.015175273068100308,0.015175273068100308
87.56400000000001,0.008923489774453095,0.008923489774453095
87.56500000000001,0.00022886486604654184,0.00022886486604654184
87.566,0.009171672819396348,-0.009171672819396348
87.56700000000001,0.017378120860991247,-0.017378120860991247
87.56800000000001,0.022811530398951233,-0.022811530398951233
87.569,0.024597598661197248,-0.024597598661197248
87.57000000000001,0.022743213171048528,-0.022743213171048528
87.57100000000001,0.018062662079863557,-0.018062662079863557
87.572,0.011885794263811224,-0.011885794263811224
87.57300000000001,0.005644843081216403,-0.005644843081216403
87.57400000000001,0.00046998104384170496,-0.00046998104384170496
87.575,0.0030841009825742474,0.0030841009825742474
87.57600000000001,0.005104159274611339,0.005104159274611339
87.57700000000001,0.0061693031722977664,0.0061693031722977664
87.578,0.00704870845683888,0.00704870845683888
87.57900000000001,0.008355821029018278,0.008355821029018278
87.58000000000001,0.010279802485855706,0.010279802485855706
87.581,0.012486238582925505,0.012486238582925505
87.58200000000001,0.014220490294442601,0.014220490294442601
87.58300000000001,0.014578034506633895,0.014578034506633895
87.584,0.012849440925604465,0.012849440925604465
87.58500000000001,0.008821764102393435,0.008821764102393435
87.58600000000001,0.002931377862390112,0.002931377862390112
87.587,0.0037888997927777042,-0.0037888997927777042
87.58800000000001,0.009958918786798136,-0.009958918786798136
87.58900000000001,0.014223388940329719,-0.014223388940329719
87.59,0.015633827114576115,-0.015633827114576115
87.59100000000001,0.013923024222895593,-0.013923024222895593
87.59200000000001,0.009588023489371156,-0.009588023489371156
87.593,0.003756890449814851,-0.003756890449814851
87.59400000000001,0.0021193254004147847,0.0021193254004147847
87.59500000000001,0.006656099993619301,0.006656099993619301
87.596,0.008891297883876331,0.008891297883876331
87.59700000000001,0.008506572986915073,0.008506572986915073
87.59800000000001,0.005858128426606021,0.005858128426606021
87.599,0.0018204445111680667,0.0018204445111680667
87.60000000000001,0.0024978845900565276,-0.0024978845900565276
87.60100000000001,0.006072994191778415,-0.006072994191778415
87.602,0.008222990279784204,-0.008222990279784204
87.60300000000001,0.008734360812807204,-0.008734360812807204
87.60400000000001,0.007834996032444433,-0.007834996032444433
87.605,0.006041286645362513,-0.006041286645362513
87.60600000000001,0.003943789345003642,-0.003943789345003642
87.60700000000001,0.0020088495813638464,-0.0020088495813638464
87.608,0.00045988140476079317,-0.00045988140476079317
87.60900000000001,0.0007317707013848822,0.0007317707013848822
87.61000000000001,0.0017575188304752298,0.0017575188304752298
87.611,0.0028287825727432853,0.0028287825727432853
87.61200000000001,0.004041394279114582,0.004041394279114582
87.613,0.005300781434419734,0.005300781434419734
87.614,0.006335775369619046,0.006335775369619046
87.61500000000001,0.006794335142704673,0.006794335142704673
87.616,0.006383690249566955,0.006383690249566955
87.617,0.005001081911886609,0.005001081911886609
87.61800000000001,0.0028046624360596123,0.0028046624360596123
87.619,0.0001954450189214229,0.0001954450189214229
87.62,0.0022873684543040034,-0.0022873684543040034
87.62100000000001,0.0041248570321511385,-0.0041248570321511385
87.622,0.004978646997522985,-0.004978646997522985
87.623,0.004799397174656561,-0.004799397174656561
87.62400000000001,0.0038462021218432147,-0.0038462021218432147
87.625,0.002608130755499236,-0.002608130755499236
87.626,0.0016504665411692751,-0.0016504665411692751
87.62700000000001,0.0014323641509711488,-0.0014323641509711488
87.628,0.002152142419974535,-0.002152142419974535
87.629,0.0036686361254232615,-0.0036686361254232615
87.63000000000001,0.00552463266637856,-0.00552463266637856
87.631,0.007068388165279129,-0.007068388165279129
87.632,0.007640475690658001,-0.007640475690658001
87.63300000000001,0.006773951285633103,-0.006773951285633103
87.634,0.004351208662427128,-0.004351208662427128
87.635,0.000671870448738868,-0.000671870448738868
87.63600000000001,0.003590632201016078,0.003590632201016078
87.637,0.0075368449114779235,0.0075368449114779235
87.638,0.010258816304435078,0.010258816304435078
87.63900000000001,0.0110736329746725,0.0110736329746725
87.64,0.009713390937996764,0.009713390937996764
87.641,0.006420941197716314,0.006420941197716314
87.64200000000001,0.0019224477082148176,0.0019224477082148176
87.643,0.0027226390797410005,-0.0027226390797410005
87.644,0.006363011200877812,-0.006363011200877812
87.64500000000001,0.008032901389607376,-0.008032901389607376
87.646,0.007198319127735934,-0.007198319127735934
87.647,0.003909450609739446,-0.003909450609739446
87.64800000000001,0.0011829512298827396,0.0011829512298827396
87.649,0.006956994434759927,0.006956994434759927
87.65,0.012068076555288567,0.012068076555288567
87.65100000000001,0.01525800769245941,0.01525800769245941
87.652,0.01564896275631876,0.01564896275631876
87.653,0.012948408980986493,0.012948408980986493
87.65400000000001,0.0075132533697240145,0.0075132533697240145
87.655,0.000258373001912157,0.000258373001912157
87.656,0.007563565742417631,-0.007563565742417631
87.65700000000001,0.014649573782329738,-0.014649573782329738
87.658,0.01992286097828123,-0.01992286097828123
87.659,0.022726566100471492,-0.022726566100471492
87.66000000000001,0.022890775676196854,-0.022890775676196854
87.661,0.02066971322271648,-0.02066971322271648
87.662,0.01658644979662639,-0.01658644979662639
87.66300000000001,0.011249112537734047,-0.011249112537734047
87.664,0.005206168075842575,-0.005206168075842575
87.665,0.0011124804857250037,0.0011124804857250037
87.66600000000001,0.007359846902371733,0.007359846902371733
87.667,0.013174267894255806,0.013174267894255806
87.668,0.018081404720836233,0.018081404720836233
87.66900000000001,0.02146195601043029,0.02146195601043029
87.67,0.022627902872522913,0.022627902872522913
87.671,0.02100584726721775,0.02100584726721775
87.67200000000001,0.016376323353796615,0.016376323353796615
87.673,0.009081939262560755,0.009081939262560755
87.674,0.0001106200309512775,0.0001106200309512775
87.67500000000001,0.009010654528944177,-0.009010654528944177
87.676,0.016517847601974587,-0.016517847601974587
87.677,0.020844221317347266,-0.020844221317347266
87.67800000000001,0.021066917909726524,-0.021066917909726524
87.679,0.017223698793442408,-0.017223698793442408
87.68,0.010382397618584893,-0.010382397618584893
87.68100000000001,0.0024132087731435314,-0.0024132087731435314
87.682,0.004494584965798762,0.004494584965798762
87.683,0.008443472545401943,0.008443472545401943
87.68400000000001,0.00838662405815463,0.00838662405815463
87.685,0.004458649076120284,0.004458649076120284
87.686,0.002036863840370823,-0.002036863840370823
87.68700000000001,0.008995627164212996,-0.008995627164212996
87.688,0.014136954223485008,-0.014136954223485008
87.68900000000001,0.01569847836619985,-0.01569847836619985
87.69000000000001,0.012986052715086599,-0.012986052715086599
87.691,0.0066023735318605685,-0.0066023735318605685
87.69200000000001,0.0017248992537663291,0.0017248992537663291
87.69300000000001,0.00966885185691016,0.00966885185691016
87.694,0.015021967125912439,0.015021967125912439
87.69500000000001,0.01638205014441569,0.01638205014441569
87.69600000000001,0.013586871172411556,0.013586871172411556
87.697,0.007757146363155939,0.007757146363155939
87.69800000000001,0.0009323513153080311,0.0009323513153080311
87.69900000000001,0.0045848646020059895,-0.0045848646020059895
87.7,0.006965273753577686,-0.006965273753577686
87.70100000000001,0.005433766964348193,-0.005433766964348193
87.70200000000001,0.0005080030012957154,-0.0005080030012957154
87.703,0.006179507814759546,0.006179507814759546
87.70400000000001,0.012414623842734356,0.012414623842734356
87.70500000000001,0.01611375465327048,0.01611375465327048
87.706,0.01598226736321135,0.01598226736321135
87.70700000000001,0.011907022249372996,0.011907022249372996
87.70800000000001,0.004961209261769706,0.004961209261769706
87.709,0.0029710911802251524,-0.0029710911802251524
87.71000000000001,0.009818404109590718,-0.009818404109590718
87.71100000000001,0.013982386609527645,-0.013982386609527645
87.712,0.014817172877009772,-0.014817172877009772
87.71300000000001,0.01277499438813148,-0.01277499438813148
87.71400000000001,0.009180754232984223,-0.009180754232984223
87.715,0.005723379369447439,-0.005723379369447439
87.71600000000001,0.003844544932653444,-0.003844544932653444
87.71700000000001,0.004235186261863729,-0.004235186261863729
87.718,0.006608407219831361,-0.006608407219831361
87.71900000000001,0.009819704489347695,-0.009819704489347695
87.72000000000001,0.012286174479978136,-0.012286174479978136
87.721,0.012556356570720151,-0.012556356570720151
87.72200000000001,0.009834845785165986,-0.009834845785165986
87.72300000000001,0.004285356364723616,-0.004285356364723616
87.724,0.002986008938784041,0.002986008938784041
87.72500000000001,0.010256997484707809,0.010256997484707809
87.72600000000001,0.015713083476796567,0.015713083476796567
87.727,0.017996163287207656,0.017996163287207656
87.72800000000001,0.01660356863295286,0.01660356863295286
87.72900000000001,0.012018335209000745,0.012018335209000745
87.73,0.00554294315326026,0.00554294315326026
87.73100000000001,0.0010963625242589971,-0.0010963625242589971
87.73200000000001,0.006240644664778141,-0.006240644664778141
87.733,0.008731918006990873,-0.008731918006990873
87.73400000000001,0.00816834558964833,-0.00816834558964833
87.73500000000001,0.0049274608446645395,-0.0049274608446645395
87.736,1.8824172252261762e-05,1.8824172252261762e-05
87.73700000000001,0.005413569862386896,0.005413569862386896
87.738,0.010040203339983969,0.010040203339983969
87.739,0.01297079455680656,0.01297079455680656
87.74000000000001,0.013688130776799961,0.013688130776799961
87.741,0.012085359973817811,0.012085359973817811
87.742,0.008387416887371279,0.008387416887371279
87.74300000000001,0.003052495581154745,0.003052495581154745
87.744,0.0033023584622309757,-0.0033023584622309757
87.745,0.009939751017027895,-0.009939751017027895
87.74600000000001,0.016025941989791594,-0.016025941989791594
87.747,0.020679218909062314,-0.020679218909062314
87.748,0.02307433249660241,-0.02307433249660241
87.74900000000001,0.022605460258887065,-0.022605460258887065
87.75,0.019071948822653364,-0.019071948822653364
87.751,0.01282192520812478,-0.01282192520812478
87.75200000000001,0.004784118056690139,-0.004784118056690139
87.753,0.0036562075324437994,0.0036562075324437994
87.754,0.010932061041887228,0.010932061041887228
87.75500000000001,0.01565945483201033,0.01565945483201033
87.756,0.016990537179119147,0.016990537179119147
87.757,0.014845269589241252,0.014845269589241252
87.75800000000001,0.009941873537939443,0.009941873537939443
87.759,0.003606635391091361,0.003606635391091361
87.76,0.002585714190908072,-0.002585714190908072
87.76100000000001,0.0072337505100052695,-0.0072337505100052695
87.762,0.009464865743303895,-0.009464865743303895
87.763,0.00911841552696079,-0.00911841552696079
87.76400000000001,0.006708676588734251,-0.006708676588734251
87.765,0.0031936723617535926,-0.0031936723617535926
87.766,0.0003609298872778852,0.0003609298872778852
87.76700000000001,0.003103696176806091,0.003103696176806091
87.768,0.004599385345294144,0.004599385345294144
87.769,0.0048562676722107056,0.0048562676722107056
87.77000000000001,0.00419269112391241,0.00419269112391241
87.771,0.003016701363397132,0.003016701363397132
87.772,0.0016209501684476782,0.0016209501684476782
87.77300000000001,8.157714103090287e-05,8.157714103090287e-05
87.774,0.0016998323259951025,-0.0016998323259951025
87.775,0.0038375105771716557,-0.0038375105771716557
87.77600000000001,0.006266773558892827,-0.006266773558892827
87.777,0.00861481416059723,-0.00861481416059723
87.778,0.01021579474853325,-0.01021579474853325
87.77900000000001,0.010290332493468501,-0.010290332493468501
87.78,0.00823736688231361,-0.00823736688231361
87.781,0.003929937141603321,-0.003929937141603321
87.78200000000001,0.0021100414881334495,0.0021100414881334495
87.783,0.008749532240870089,0.008749532240870089
87.784,0.014512416246481745,0.014512416246481745
87.78500000000001,0.018007425819885146,0.018007425819885146
87.786,0.018376495069649744,0.018376495069649744
87.787,0.01560234136193748,0.01560234136193748
87.78800000000001,0.01055175499395865,0.01055175499395865
87.789,0.00471823707198754,0.00471823707198754
87.79,0.00026499435845907975,-0.00026499435845907975
87.79100000000001,0.0031817684639704955,-0.0031817684639704955
87.792,0.003663555285967806,-0.003663555285967806
87.793,0.0023313000057528233,-0.0023313000057528233
87.79400000000001,0.0005806736038633566,-0.0005806736038633566
87.795,6.8057149510568e-05,-6.8057149510568e-05
87.796,0.002066280743754459,-0.002066280743754459
87.79700000000001,0.006916212588840356,-0.006916212588840356
87.798,0.0137792920481895,-0.0137792920481895
87.799,0.02080062262033725,-0.02080062262033725
87.80000000000001,0.025652799150327157,-0.025652799150327157
87.801,0.026294794918148685,-0.026294794918148685
87.802,0.0216962028290419,-0.0216962028290419
87.80300000000001,0.012276611155820906,-0.012276611155820906
87.804,0.00010377154499390674,0.00010377154499390674
87.805,0.012620072394908336,0.012620072394908336
87.80600000000001,0.022286232734351825,0.022286232734351825
87.807,0.026833222054419667,0.026833222054419667
87.808,0.02537885335287999,0.02537885335287999
87.80900000000001,0.018671131385039185,0.018671131385039185
87.81,0.008826629099400447,0.008826629099400447
87.811,0.0013476171581368534,-0.0013476171581368534
87.81200000000001,0.00922287389408947,-0.00922287389408947
87.813,0.013121902350003834,-0.013121902350003834
87.81400000000001,0.012747590806069044,-0.012747590806069044
87.81500000000001,0.009139756453883516,-0.009139756453883516
87.816,0.0041963311416150124,-0.0041963311416150124
87.81700000000001,5.6854133570701816e-05,5.6854133570701816e-05
87.81800000000001,0.002182596058263805,0.002182596058263805
87.819,0.0017840544928980771,0.0017840544928980771
87.82000000000001,0.00045659612907959996,-0.00045659612907959996
87.82100000000001,0.0031469486731883455,-0.0031469486731883455
87.822,0.004805739871130827,-0.004805739871130827
87.82300000000001,0.004491606211366262,-0.004491606211366262
87.82400000000001,0.002195174769830694,-0.002195174769830694
87.825,0.0011573493367051314,0.0011573493367051314
87.82600000000001,0.004091481681914813,0.004091481681914813
87.82700000000001,0.005213376172578627,0.005213376172578627
87.828,0.0038337455718390964,0.0038337455718390964
87.82900000000001,0.00033446734587494204,0.00033446734587494204
87.83000000000001,0.003884236652498735,-0.003884236652498735
87.831,0.006883032195969302,-0.006883032195969302
87.83200000000001,0.006931726540209544,-0.006931726540209544
87.83300000000001,0.003256190294124648,-0.003256190294124648
87.834,0.003504202054614307,0.003504202054614307
87.83500000000001,0.011328814827401421,0.011328814827401421
87.83600000000001,0.017371528594224507,0.017371528594224507
87.837,0.01888568423827665,0.01888568423827665
87.83800000000001,0.014220136212268628,0.014220136212268628
87.83900000000001,0.0035421859365808795,0.0035421859365808795
87.84,0.010984988687728884,-0.010984988687728884
87.84100000000001,0.02567299997653489,-0.02567299997653489
87.84200000000001,0.03631656717414297,-0.03631656717414297
87.843,0.03944397068721583,-0.03944397068721583
87.84400000000001,0.03342061389762042,-0.03342061389762042
87.84500000000001,0.019048708963180422,-0.019048708963180422
87.846,0.0005439172357431311,0.0005439172357431311
87.84700000000001,0.02071226157628944,0.02071226157628944
87.84800000000001,0.03656630503502576,0.03656630503502576
87.849,0.04432600511660406,0.04432600511660406
87.85000000000001,0.04235152678050312,0.04235152678050312
87.85100000000001,0.0315435625334373,0.0315435625334373
87.852,0.015006335786565166,0.015006335786565166
87.85300000000001,0.002905736720178472,-0.002905736720178472
87.85400000000001,0.01785148217827616,-0.01785148217827616
87.855,0.0266864798029843,-0.0266864798029843
87.85600000000001,0.028218299412594135,-0.028218299412594135
87.85700000000001,0.023334775529718917,-0.023334775529718917
87.858,0.014512041292584552,-0.014512041292584552
87.85900000000001,0.0049016542298092325,-0.0049016542298092325
87.86000000000001,0.0026857966833120353,0.0026857966833120353
87.861,0.006574335558160036,0.006574335558160036
87.86200000000001,0.006564539585355694,0.006564539585355694
87.863,0.003760221254623008,0.003760221254623008
87.864,9.129521415516678e-06,-9.129521415516678e-06
87.86500000000001,0.0029343405408028926,-0.0029343405408028926
87.866,0.0038691782208110635,-0.0038691782208110635
87.867,0.0026572101909122813,-0.0026572101909122813
87.86800000000001,5.8951139245739666e-05,-5.8951139245739666e-05
87.869,0.002656100054019618,0.002656100054019618
87.87,0.004272490458158084,0.004272490458158084
87.87100000000001,0.004123457595794623,0.004123457595794623
87.872,0.002333840458736581,0.002333840458736581
87.873,0.0002672374126784852,-0.0002672374126784852
87.87400000000001,0.0025139132999250505,-0.0025139132999250505
87.875,0.003397123516657343,-0.003397123516657343
87.876,0.002487191868383561,-0.002487191868383561
87.87700000000001,0.00012095053237475963,-0.00012095053237475963
87.878,0.0027177893133378877,0.0027177893133378877
87.879,0.004777441703144906,0.004777441703144906
87.88000000000001,0.005031857934240865,0.005031857934240865
87.881,0.003098868121859099,0.003098868121859099
87.882,0.0005767076303275151,-0.0005767076303275151
87.88300000000001,0.00484881413971433,-0.00484881413971433
87.884,0.008263243466059394,-0.008263243466059394
87.885,0.009577156564738221,-0.009577156564738221
87.88600000000001,0.008216272467988865,-0.008216272467988865
87.887,0.004501951475831005,-0.004501951475831005
87.888,0.0004374923893191905,0.0004374923893191905
87.88900000000001,0.005043518734173817,0.005043518734173817
87.89,0.00786066771792539,0.00786066771792539
87.891,0.008038209154320557,0.008038209154320557
87.89200000000001,0.005622354951884868,0.005622354951884868
87.893,0.001535101920615294,0.001535101920615294
87.894,0.002753430440566533,-0.002753430440566533
87.89500000000001,0.005744004653850672,-0.005744004653850672
87.896,0.0064360115594952584,-0.0064360115594952584
87.897,0.004678458897099019,-0.004678458897099019
87.89800000000001,0.0012210847424826083,-0.0012210847424826083
87.899,0.002552131733027639,0.002552131733027639
87.9,0.0051136289406595445,0.0051136289406595445
87.90100000000001,0.0053356941262061326,0.0053356941262061326
87.902,0.002897505542003604,0.002897505542003604
87.903,0.0015852441910222915,-0.0015852441910222915
87.90400000000001,0.0067525046199234,-0.0067525046199234
87.905,0.010947034127484542,-0.010947034127484542
87.906,0.012762897525850858,-0.012762897525850858
87.90700000000001,0.011508674271210507,-0.011508674271210507
87.908,0.007430368699167008,-0.007430368699167008
87.909,0.0016232181551070468,-0.0016232181551070468
87.91000000000001,0.004331578800613406,0.004331578800613406
87.911,0.008876991205784588,0.008876991205784588
87.912,0.010962786615493296,0.010962786615493296
87.91300000000001,0.010341066586053034,0.010341066586053034
87.914,0.007584135638217937,0.007584135638217937
87.915,0.0038321212913578224,0.0038321212913578224
87.91600000000001,0.0003699437231313852,0.0003699437231313852
87.917,0.0018122806978413052,-0.0018122806978413052
87.918,0.0023224446252312456,-0.0023224446252312456
87.91900000000001,0.0014350227470978207,-0.0014350227470978207
87.92,8.573980809461228e-05,8.573980809461228e-05
87.921,0.0013303982618658,0.0013303982618658
87.92200000000001,0.001621215259751974,0.001621215259751974
87.923,0.000778695507776229,0.000778695507776229
87.924,0.0008202002649580904,-0.0008202002649580904
87.92500000000001,0.0024104062153733332,-0.0024104062153733332
87.926,0.003166638398561229,-0.003166638398561229
87.927,0.002563960355276946,-0.002563960355276946
87.92800000000001,0.0006313470436314259,-0.0006313470436314259
87.929,0.0020027584762193173,0.0020027584762193173
87.93,0.004297796298282647,0.004297796298282647
87.93100000000001,0.00516022266533754,0.00516022266533754
87.932,0.0038484352185353564,0.0038484352185353564
87.933,0.000277370301975307,0.000277370301975307
87.93400000000001,0.004891091800327034,-0.004891091800327034
87.935,0.010412142397949605,-0.010412142397949605
87.936,0.014827505735038821,-0.014827505735038821
87.93700000000001,0.01691812142902467,-0.01691812142902467
87.938,0.01608663754315452,-0.01608663754315452
87.93900000000001,0.012538635728868725,-0.012538635728868725
87.94000000000001,0.007200037737211706,-0.007200037737211706
87.941,0.0013992279395507335,-0.0013992279395507335
87.94200000000001,0.0035756951647144073,0.0035756951647144073
87.94300000000001,0.00689026715387379,0.00689026715387379
87.944,0.008403248587683503,0.008403248587683503
87.94500000000001,0.008648866235036932,0.008648866235036932
87.94600000000001,0.00856898430511211,0.00856898430511211
87.947,0.009091960975529669,0.009091960975529669
87.94800000000001,0.010711613298643344,0.010711613298643344
87.94900000000001,0.013223169116606986,0.013223169116606986
87.95,0.015721136671811905,0.015721136671811905
87.95100000000001,0.016873681046095657,0.016873681046095657
87.95200000000001,0.015389957103945523,0.015389957103945523
87.953,0.010524751724434263,0.010524751724434263
87.95400000000001,0.002444256648094685,0.002444256648094685
87.95500000000001,0.007683811874869284,-0.007683811874869284
87.956,0.017925103687421624,-0.017925103687421624
87.95700000000001,0.026080833179308566,-0.026080833179308566
87.95800000000001,0.03030842371984779,-0.03030842371984779
87.959,0.029667280093551126,-0.029667280093551126
87.96000000000001,0.024414319251172087,-0.024414319251172087
87.96100000000001,0.01594944848625739,-0.01594944848625739
87.962,0.006420473836255775,-0.006420473836255775
87.96300000000001,0.0018952414343714806,0.0018952414343714806
87.96400000000001,0.007243633721217113,0.007243633721217113
87.965,0.008880840342848589,0.008880840342848589
87.96600000000001,0.007245540809020775,0.007245540809020775
87.96700000000001,0.003766946660258121,0.003766946660258121
87.968,0.0003726715321224422,0.0003726715321224422
87.96900000000001,0.0011464706288177797,-0.0011464706288177797
87.97000000000001,0.00028465583330358714,0.00028465583330358714
87.971,0.0046814909974870695,0.0046814909974870695
87.97200000000001,0.010992762735494443,0.010992762735494443
87.97300000000001,0.017425908533036615,0.017425908533036615
87.974,0.02199771200003666,0.02199771200003666
87.97500000000001,0.023136507053656188,0.023136507053656188
87.97600000000001,0.020151885482933382,0.020151885482933382
87.977,0.013434784439707569,0.013434784439707569
87.97800000000001,0.0043382266685538405,0.0043382266685538405
87.97900000000001,0.005212241693885143,-0.005212241693885143
87.98,0.013250659682003708,-0.013250659682003708
87.98100000000001,0.018282477565601397,-0.018282477565601397
87.98200000000001,0.01963031632649982,-0.01963031632649982
87.983,0.017528426356717298,-0.017528426356717298
87.98400000000001,0.012962660527083697,-0.012962660527083697
87.98500000000001,0.0073288457052292704,-0.0073288457052292704
87.986,0.002028885573392965,-0.002028885573392965
87.98700000000001,0.0018715127217461052,0.0018715127217461052
87.988,0.0038345179130961676,0.0038345179130961676
87.989,0.0038614338809816033,0.0038614338809816033
87.99000000000001,0.002355029509365999,0.002355029509365999
87.991,9.291300530642507e-05,-9.291300530642507e-05
87.992,0.0029032185188045015,-0.0029032185188045015
87.99300000000001,0.005634708460538683,-0.005634708460538683
87.994,0.008009016247930696,-0.008009016247930696
87.995,0.009854934871731986,-0.009854934871731986
87.99600000000001,0.011022992265102704,-0.011022992265102704
87.997,0.011326982877225167,-0.011326982877225167
87.998,0.010550144240966208,-0.010550144240966208
87.99900000000001,0.008518893078892236,-0.008518893078892236
88.0,0.005211710225761062,-0.005211710225761062
88.001,0.0008498365898300762,-0.0008498365898300762
88.00200000000001,0.004081195889466181,0.004081195889466181
88.003,0.008905082258453502,0.008905082258453502
88.004,0.012911105615451234,0.012911105615451234
88.00500000000001,0.015545165626686933,0.015545165626686933
