Czas,Sum
42.85,0.014885598300543123
42.851,0.009989495656776233
42.852,0.0034924166990720003
42.853,0.0033477069037943724
42.854,0.009177946931883337
42.855,0.012846237115646654
42.856,0.013659627346014606
42.857,0.01153955531513523
42.858,0.0070331430015566155
42.859,0.00117612069992175
42.86,0.004758253088601581
42.861,0.009559968396263266
42.862,0.01235593352708125
42.863,0.01278826861188471
42.864,0.011055968548100927
42.865,0.007816273194457643
42.866,0.0039794182037959265
42.867,0.0004570302096289168
42.868,0.002066770346078088
42.869,0.0032831276559480006
42.87,0.0032926797462050463
42.870999999999995,0.0025270823905972277
42.872,0.0015892360400632886
42.873,0.001063165455131903
42.873999999999995,0.0013483394637349314
42.875,0.0025615289692010237
42.876,0.004526672584217308
42.876999999999995,0.006846958288977069
42.878,0.009031120484371026
42.879,0.010633619493021888
42.879999999999995,0.011368402834579544
42.881,0.01116713280129234
42.882,0.010170925466817388
42.882999999999996,0.008664125959463292
42.884,0.006974027447422271
42.885,0.005367984592391421
42.885999999999996,0.003977799154034083
42.887,0.0027717854186320307
42.888,0.0015806584599142722
42.888999999999996,0.00016832321553393256
42.89,0.0016733930980877803
42.891,0.004033226877764332
42.891999999999996,0.006818464174202191
42.893,0.009741180912509622
42.894,0.012359240513533865
42.894999999999996,0.014164533754448547
42.896,0.014698516703774377
42.897,0.013667313161813452
42.897999999999996,0.011027557589819683
42.899,0.007020297173947724
42.9,0.0021424102426880727
42.900999999999996,0.0029397185807083287
42.902,0.007514964306811312
42.903,0.010961448800769819
42.903999999999996,0.012858138774043383
42.905,0.013048499665776571
42.906,0.01164367707030805
42.907,0.008969070527441069
42.908,0.005473156099310738
42.909,0.0016264960455009314
42.91,0.002160748420922212
42.911,0.005582898357493363
42.912,0.008438956180675191
42.913,0.010599051115923875
42.914,0.011958703499845546
42.915,0.012405740252245301
42.916,0.01181851652033602
42.917,0.01010055783153483
42.918,0.007240638352500392
42.919,0.0033745899864831095
42.92,0.0011792278160586461
42.921,0.005932706986473148
42.922,0.01029581258636722
42.923,0.013687108856286193
42.924,0.015658192795530625
42.925,0.01599556936187576
42.926,0.014767919887713466
42.927,0.012302367084720515
42.928,0.009095326386345788
42.929,0.00568447663095455
42.93,0.002520962655359138
42.931,0.00011947890875207845
42.931999999999995,0.0021613856155799785
42.933,0.00368762968945658
42.934,0.004851103923881737
42.934999999999995,0.0057763328900446755
42.936,0.006489946547412223
42.937,0.006907133541171839
42.937999999999995,0.0068789531987682425
42.939,0.006280752868773162
42.94,0.0051041346480873466
42.940999999999995,0.0035110215303284517
42.942,0.0018206116973569942
42.943,0.0004246898034386497
42.943999999999996,0.00034467194079106436
42.945,0.00034908928204188444
42.946,0.00027286795088068413
42.946999999999996,0.0011127999196922584
42.948,0.0016008404379682525
42.949,0.0011902600819299173
42.949999999999996,0.0004372454894490557
42.951,0.003215046689990384
42.952,0.006644262419803329
42.952999999999996,0.009885263836663548
42.954,0.011973942900433842
42.955,0.012105927671920166
42.955999999999996,0.009904499067502293
42.957,0.005586020987509545
42.958,3.749037432124779e-05
42.958999999999996,0.005732201487674806
42.96,0.010152327993854467
42.961,0.01220151708569424
42.961999999999996,0.011341277261719173
42.963,0.007753464347200374
42.964,0.0023042667100245293
42.964999999999996,0.0036851313707741426
42.966,0.008798343946621816
42.967,0.011911232607491015
42.967999999999996,0.012494522349517064
42.969,0.010743025319332796
42.97,0.007493562297207622
42.971,0.00395596124510658
42.972,0.0013367913805777737
42.973,0.0004672281222503494
42.974,0.0015452279587805182
42.975,0.004068512511761798
42.976,0.0069788499462625055
42.977,0.008976395723937892
42.978,0.008913477588185587
42.979,0.006154343402993519
42.98,0.0007972390956623846
42.981,0.006305605384277082
42.982,0.013737601784280693
42.983,0.019866351329834993
42.984,0.023257189721181255
42.985,0.023041131562246946
42.986,0.01914034200285565
42.987,0.012293729152105156
42.988,0.0038789591045477905
42.989,0.004419737165500359
42.99,0.011010245713255604
42.991,0.014755916357134427
42.992,0.015214562474055738
42.993,0.012699295722485895
42.994,0.008154783277054399
42.995,0.0028892886681336784
42.995999999999995,0.0017630339247541298
42.997,0.004761817001802081
42.998,0.005584187396020397
42.998999999999995,0.004303750884703432
43.0,0.001516017719760895
43.001,0.001858910838391537
43.001999999999995,0.004836546215356014
43.003,0.006619881023358092
43.004,0.0067799114481947795
43.004999999999995,0.005326132908836118
43.006,0.002661040113828948
43.007,0.0005559238228668403
43.007999999999996,0.0035882089084894814
43.009,0.00579319887238013
43.01,0.006741985349978455
43.010999999999996,0.0062670472202208385
43.012,0.004442305343995072
43.013,0.001520328235638386
43.013999999999996,0.0021398089696669487
43.015,0.006125654897051982
43.016,0.009993360869291725
43.016999999999996,0.013266712114922228
43.018,0.015437257405875343
43.019,0.015993786585826265
43.019999999999996,0.014499134683322049
43.021,0.010710411326043317
43.022,0.004713199380836661
43.022999999999996,0.002978551012163826
43.024,0.01140816742917215
43.025,0.01928161052766057
43.025999999999996,0.025192602620228287
43.027,0.027926326593642668
43.028,0.02676604739642143
43.028999999999996,0.02171281343729857
43.03,0.013542378867847102
43.031,0.0036645767287623106
43.032,0.00619214620697022
43.033,0.01439206542119765
43.034,0.019784438995303903
43.035,0.02196002799301511
43.036,0.021291329730485368
43.037,0.018740911756431933
43.038,0.015496400164374508
43.039,0.01254978799678911
43.04,0.010361792035037821
43.041,0.008728772516676487
43.042,0.00690511166847806
43.043,0.0039473242251390865
43.044,0.0008341548795093893
43.045,0.007475504725848171
43.046,0.01516573137223305
43.047,0.022351310282765692
43.048,0.027134508299417853
43.049,0.02785714835737003
43.05,0.023687196427293306
43.051,0.015007826122909223
43.052,0.0034576895396023466
43.053,0.00842485572322517
43.054,0.01787305277893048
43.055,0.022687797573413868
43.056,0.021912817230186208
43.056999999999995,0.016165733016001188
43.058,0.0074987213515460855
43.059,0.0011934854667579164
43.059999999999995,0.007053979615339588
43.061,0.008166857946652372
43.062,0.004196880041050361
43.062999999999995,0.003450198429653611
43.064,0.012019186141724961
43.065,0.018248515520230796
43.065999999999995,0.01941611730759407
43.067,0.014264399047776129
43.068,0.0035056613983273943
43.068999999999996,0.010269967773004452
43.07,0.023280697910548865
43.071,0.0316436348633841
43.071999999999996,0.0325474030673523
43.073,0.025148776428022625
43.074,0.010910050028302927
43.074999999999996,0.006741737859305212
43.076,0.023348088728066114
43.077,0.03467727471484117
43.077999999999996,0.03793721525069394
43.079,0.03258162925037238
43.08,0.020466840386437538
43.080999999999996,0.005309382344404774
43.082,0.008397294658959338
43.083,0.016688426447079442
43.083999999999996,0.017273110502158406
43.085,0.010186836796690869
43.086,0.0022322630801354304
43.086999999999996,0.016026565016242014
43.088,0.026753144431552005
43.089,0.0307351205176282
43.089999999999996,0.02607218351505571
43.091,0.013133639782895173
43.092,0.005583875858382613
43.092999999999996,0.026165628065240323
43.094,0.044329111917114375
43.095,0.05650604745944465
43.096,0.06065754277412347
43.097,0.05662069595197585
43.098,0.04593353092086317
43.099,0.03123817068852342
43.1,0.015473787406573718
43.101,0.0011109174314244228
43.102,0.010359273627570994
43.103,0.01856558426285075
43.104,0.024036114280557113
43.105,0.027735097747175367
43.106,0.030539182952291945
43.107,0.03283604176068471
43.108,0.03437162138788464
43.109,0.03438037890627954
43.11,0.03193674258216107
43.111,0.02639596413434892
43.112,0.017768331616775487
43.113,0.006896779135437522
43.114,0.0046269188363114305
43.115,0.014790015884658784
43.116,0.02163965800767101
43.117,0.02378146853047864
43.118,0.020756791237835505
43.119,0.01319475816060124
43.12,0.0026974601196427255
43.120999999999995,0.008512922617346961
43.122,0.018096173760471134
43.123,0.024121590766049233
43.123999999999995,0.02549458033406155
43.125,0.02218359174200037
43.126,0.01519833095778581
43.126999999999995,0.0063289918334642785
43.128,0.002289439230157822
43.129,0.008685444244055837
43.129999999999995,0.011514597223204507
43.131,0.010372340899050432
43.132,0.005883790382648306
43.132999999999996,0.0004515635175994153
43.134,0.00662680164150991
43.135,0.010623325463869876
43.135999999999996,0.01092038812528871
43.137,0.0068965064875685135
43.138,0.0009777219632791376
43.138999999999996,0.011209445067692397
43.14,0.02160822848206464
43.141,0.02979474335372215
43.141999999999996,0.033774135605464765
43.143,0.03243400732299593
43.144,0.02584091104464951
43.144999999999996,0.015256125241236358
43.146,0.002860484333767181
43.147,0.008748170514358894
43.147999999999996,0.017162258001864238
43.149,0.02072562424783508
43.15,0.01890884250643022
43.150999999999996,0.012406767813754814
43.152,0.002938591784289432
43.153,0.007192495178538372
43.153999999999996,0.015662228818842962
43.155,0.020664797886956243
43.156,0.021294456252483343
43.157,0.01768174642578775
43.158,0.010865510467799636
43.159,0.0024524510144310094
43.16,0.005831059265063351
43.161,0.012568816308094442
43.162,0.016954666124400233
43.163,0.01889520012218809
43.164,0.018908048513166905
43.165,0.017866242339166033
43.166,0.016678167330554838
43.167,0.016003039735435053
43.168,0.01608244559586727
43.169,0.016726864227561606
43.17,0.017445846385192653
43.171,0.017666999504344024
43.172,0.01696471415721702
43.173,0.015220920704247444
43.174,0.012665563390400064
43.175,0.009785383316952577
43.176,0.00713321062372645
43.177,0.0051030376060771905
43.178,0.0037487877884933942
43.179,0.0027131034472034875
43.18,0.0012998994069272748
43.181,0.0013197838527099514
43.181999999999995,0.005822134561640177
43.183,0.012447759084059604
43.184,0.020810407447072167
43.184999999999995,0.029866075279836188
43.186,0.03806989269500103
43.187,0.04369591433308536
43.187999999999995,0.045246123848613484
43.189,0.04184386010547808
43.19,0.03350349062711808
43.190999999999995,0.021195248064908915
43.192,0.006675893519414411
43.193,0.007881031305851645
43.193999999999996,0.020364635609961337
43.195,0.029191081990805227
43.196,0.03362843570052621
43.196999999999996,0.033893590479125275
43.198,0.03099619187138945
43.199,0.02637737399930968
43.199999999999996,0.021452132762433827
43.201,0.01719417335011247
43.202,0.013890468094792678
43.202999999999996,0.011141279647513169
43.204,0.008104396607562717
43.205,0.0039030105014860833
43.205999999999996,0.0019397412795538393
43.207,0.009190773259609767
43.208,0.016838137380826936
43.208999999999996,0.023304945107308152
43.21,0.02689523156107008
43.211,0.02633973197920436
43.211999999999996,0.021267137538829046
43.213,0.01243878297185237
43.214,0.0016508967592883622
43.214999999999996,0.00869013192183573
43.216,0.01620866243205494
43.217,0.019230713784345217
43.217999999999996,0.017279227449081246
43.219,0.011233370920733178
43.22,0.0030899773493108995
43.221,0.004612775877558804
43.222,0.00954200940883065
43.223,0.010261912409359161
43.224,0.006657325121322749
43.225,4.4530525597037026e-05
43.226,0.0076642189173203494
43.227,0.013753235451475006
43.228,0.01635808966472685
43.229,0.014626443203459556
43.23,0.009065341259573381
43.231,0.0013713691489545226
43.232,0.006111575382734556
43.233,0.011132885787762852
43.234,0.012237690003061743
43.235,0.009208182552137395
43.236,0.003106206500494182
43.237,0.00409130124763289
43.238,0.010141332299437915
43.239,0.013255424437908779
43.24,0.012658778560375747
43.241,0.008810553378296188
43.242,0.003220788456283728
43.243,0.0020684379468127066
43.244,0.005162117261952813
43.245,0.004927703867014829
43.245999999999995,0.0013487737433684386
43.247,0.0044905488607596255
43.248,0.010774032594364028
43.248999999999995,0.015542928309807951
43.25,0.017306427125917515
43.251,0.01547284566880385
43.251999999999995,0.010468592644545346
43.253,0.0035219441229657413
43.254,0.0037969422326645055
43.254999999999995,0.010108669993060744
43.256,0.014640447822576492
43.257,0.017383744041219177
43.257999999999996,0.018948969773119887
43.259,0.020183128699161633
43.26,0.021702253392407764
43.260999999999996,0.023521502221130496
43.262,0.024931274965321742
43.263,0.024679717422329623
43.263999999999996,0.02141117915379396
43.265,0.014215142907348096
43.266,0.0030940736471940706
43.266999999999996,0.01082199061206666
43.268,0.02540733707671178
43.269,0.03799984150879918
43.269999999999996,0.04606023130646804
43.271,0.047836011619128455
43.272,0.04282964805710187
43.272999999999996,0.03193005117640472
43.274,0.017170643192974188
43.275,0.0011920280826925307
43.275999999999996,0.013424707008918643
43.277,0.024754582553715893
43.278,0.031886240978001065
43.278999999999996,0.03495415544349383
43.28,0.03486581003567961
43.281,0.032839029180926446
43.282,0.029917519469229204
43.283,0.02662799805605325
43.284,0.022883980430148616
43.285,0.018150913802444876
43.286,0.011796235338127537
43.287,0.003486564915267637
43.288,0.00651792277078684
43.289,0.017282475269772665
43.29,0.027364498336706553
43.291,0.03517629563086916
43.292,0.039424998357159194
43.293,0.03948483519962446
43.294,0.035579558453465644
43.295,0.02871559426695256
43.296,0.020387787718774312
43.297,0.012152486103343105
43.298,0.005203683067893439
43.299,8.455578640298983e-05
43.3,0.0033789002054203537
43.301,0.005907769992189857
43.302,0.008424828681304208
43.303,0.011650018480104541
43.304,0.015770737037085435
43.305,0.020296818656661088
43.306,0.024152404368776585
43.306999999999995,0.02598363644572456
43.308,0.024594332280394555
43.309,0.019380908579650406
43.309999999999995,0.010634172931696365
43.311,0.0003903441727236061
43.312,0.011669993685561035
43.312999999999995,0.020844438880154054
43.314,0.025776791290280345
43.315,0.025107396671314
43.315999999999995,0.01865712013048194
43.317,0.007568751966978344
43.318,0.005864719897409241
43.318999999999996,0.018661768371752107
43.32,0.027809180744975216
43.321,0.030967508588935152
43.321999999999996,0.027059032952759278
43.323,0.016590994145889555
43.324,0.0016216138779959132
43.324999999999996,0.014643481741153128
43.326,0.02854867339976873
43.327,0.03682810899866269
43.327999999999996,0.0373923846596083
43.329,0.029867917188804077
43.33,0.015744496350474434
43.330999999999996,0.0019239145477367382
43.332,0.019210448073534014
43.333,0.03224133603800478
43.333999999999996,0.03813123351400076
43.335,0.03568964972064725
43.336,0.025710051756055015
43.336999999999996,0.010756131272925431
43.338,0.00550920498730881
43.339,0.019282041689551704
43.339999999999996,0.027609950039775163
43.341,0.029150106979093895
43.342,0.02448323012036543
43.342999999999996,0.015893335793845498
43.344,0.00667204870693194
43.345,0.0001418786765815747
43.346,0.0013242912266431864
43.347,0.002994007336459619
43.348,0.011943708374502248
43.349,0.02282429986391212
43.35,0.032167195106104225
43.351,0.03674103351621558
43.352,0.03448846213827263
43.353,0.025120211159477386
43.354,0.010194745629555076
43.355,0.007333859346731704
43.356,0.02395753977238041
43.357,0.036587003373703
43.358,0.04336066426699569
43.359,0.04404927359343384
43.36,0.03994471743325691
43.361,0.033284795890155004
43.362,0.026412308584265434
43.363,0.02095006366316971
43.364,0.017266657235313575
43.365,0.014412485809530397
43.366,0.010551102776662987
43.367,0.0037465167582244763
43.368,0.007154936739715241
43.369,0.021849042759015804
43.37,0.03834824522507582
43.370999999999995,0.053312668620325465
43.372,0.06286858690834021
43.373,0.06368682255192663
43.373999999999995,0.054002534870565375
43.375,0.03426424405460858
43.376,0.007203388998914294
43.376999999999995,0.022714654671209616
43.378,0.05031335918373883
43.379,0.07091578268944126
43.379999999999995,0.08140286087686557
43.381,0.08082778874850854
43.382,0.07043197815119781
43.382999999999996,0.05308995229107218
43.384,0.032380235150244005
43.385,0.01158379768106781
43.385999999999996,0.00708111593536618
43.387,0.022769801118684683
43.388,0.03580792342109911
43.388999999999996,0.04708843444518068
43.39,0.057314718182032806
43.391,0.06638334090519456
43.391999999999996,0.07314673803035117
43.393,0.07566043331320584
43.394,0.07184597764951166
43.394999999999996,0.06034767131389833
43.396,0.041280273931552744
43.397,0.01658514572774652
43.397999999999996,0.010170531181635417
43.399,0.03453891612609853
43.4,0.05228705814812348
43.400999999999996,0.06052340372568452
43.402,0.058509160005734265
43.403,0.04789204651504465
43.403999999999996,0.032270005293642705
43.405,0.016196579682378958
43.406,0.003913642396309145
43.407,0.0018147777087570362
43.408,0.0004208049196645536
43.409,0.006408686481953008
43.41,0.015343692066462994
43.411,0.02249856105026441
43.412,0.024656971648927176
43.413,0.0202580553618839
43.414,0.009846954592373001
43.415,0.004135537275141817
43.416,0.018141465651845
43.417,0.028620998219393564
43.418,0.03309058511458396
43.419,0.030831730294387644
43.42,0.02301517967473121
43.421,0.01223505341866247
43.422,0.0016272752558326616
43.423,0.006125164483449419
43.424,0.00957176236028146
43.425,0.00881359260486401
43.426,0.005279061092531025
43.427,0.001059671332915715
43.428,0.0019436305902350642
43.429,0.0027538672647029997
43.43,0.0016696027672884824
43.431,0.00011104971730933838
43.431999999999995,1.729869197417425e-05
43.433,0.003011836970842197
43.434,0.009639272905609954
43.434999999999995,0.018957284732526426
43.436,0.02864997457717499
43.437,0.03565143554261597
43.437999999999995,0.037091326733678535
43.439,0.03125780707367755
43.44,0.018257475097744922
43.440999999999995,0.00014346845556771412
43.442,0.01954797946478647
43.443,0.03672125774557677
43.443999999999996,0.0478246732592963
43.445,0.050794390949257154
43.446,0.04555229951007934
43.446999999999996,0.033916128181588096
43.448,0.0189694956865109
43.449,0.004110181905822673
43.449999999999996,0.007909555204122589
43.451,0.015647006911772194
43.452,0.019144523299213127
43.452999999999996,0.0195958314421972
43.454,0.018656618687812928
43.455,0.017669402608265713
43.455999999999996,0.017092525790044086
43.457,0.0163406509066314
43.458,0.014089275320499351
43.458999999999996,0.008923427170104711
43.46,8.1722759382342e-05
43.461,0.011992892390969309
43.461999999999996,0.025520442426392273
43.463,0.03774784412624792
43.464,0.04571035623301766
43.464999999999996,0.04714449793843744
43.466,0.04124247297456872
43.467,0.028981371850595475
43.467999999999996,0.012897937030872206
43.469,0.0036343859364449302
43.47,0.01739844649463357
43.471,0.026272158763008733
43.472,0.029801198759954177
43.473,0.029213043803594383
43.474,0.026866897888636217
43.475,0.025326166212678122
43.476,0.026371621182021552
43.477,0.03029826223601646
43.478,0.03574677913662708
43.479,0.040140851561180795
43.48,0.04059392513260705
43.481,0.034983740181940524
43.482,0.022826739619578495
43.483,0.005641887685187693
43.484,0.013342605669774592
43.485,0.030068831735590114
43.486,0.04084547858928913
43.487,0.04347816644626368
43.488,0.037962759056807606
43.489,0.02650534587851938
43.49,0.012847811525864774
43.491,0.0011037492476624906
43.492,0.005528219657124597
43.493,0.005761875357868157
43.494,0.0006083419726353513
43.495,0.006980391211845665
43.495999999999995,0.013100700871806393
43.497,0.014206518527221016
43.498,0.008321155115191218
43.498999999999995,0.004236576125710291
43.5,0.020847059824679028
43.501,0.037312415951073936
43.501999999999995,0.04908412918965766
43.503,0.05261492652572836
43.504,0.046417359197341614
43.504999999999995,0.031506624135964854
43.506,0.011100183329229104
43.507,0.010321521866870548
43.507999999999996,0.028294344621629698
43.509,0.03959386579882281
43.51,0.04303617304269945
43.510999999999996,0.03963167063200249
43.512,0.03207545962617298
43.513,0.02376356950314591
43.513999999999996,0.017663254470336235
43.515,0.015396345300868915
43.516,0.016811705314169707
43.516999999999996,0.02015689602709328
43.518,0.022766033026447523
43.519,0.022022583996675307
43.519999999999996,0.016280761964058692
43.521,0.00545679047329378
43.522,0.00888228793511033
43.522999999999996,0.02394077046348301
43.524,0.03647874511223091
43.525,0.04370835010132333
43.525999999999996,0.04403305981331233
43.527,0.03742624423793545
43.528,0.025367076593947498
43.528999999999996,0.010388051263012593
43.53,0.004604520777681714
43.531,0.017027956565770608
43.532,0.025149650183137903
43.533,0.028327504219956827
43.534,0.02694722079631072
43.535,0.022127294363726215
43.536,0.015314373107044676
43.537,0.007896839341213161
43.538,0.0009298469434971025
43.539,0.004989909977945631
43.54,0.009713527544472106
43.541,0.0134386848094675
43.542,0.016568127065788432
43.543,0.019562609226376378
43.544,0.022801634283914296
43.545,0.02645271414037798
43.546,0.030354022105672434
43.547,0.03393330741874546
43.548,0.03620530261786118
43.549,0.035894391024746834
43.55,0.031707345655994715
43.551,0.02273229043866699
43.552,0.008878386739572336
43.553,0.008779791636040922
43.554,0.027902925519161504
43.555,0.04514271384225848
43.556,0.056771178264801686
43.556999999999995,0.05958062391782807
43.558,0.05183832373706594
43.559,0.034017198462285125
43.559999999999995,0.009042188026797938
43.561,0.018101248870788948
43.562,0.04137755435901259
43.562999999999995,0.055121170087417445
43.564,0.05550883868331059
43.565,0.04167292112829405
43.565999999999995,0.016112022582909356
43.567,0.015766534314369345
43.568,0.046895975792748415
43.568999999999996,0.07028027196544936
43.57,0.08074093780990921
43.571,0.07619540441712193
43.571999999999996,0.05810635334373046
43.573,0.030977784342819486
43.574,0.0010519274363590375
43.574999999999996,0.025404149280145262
43.576,0.043716229587611094
43.577,0.05185746554325224
43.577999999999996,0.05065542514439025
43.579,0.043137505558953744
43.58,0.03327123852952594
43.580999999999996,0.02453998099509733
43.582,0.018832200363998013
43.583,0.016002256171010285
43.583999999999996,0.014222677201754408
43.585,0.010972192502537262
43.586,0.004283067887915387
43.586999999999996,0.006219375751136188
43.588,0.01888113484168273
43.589,0.030373901594938288
43.589999999999996,0.0367470232109194
43.591,0.03483215372850955
43.592,0.023516588624336192
43.592999999999996,0.00442564360334172
43.594,0.018262257473293103
43.595,0.03886051017300178
43.596,0.051781816709674654
43.597,0.053211764380898655
43.598,0.04231300560777591
43.599,0.021561810619958887
43.6,0.00391015536447828
43.601,0.02777880114560485
43.602,0.044346137139864045
43.603,0.05014987429625586
43.604,0.04486689572164675
43.605,0.031241667707935017
43.606,0.014084884349042476
43.607,0.0013156967311504534
43.608,0.010848668602641652
43.609,0.012765428841395176
43.61,0.008035413318735883
43.611,0.00021020487663717276
43.612,0.007921995009490873
43.613,0.011615502705496187
43.614,0.009579195955946331
43.615,0.002400490957378808
43.616,0.007351645255514114
43.617,0.016152620715341907
43.618,0.020876310707312103
43.619,0.019986384688059956
43.62,0.014135386164955957
43.620999999999995,0.005953328691212218
43.622,0.000905103900203274
43.623,0.003121999750378388
43.623999999999995,0.000995009138985649
43.625,0.010759657417803787
43.626,0.02317315197632582
43.626999999999995,0.03381337918272652
43.628,0.038266956475941256
43.629,0.03363242646479845
43.629999999999995,0.019589921697522477
43.631,0.0013300271285248346
43.632,0.024384202017679022
43.632999999999996,0.04396861777667041
43.634,0.055258038857427694
43.635,0.055613838917905584
43.635999999999996,0.045319737559059714
43.637,0.027427081413697842
43.638,0.006780990962054879
43.638999999999996,0.011441461741584362
43.64,0.023205467928999784
43.641,0.026645659087121333
43.641999999999996,0.02235357302644416
43.643,0.012889527016002973
43.644,0.0017402972196630918
43.644999999999996,0.007885520400816276
43.646,0.014004079793981779
43.647,0.016242573181358064
43.647999999999996,0.015581624771979953
43.649,0.013609049558182798
43.65,0.011613953622592457
43.650999999999996,0.009898008355435188
43.652,0.007587715428726639
43.653,0.0030330077739325195
43.653999999999996,0.00535353298973557
43.655,0.018141907626844013
43.656,0.0342011502444916
43.657,0.05059356945387143
43.658,0.06315723783677904
43.659,0.06764247752095014
43.66,0.061060087980794826
43.661,0.04280150838423886
43.662,0.01514060695500857
43.663,0.01708997022498821
43.664,0.047596895164222636
43.665,0.07019948342129192
43.666,0.08042255870175251
43.667,0.07664013444183507
43.668,0.06043601911684177
43.669,0.03608618927072406
43.67,0.009333149876436625
43.671,0.014170182161635564
43.672,0.030284529916027984
43.673,0.03727429289230374
43.674,0.03594362181591315
43.675,0.029039667704016017
43.676,0.02016539482908131
43.677,0.01257660611706633
43.678,0.008243809816809812
43.679,0.0074446302073268075
43.68,0.008960922290155842
43.681,0.010753375488283336
43.681999999999995,0.010841362512601847
43.683,0.008070893300055585
43.684,0.002516907288386877
43.684999999999995,0.0045904375559633545
43.686,0.011355451638854335
43.687,0.01592406451529304
43.687999999999995,0.0171478444556694
43.689,0.01497472010994341
43.69,0.010443150039100796
43.690999999999995,0.005299043965518771
43.692,0.0013825717613637986
43.693,2.791124475194017e-06
43.693999999999996,0.0015113314576354205
43.695,0.005209140752806399
43.696,0.0096027889505114
43.696999999999996,0.012910841746290496
43.698,0.013644859439129969
43.699,0.011076041758196615
43.699999999999996,0.005447362530098264
43.701,0.0021186156207931386
43.702,0.00996713504364333
43.702999999999996,0.016390199455596673
43.704,0.020085154172486006
43.705,0.02046327399033988
43.705999999999996,0.017738774782070192
43.707,0.012802372272717848
43.708,0.006945160963310329
43.708999999999996,0.0015298332368066296
43.71,0.0022983133223359814
43.711,0.003800684418669652
43.711999999999996,0.002719073318675083
43.713,0.0007449200487509644
43.714,0.006005246936288753
43.714999999999996,0.012185890114378723
43.716,0.018217729309306322
43.717,0.022942418160167368
43.717999999999996,0.02523927860035541
43.719,0.0241858849242044
43.72,0.019242769378610976
43.721,0.010426996507060743
43.722,0.0015787849789940657
43.723,0.015434916679496872
43.724,0.029301400499661526
43.725,0.04113329006224691
43.726,0.04906107797904845
43.727,0.05176920910136541
43.728,0.04877677915509315
43.729,0.04054454879929322
43.73,0.028376728312316853
43.731,0.01414118860338703
43.732,0.0001194890914329617
43.733,0.012586681219943585
43.734,0.02197736932456959
43.735,0.027702590934418906
43.736,0.02985404863994586
43.737,0.02904882280628133
43.738,0.026196456961553698
43.739,0.022263172638821535
43.74,0.018093753365758282
43.741,0.014320300704930745
43.742,0.011351442566361294
43.743,0.009408859893773497
43.744,0.008569002436696354
43.745,0.00877810553819238
43.745999999999995,0.009832208985425504
43.747,0.011340107567032746
43.748,0.01270472977997478
43.748999999999995,0.01315971617793534
43.75,0.011881753291361853
43.751,0.008171070544701106
43.751999999999995,0.0016626160139326211
43.753,0.007490102891595604
43.754,0.018519608764650548
43.754999999999995,0.030081901339563066
43.756,0.04043897294100948
43.757,0.047760050842721016
43.757999999999996,0.050481526347164345
43.759,0.047646339218601313
43.76,0.03914422174873436
43.760999999999996,0.025794374489342874
43.762,0.0092464171176896
43.763,0.008284847380326775
43.763999999999996,0.02439959688202323
43.765,0.03693283537411283
43.766,0.04433096262168005
43.766999999999996,0.045911485618954063
43.768,0.04195616868335076
43.769,0.03362125341102638
43.769999999999996,0.02268472880245442
43.771,0.01118319290574308
43.772,0.0010133824954690535
43.772999999999996,0.0064188161181276465
43.774,0.010428514952387282
43.775,0.011113596338138828
43.775999999999996,0.009238301343128965
43.777,0.005970628759526965
43.778,0.002541539413695298
43.778999999999996,8.55086122972291e-05
43.78,0.0014478222920334498
43.781,0.0016578347196698853
43.782,0.0013003090663856012
43.783,0.0011847026379814168
43.784,0.002028374398587769
43.785,0.004169049803083085
43.786,0.007398856413600776
43.787,0.010977456090059828
43.788,0.013827494953393799
43.789,0.014857748465634599
43.79,0.01331608236692936
43.791,0.009060218335231301
43.792,0.0026552674477308426
43.793,0.0047419641493459674
43.794,0.011685806530430401
43.795,0.016845071966453143
43.796,0.01938501392392579
43.797,0.019208276308709683
43.798,0.016975642416276464
43.799,0.013894246462075984
43.8,0.011333558654036789
43.801,0.01038484852027516
43.802,0.01149994308126441
43.803,0.014322885699015896
43.804,0.017769988266219432
43.805,0.020337736215051163
43.806,0.02054789321850753
43.806999999999995,0.01739699691947146
43.808,0.010676367382726986
43.809,0.001068786643898206
43.809999999999995,0.010003853755138951
43.811,0.02073310839918904
43.812,0.0293702924872121
43.812999999999995,0.03463680847275156
43.814,0.03598578366764663
43.815,0.03365275776294321
43.815999999999995,0.02849970205477799
43.817,0.02171761359840111
43.818,0.014489420944518775
43.818999999999996,0.0077168918068757555
43.82,0.0018842796852851077
43.821,0.0029201649245750886
43.821999999999996,0.00685765345929823
43.823,0.010138431456351744
43.824,0.01284954673255952
43.824999999999996,0.014874629654163576
43.826,0.015930176150035988
43.827,0.015697306567020702
43.827999999999996,0.01399246401500436
43.829,0.010906962716215928
43.83,0.0068575150623654295
43.830999999999996,0.0025226030375220987
43.832,0.0013193068303625234
43.833,0.00399872621684231
43.833999999999996,0.005143386922973957
43.835,0.00478431465424467
43.836,0.0033452889243969627
43.836999999999996,0.0015191308270947777
43.838,7.007091033057772e-05
43.839,0.00037657958297041797
43.839999999999996,0.0005052275240133579
43.841,0.0026759615272977143
43.842,0.005770568407824711
43.842999999999996,0.00922348238037912
43.844,0.012432482817090687
43.845,0.014907208450780475
43.846,0.016358347443092544
43.847,0.016707539401608268
43.848,0.016027028296576998
43.849,0.014442046669671926
43.85,0.012039900591925033
43.851,0.008824536275695502
43.852,0.004736317462805139
43.853,0.0002692789585391502
43.854,0.006114258811936018
43.855,0.012505771728784526
43.856,0.01890104366899664
43.857,0.02455525525879057
43.858,0.028651559120997278
43.859,0.03048427564145417
43.86,0.02964547008139252
43.861,0.026158561899146095
43.862,0.020513170778228004
43.863,0.013580821496354839
43.864,0.006424640607011875
43.865,4.831098426487954e-05
43.866,0.00484923945455399
43.867,0.00804355198751767
43.868,0.009825507254951045
43.869,0.010893319627955696
43.87,0.012117093416625018
43.870999999999995,0.014235852490701341
43.872,0.01757124625204183
43.873,0.02184426516087578
43.873999999999995,0.02615897275573165
43.875,0.029174931441121762
43.876,0.02943811321959995
43.876999999999995,0.025792573200780367
43.878,0.017765735251113315
43.879,0.0058183681751102015
43.879999999999995,0.008621377115031324
43.881,0.023368083235172303
43.882,0.03589813289332967
43.882999999999996,0.043885088398654036
43.884,0.045723463887069264
43.885,0.040910518390973094
43.885999999999996,0.030187931977335398
43.887,0.015404295778735559
43.888,0.0008703675610348913
43.888999999999996,0.015884414368000817
43.89,0.02726761448278905
43.891,0.0334839018797885
43.891999999999996,0.034073144032666876
43.893,0.029639389258400217
43.894,0.02160963987477757
43.894999999999996,0.0118433410808467
43.896,0.0022032690152996503
43.897,0.005803731622421013
43.897999999999996,0.011239750802163804
43.899,0.013776341622144986
43.9,0.013588265729794737
43.900999999999996,0.011163876603152255
43.902,0.007108747362730039
43.903,0.0020059788148198265
43.903999999999996,0.003636024820017166
43.905,0.009356787402982403
43.906,0.01467808688802987
43.907,0.019052638676560797
43.908,0.021871360372965862
43.909,0.022546455299652084
43.91,0.02065318187748298
43.911,0.016084423461824794
43.912,0.00915986869738752
43.913,0.0006406525678014644
43.914,0.008371991108112068
43.915,0.01663842867537922
43.916,0.02303319275004169
43.917,0.02677995119691301
43.918,0.027602979015110645
43.919,0.025752833178141855
43.92,0.021901083361641576
43.921,0.01693773739003886
43.922,0.011733033734131098
43.923,0.006933761339663128
43.924,0.002850813257000318
43.925,0.0005360501375248391
43.926,0.003468169248610379
43.927,0.00623755136269473
43.928,0.009018493241112691
43.929,0.011760700490602785
43.93,0.014181053138578504
43.931,0.015856989657239227
43.931999999999995,0.016389429338310915
43.933,0.01557839145022569
43.934,0.013547896716417205
43.934999999999995,0.01077062949139347
43.936,0.00797322815243812
43.937,0.005940960456684039
43.937999999999995,0.005274559645093895
43.939,0.006171694975543141
43.94,0.008304401105090137
43.940999999999995,0.010841100846711617
43.942,0.012623082274572017
43.943,0.012460698041099354
43.943999999999996,0.009476553394695844
43.945,0.0034027869179170563
43.946,0.005255826243991128
43.946999999999996,0.015251301700085346
43.948,0.024824048840469768
43.949,0.032091016811513814
43.949999999999996,0.035497908000872685
43.951,0.03421841552646154
43.952,0.028389830573097487
43.952999999999996,0.019112312327699586
43.954,0.00820022164593939
43.955,0.0022576076480046122
43.955999999999996,0.010415215714755807
43.957,0.01512373452718938
43.958,0.01619379354928056
43.958999999999996,0.014387989180317378
43.96,0.011141776721917261
43.961,0.008092103617755555
43.961999999999996,0.006554082236850616
43.963,0.007106902560287565
43.964,0.009421952960232481
43.964999999999996,0.012394506965871677
43.966,0.014545280192163897
43.967,0.014568525780834151
43.967999999999996,0.011848323529945167
43.969,0.006764467447231094
43.97,0.0006677200098327484
43.971,0.004493745073498342
43.972,0.0067993903947000355
43.973,0.005043418295258829
43.974,0.0007423527641829941
43.975,0.009121544693767398
43.976,0.01753385456753813
43.977,0.02297701971036933
43.978,0.022909984706617096
43.979,0.01611068774996938
43.98,0.0032138980980192505
43.981,0.013267082552954432
43.982,0.029485457208553757
43.983,0.041252157428682074
43.984,0.04520803035446122
43.985,0.03984005644872326
43.986,0.0260318718301509
43.987,0.006961339994202516
43.988,0.012657656739798535
43.989,0.027799317491453496
43.99,0.034483014410867874
43.991,0.030881669109706328
43.992,0.01786204361215799
43.993,0.001205343207906202
43.994,0.021322382071584788
43.995,0.037185866748534836
43.995999999999995,0.04458985216208374
43.997,0.04152062113477187
43.998,0.028647572454835735
43.998999999999995,0.009087570319169729
44.0,0.012473958297107436
44.001,0.031045122656794995
44.001999999999995,0.04261551131322488
44.003,0.0451203803651688
44.004,0.03883801435960338
44.004999999999995,0.026147330220022184
44.006,0.010754190963775759
44.007,0.0033655620284432594
44.007999999999996,0.012998533517684315
44.009,0.016425801342456702
44.01,0.013686552610246391
44.010999999999996,0.006351768591361098
44.012,0.003074628677789545
44.013,0.011918399009058637
44.013999999999996,0.01803136440100543
44.015,0.02023975232578552
44.016,0.01845868867442932
44.016999999999996,0.013496549871065262
44.018,0.006660949665099303
44.019,0.0006800012298862898
44.019999999999996,0.007439513934157378
44.021,0.012970948980373707
44.022,0.017033565291160527
44.022999999999996,0.019624080175976985
44.024,0.020772565832291832
44.025,0.020401068072619585
44.025999999999996,0.01830724328250719
44.027,0.014278862582236687
44.028,0.00828946982984973
44.028999999999996,0.0006902491988824259
44.03,0.007690338470937236
44.031,0.015599138838807546
44.032,0.021572975091163203
44.033,0.024270301507115784
44.034,0.02283256290213378
44.035,0.01717162793706912
44.036,0.008093875309500686
44.037,0.002788081129230535
44.038,0.013350068508677617
44.039,0.0213970841173346
44.04,0.02515026622101674
44.041,0.023665607691653618
44.042,0.017083222889678187
44.043,0.006643593035167852
44.044,0.005540099518266962
44.045,0.0169090022765239
44.046,0.024994796423162907
44.047,0.027949124869524597
44.048,0.02495009761324103
44.049,0.016395251131983746
44.05,0.003836225066041747
44.051,0.010333182956252409
44.052,0.023369401322535024
44.053,0.03274539523887426
44.054,0.03666772008703867
44.055,0.03443236923241691
44.056,0.02654435653098371
44.056999999999995,0.014579989766928193
44.058,0.0008290323168939129
44.059,0.01219767887136328
44.059999999999995,0.022282697372157146
44.061,0.027926619512251276
44.062,0.028597799461422824
44.062999999999995,0.024766915959196254
44.064,0.017736826606102853
44.065,0.009321451081861786
44.065999999999995,0.0014534293944474888
44.067,0.004195193794660122
44.068,0.006509769450661215
44.068999999999996,0.005104650672132535
44.07,0.00035655008578620097
44.071,0.006688886897851495
44.071999999999996,0.014510534249949128
44.073,0.021372058370723042
44.074,0.025614545901899828
44.074999999999996,0.025946526833097717
44.076,0.021694227962510304
44.077,0.012972035088255977
44.077999999999996,0.0007339626580474707
44.079,0.013323126073476776
44.08,0.027011341814720195
44.080999999999996,0.03803189802582378
44.082,0.04441954864574086
44.083,0.044958070133389996
44.083999999999996,0.03946454467493723
44.085,0.028859500298238177
44.086,0.014987128938227415
44.086999999999996,0.00021451437992442865
44.088,0.01309711139710158
44.089,0.02311328263604138
44.089999999999996,0.028898281123630878
44.091,0.030534663790836924
44.092,0.028958821991930953
44.092999999999996,0.025566685064192837
44.094,0.02171585600597551
44.095,0.018284671051086797
44.096,0.01543159284966725
44.097,0.012633240620936202
44.098,0.008986007504846887
44.099,0.003665063136532446
44.1,0.0036232272868042567
44.101,0.012362654468552366
44.102,0.021234836264409213
44.103,0.028429803770127104
44.104,0.032170365477422636
44.105,0.03128183031460979
44.106,0.025614353087836463
44.107,0.016166394242524255
44.108,0.004852834540581136
44.109,0.006020632787639332
44.11,0.014413934952979766
44.111,0.01912789575351293
44.112,0.020107998421250252
44.113,0.01837333200634873
44.114,0.01559193835155677
44.115,0.013444142166825736
44.116,0.012990368220789335
44.117,0.014262699978434858
44.118,0.01622738135103126
44.119,0.017141501910260152
44.12,0.01519232592153327
44.120999999999995,0.009207693370597972
44.122,0.0008047999212179905
44.123,0.01348191992140699
44.123999999999995,0.02636868491012118
44.125,0.036555257872276106
44.126,0.041496528806131874
44.126999999999995,0.03976128734573447
44.128,0.031476784921039766
44.129,0.018328890287405687
44.129999999999995,0.003116845600034803
44.131,0.01100061581553318
44.132,0.021338797731168826
44.132999999999996,0.026353229292407916
44.134,0.025951496892962427
44.135,0.021379748924329745
44.135999999999996,0.014745547130852861
44.137,0.00834465203718897
44.138,0.004005940478456177
44.138999999999996,0.002644594193629975
44.14,0.004131636242161226
44.141,0.007479014543276325
44.141999999999996,0.011241812454884143
44.143,0.013984295078432468
44.144,0.014658779529282228
44.144999999999996,0.012799110393848233
44.146,0.008509881420516036
44.147,0.0023069689785529465
44.147999999999996,0.00509262642159115
44.149,0.012936035821194097
44.15,0.02050109703513401
44.150999999999996,0.027071038467186278
44.152,0.03187616989627293
44.153,0.03408235588393745
44.153999999999996,0.03288637426016517
44.155,0.02772583193691963
44.156,0.01854796304972288
44.157,0.006034668508467394
44.158,0.00832749763810566
44.159,0.022406396827794564
44.16,0.03381345182862242
44.161,0.04044019366589709
44.162,0.040995906616643686
44.163,0.03538176530046442
44.164,0.02477394688683047
44.165,0.011371240969410328
44.166,0.0021345886441253206
44.167,0.013219230048192148
44.168,0.020127159584091975
44.169,0.02224096323067074
44.17,0.02011825698487289
44.171,0.015200223632801681
44.172,0.009297460898645412
44.173,0.0040242141155209495
44.174,0.000360103480708127
44.175,0.0015322513234087751
44.176,0.002196281711922783
44.177,0.002539301634620885
44.178,0.0033954965359055903
44.179,0.005155181583573431
44.18,0.007590022431888687
44.181,0.009929183712051141
44.181999999999995,0.011150646353200195
44.183,0.010377114145573444
44.184,0.007232302485563302
44.184999999999995,0.002031093302582863
44.186,0.004261985079489875
44.187,0.010289987252278969
44.187999999999995,0.014687483008983732
44.189,0.016462509341895037
44.19,0.015253811224528712
44.190999999999995,0.011388090825980525
44.192,0.00573254878420163
44.193,0.0005938899449436593
44.193999999999996,0.0065450702090540476
44.195,0.011399113199089806
44.196,0.014862971200561724
44.196999999999996,0.017014153385173758
44.198,0.018123191223492027
44.199,0.01843994498607131
44.199999999999996,0.018033455189840935
44.201,0.016748181100692698
44.202,0.01429065496705057
44.202999999999996,0.010408648638145392
44.204,0.005088942419215536
44.205,0.0013078668575860473
44.205999999999996,0.0080346742480976
44.207,0.014083053878222172
44.208,0.01841376948804821
44.208999999999996,0.0202237948846234
44.21,0.019168709036839163
44.211,0.015473881497239144
44.211999999999996,0.00990287980570556
44.213,0.0035941920880948885
44.214,0.0021865966322420632
44.214999999999996,0.006313257439287123
44.216,0.008020311392621694
44.217,0.007035244750401387
44.217999999999996,0.0036054901569928816
44.219,0.001569489752619645
44.22,0.007473585312636729
44.221,0.012944353362512378
44.222,0.01685023100493513
44.223,0.018255213719176787
44.224,0.016558570738056902
44.225,0.011599451506866327
44.226,0.003714417744058719
44.227,0.00626625237639451
44.228,0.017095538127704122
44.229,0.02726263440425086
44.23,0.03520864703676551
44.231,0.03957364639051554
44.232,0.039430033213790426
44.233,0.034454074290051734
44.234,0.024997771245906887
44.235,0.012044967116732846
44.236,0.0029375828252919084
44.237,0.018220030715604383
44.238,0.03205336497917154
44.239,0.042892199763733936
44.24,0.04956494034545823
44.241,0.0513794096771904
44.242,0.04816918923815823
44.243,0.04029419630119794
44.244,0.028606415638969467
44.245,0.014381675353115181
44.245999999999995,0.0007917146690073933
44.247,0.01517880190179646
44.248,0.02711923878848936
44.248999999999995,0.03528325899349079
44.25,0.03891655479676759
44.251,0.038010971978215194
44.251999999999995,0.03333922165708023
44.253,0.026316653441704797
44.254,0.018697793712552733
44.254999999999995,0.012167360308390537
44.256,0.00792722460964487
44.257,0.006395671083398717
44.257999999999996,0.007114100390802792
44.259,0.008901638680600548
44.26,0.010224765151754564
44.260999999999996,0.0096799817468585
44.262,0.006446317295986133
44.263,0.0005670130441700096
44.263999999999996,0.007031876686412624
44.265,0.014797545723989456
44.266,0.021005106216852643
44.266999999999996,0.02426927445065317
44.268,0.023950822810536062
44.269,0.02032813588104055
44.269999999999996,0.014480471538965017
44.271,0.00792463041879298
44.272,0.002128695619744394
44.272999999999996,0.0019329063445107663
44.274,0.004034088909449174
44.275,0.004679255809673358
44.275999999999996,0.004826124630508651
44.277,0.005453767894823871
44.278,0.0071355261111215535
44.278999999999996,0.009775423284087457
44.28,0.012609067069394764
44.281,0.014475214186510182
44.282,0.014265181416789358
44.283,0.011389167414327326
44.284,0.0060862172322191845
44.285,0.0005462368684827343
44.286,0.006832363772981476
44.287,0.011028011454351462
44.288,0.011896924103065054
44.289,0.009158706650614929
44.29,0.0036496595214493524
44.291,0.002871574336016896
44.292,0.008225296861326982
44.293,0.010467860071218936
44.294,0.008498869054543962
44.295,0.0024251993755579435
44.296,0.0064356726500646765
44.297,0.015916329191186507
44.298,0.02361242689767777
44.299,0.027558426264399204
44.3,0.026760286264881708
44.301,0.021429270124100817
44.302,0.012859095503358625
44.303,0.0030016649142895527
44.304,0.006112694349962633
44.305,0.012924756593809135
44.306,0.016701720314324865
44.306999999999995,0.017607443399664875
44.308,0.016494310609022525
44.309,0.014511927766561586
44.309999999999995,0.012678425706263423
44.311,0.011558535555740171
44.312,0.011143023257138712
44.312999999999995,0.010946908423282792
44.314,0.010267651467185907
44.315,0.008495424457601201
44.315999999999995,0.005360601452165525
44.317,0.0010377109982441183
44.318,0.003915294983041905
44.318999999999996,0.008742140534377366
44.32,0.012716707148699852
44.321,0.015327410484466229
44.321999999999996,0.016357351348784705
44.323,0.01584823851167077
44.324,0.013984653528905766
44.324999999999996,0.01096487271095459
44.326,0.0069241577563187336
44.327,0.0019475089175274823
44.327999999999996,0.003835842721313644
44.329,0.010125444980106051
44.33,0.016360111764983514
44.330999999999996,0.021726600281560628
44.332,0.0252907346765994
44.333,0.026225373339250395
44.333999999999996,0.024065843465683162
44.335,0.018903456276980323
44.336,0.011440477044977604
44.336999999999996,0.0028721952979415323
44.338,0.005380971054235629
44.339,0.012016537795331227
44.339999999999996,0.01616577033941403
44.341,0.017586718980484473
44.342,0.016678145023966057
44.342999999999996,0.014315779300931916
44.344,0.011568404952052757
44.345,0.009386240282430163
44.346,0.008356636212750004
44.347,0.008592774354882973
44.348,0.009771876409776947
44.349,0.011289105345321319
44.35,0.012460041506371908
44.351,0.012699206326455917
44.352,0.011624219705390694
44.353,0.009073758678058149
44.354,0.005065476226604313
44.355,0.0002586194535627045
44.356,0.006655640082125154
44.357,0.013756887269531726
44.358,0.02101368193081195
44.359,0.02766202360763511
44.36,0.03276047436935335
44.361,0.035333443525679055
44.362,0.034607643568780884
44.363,0.03027987214651457
44.364,0.0227208531289367
44.365,0.01301997810586309
44.366,0.0028151359464056286
44.367,0.006079089016476975
44.368,0.012155306771942135
44.369,0.014664573786843197
44.37,0.013879835910473372
44.370999999999995,0.011060301255289277
44.372,0.00809434404511304
44.373,0.006905573720189704
44.373999999999995,0.008795932552543389
44.375,0.01393811122624433
44.376,0.02119920238116403
44.376999999999995,0.028382900062955605
44.378,0.0328458666188029
44.379,0.03231702568489735
44.379999999999995,0.025669601685200546
44.381,0.013394275681379917
44.382,0.002396995343369062
44.382999999999996,0.018465489090570737
44.384,0.031309457688821964
44.385,0.038144502396730104
44.385999999999996,0.03770104928371291
44.387,0.030587276652148786
44.388,0.019096189339338755
44.388999999999996,0.006508431251056024
44.39,0.003897169700616355
44.391,0.009817796200663437
44.391999999999996,0.01057971713263146
44.393,0.007264444530404048
44.394,0.002269660449130112
44.394999999999996,0.0015519488654010564
44.396,0.0018961405991246721
44.397,0.0021740844666026677
44.397999999999996,0.009862841804629117
44.399,0.01885175613947105
44.4,0.02602323887641989
44.400999999999996,0.028467273324931697
44.402,0.0244497658529839
44.403,0.014031562290599818
44.403999999999996,0.0008618729033469389
44.405,0.016945498444290705
44.406,0.030498097182991186
44.407,0.03841727167329312
44.408,0.039081484289027156
44.409,0.03276023416025809
44.41,0.02145973980244481
44.411,0.00826993017408545
44.412,0.003568784661472297
44.413,0.011581874859130176
44.414,0.014681599370252239
44.415,0.013320376284846327
44.416,0.00916148556131007
44.417,0.0044065215936308
44.418,0.0010208134879435883
44.419,0.00011585944997506137
44.42,0.0016793677220538453
44.421,0.004715260555875227
44.422,0.0077135398900111144
44.423,0.009261952667220633
44.424,0.00857325686860966
44.425,0.0057439164417236585
44.426,0.0016647760148236189
44.427,0.0023668741966563875
44.428,0.005177315571274852
44.429,0.006183812759581134
44.43,0.005621387844836708
44.431,0.004441779109099369
44.431999999999995,0.003919453364828041
44.433,0.005109133279880396
44.434,0.008357424016168123
44.434999999999995,0.013056909219204443
44.436,0.01774896110014256
44.437,0.02055958896522527
44.437999999999995,0.019833017247083636
44.439,0.014751930628826838
44.44,0.005728323569570655
44.440999999999995,0.005582378210723362
44.442,0.01667077152538217
44.443,0.02486068410131679
44.443999999999996,0.028087405132862613
44.445,0.025524730729874257
44.446,0.017860868846480027
44.446999999999996,0.0071301430394800705
44.448,0.003855089709006596
44.449,0.01230366187285393
44.449999999999996,0.01623567193712011
44.451,0.015026346023165866
44.452,0.0095430295264344
44.452999999999996,0.0018396054765603765
44.454,0.005493262772517185
44.455,0.010121813277298804
44.455999999999996,0.010667344949974929
44.457,0.007103173402677624
44.458,0.0007391139579571032
44.458999999999996,0.006193020761303551
44.46,0.011222609248975762
44.461,0.012387212363377385
44.461999999999996,0.008826253218954649
44.463,0.0010550819889215792
44.464,0.009150846482549484
44.464999999999996,0.019220594324389884
44.466,0.02646575965914996
44.467,0.02878448575208214
44.467999999999996,0.025205802976459492
44.469,0.016139717957305427
44.47,0.003281281925560937
44.471,0.01079305939261164
44.472,0.023225136187923975
44.473,0.03151928194896511
44.474,0.03407988778749835
44.475,0.030526863334147513
44.476,0.021732483286697326
44.477,0.009588912658411055
44.478,0.0034269337104516446
44.479,0.014786814425835309
44.48,0.022425773050354036
44.481,0.025132802814924415
44.482,0.0227442250681483
44.483,0.016110441296818222
44.484,0.006854095588255419
44.485,0.003020295662443174
44.486,0.011576141044084757
44.487,0.017354348717880625
44.488,0.019653467417564078
44.489,0.018621178154291807
44.49,0.015141789009201672
44.491,0.010552746633130744
44.492,0.0062646555713957814
44.493,0.0033831806471105444
44.494,0.002430461137472241
44.495,0.0032373422609335368
44.495999999999995,0.005031889459318401
44.497,0.0066962279899111165
44.498,0.0071174738996394
44.498999999999995,0.005532689230643786
44.5,0.0017701733732466128
44.501,0.0036803696093407404
44.501999999999995,0.009786830280274418
44.503,0.015246790405873857
44.504,0.01883378977123956
44.504999999999995,0.019719707751852493
44.506,0.017684940980186165
44.507,0.013162935542503995
44.507999999999996,0.007114391859894337
44.509,0.0007740375666078793
44.51,0.004654755389172213
44.510999999999996,0.008273651334336758
44.512,0.009663454459934136
44.513,0.008924485058030182
44.513999999999996,0.006588844704255231
44.515,0.003443563350700987
44.516,0.0003215133917167428
44.516999999999996,0.002083765058631486
44.518,0.003339411293250828
44.519,0.003314974211193227
44.519999999999996,0.0021519313017762088
44.521,0.00018384531400248482
44.522,0.0021650161797149474
44.522999999999996,0.0044786248452071235
44.524,0.006429919449410321
44.525,0.007835214966610956
44.525999999999996,0.008678428028995568
44.527,0.009102199299254475
44.528,0.009363374502122795
44.528999999999996,0.009753595962286131
44.53,0.01049388620893779
44.531,0.011623840297314529
44.532,0.012916885665803188
44.533,0.01385688366431251
44.534,0.013703146436695787
44.535,0.011649660314827106
44.536,0.007054297292322571
44.537,0.0003158006398147175
44.538,0.010094544736787189
44.539,0.021252344646879532
44.54,0.03220009024240162
44.541,0.0410606209087408
44.542,0.046056083025453026
44.543,0.04591901646467973
44.544,0.040218843147994086
44.545,0.029511110367486805
44.546,0.015261675573113967
44.547,0.00044062652874454555
44.548,0.015310221853042512
44.549,0.027319327606795986
44.55,0.035065539338093275
44.551,0.037967365638665936
44.552,0.03625721982576583
44.553,0.03080199447662281
44.554,0.022827660081454804
44.555,0.013641419707792023
44.556,0.004428607945374355
44.556999999999995,0.003840262605219036
44.558,0.010406931349393836
44.559,0.014680248253911923
44.559999999999995,0.016212947027354745
44.561,0.014745195262151765
44.562,0.010317271962273934
44.562999999999995,0.0034063038232935343
44.564,0.0049894352615207005
44.565,0.013394982071305786
44.565999999999995,0.02007265898723312
44.567,0.023385705954941424
44.568,0.022227428193994495
44.568999999999996,0.01638876303689394
44.57,0.00673480114982028
44.571,0.004895189948024121
44.571999999999996,0.016070157971724567
44.573,0.024347653028396612
44.574,0.02789717218741887
44.574999999999996,0.025986250313003802
44.576,0.019180847276717483
44.577,0.00919275811242059
44.577999999999996,0.0015873892011447407
44.579,0.010736533834275431
44.58,0.016434780512816972
44.580999999999996,0.017904750226117642
44.582,0.015532732495845967
44.583,0.010651001187576588
44.583999999999996,0.0050661568377552415
44.585,0.000493228560603268
44.586,0.001924517623876797
44.586999999999996,0.0018695761617428441
44.588,0.00017886256036735322
44.589,0.003216437522360657
44.589999999999996,0.006109877952857849
44.591,0.007969379913151175
44.592,0.008372327819339814
44.592999999999996,0.007380654848919389
44.594,0.005377502067120409
44.595,0.0028164450433948956
44.596,3.239436793299142e-06
44.597,0.0029931272331690582
44.598,0.006265771336216638
44.599,0.009873307717356098
44.6,0.013621326134384291
44.601,0.016938349683807846
44.602,0.01892910731303603
44.603,0.01861628940078202
44.604,0.015299730264250326
44.605,0.008902095669973468
44.606,0.0001582881785468112
44.607,0.009449993897365368
44.608,0.018026158480883566
44.609,0.023769668507001566
44.61,0.025504538384837384
44.611,0.023044366789885924
44.612,0.017258647007960395
44.613,0.009802964959121275
44.614,0.002592502535251474
44.615,0.002807772002398089
44.616,0.005667037459548306
44.617,0.00627540801620479
44.618,0.005763268543580447
44.619,0.005612783487995312
44.62,0.007034198682262325
44.620999999999995,0.01043410850208695
44.622,0.015177110923839542
44.623,0.019742595363536578
44.623999999999995,0.022238076782492695
44.625,0.02109857879203635
44.626,0.015725814962905604
44.626999999999995,0.0068305446155417894
44.628,0.0036638421115835016
44.629,0.013149384928382243
44.629999999999995,0.01913363464502177
44.631,0.020049937732340255
44.632,0.015801778036621323
44.632999999999996,0.007846250322599975
44.634,0.0012271141508356045
44.635,0.008495583928755037
44.635999999999996,0.011622908522482652
44.637,0.00959622041579003
44.638,0.0030340615963583917
44.638999999999996,0.006038680968219065
44.64,0.014874076449310113
44.641,0.020912618401412165
44.641999999999996,0.02261496128577327
44.643,0.019932981574115285
44.644,0.014262492892659167
44.644999999999996,0.007897817036371256
44.646,0.003180059220625387
44.647,0.0016372737403349648
44.647999999999996,0.003418762488401983
44.649,0.007225504111393999
44.65,0.010767959275601554
44.650999999999996,0.011599394420487108
44.652,0.008040096596929303
44.653,0.00012878865102739892
44.653999999999996,0.01145032467658316
44.655,0.02314601386636956
44.656,0.03193853188488523
44.657,0.035082783130159875
44.658,0.03127056748815808
44.659,0.021109838852579756
44.66,0.007013976629768052
44.661,0.007474433401581574
44.662,0.018718995779647064
44.663,0.024062293276038735
44.664,0.022602072555367007
44.665,0.015430919694600139
44.666,0.005268626913534135
44.667,0.004394185465636719
44.668,0.010373126806769863
44.669,0.010756151144138186
44.67,0.00546727523326078
44.671,0.0037348997572182684
44.672,0.013811815131730137
44.673,0.02137469957853532
44.674,0.023704432040247247
44.675,0.019558531158009894
44.676,0.00953485682968628
44.677,0.004100983479405758
44.678,0.018058988027325713
44.679,0.028941084462146403
44.68,0.034163480532153845
44.681,0.03262815847225916
44.681999999999995,0.024968195887598726
44.683,0.01331726629419257
44.684,0.0006857989823193276
44.684999999999995,0.009871591352144
44.686,0.01606600771731723
44.687,0.01694716258941189
44.687999999999995,0.013096924013936048
44.689,0.00640598601652747
44.69,0.0004947488353925854
44.690999999999995,0.004990270979420259
44.692,0.005223626658165372
44.693,0.000630149560585081
44.693999999999996,0.00787539328890914
44.695,0.018109725935700642
44.696,0.027180585654013774
44.696999999999996,0.03225615918334883
44.698,0.03134900989575294
44.699,0.023909264124207505
44.699999999999996,0.011063193674348989
44.701,0.004581785804992094
44.702,0.019535134606028452
44.702999999999996,0.0302860020667287
44.704,0.0342151385135936
44.705,0.03031568328835343
44.705999999999996,0.019521400466960676
44.707,0.004536826049312704
44.708,0.010805987275359322
44.708999999999996,0.022509210117666715
44.71,0.027441146001200976
44.711,0.024162072354766174
44.711999999999996,0.013316557870612183
44.713,0.0025204794983940833
44.714,0.0195069201553901
44.714999999999996,0.033526522569306834
44.716,0.04123990802895068
44.717,0.04090635164210644
44.717999999999996,0.03275723140614178
44.719,0.01883313907113941
44.72,0.0023516773548446935
44.721,0.013194960580355531
44.722,0.024944058215424995
44.723,0.03131255921362525
44.724,0.032227293884120004
44.725,0.028905040137738446
44.726,0.023290462009949414
44.727,0.017356987025058328
44.728,0.01250240006237408
44.729,0.009221991525034622
44.73,0.007137012007627752
44.731,0.0053321747902134115
44.732,0.002855016829404631
44.733,0.0008153464353099893
44.734,0.005499656092253804
44.735,0.01033976875250253
44.736,0.014092387548216314
44.737,0.015581875421713746
44.738,0.014146254690655764
44.739,0.009917690074927151
44.74,0.0038404913726837156
44.741,0.0025778081638184363
44.742,0.007696711068463693
44.743,0.010211947523515374
44.744,0.009515150524562066
44.745,0.00583923625255096
44.745999999999995,0.0001598486251838801
44.747,0.006098115486658827
44.748,0.011444778002293127
44.748999999999995,0.014681226969627646
44.75,0.015133944322802753
44.751,0.01272736928426129
44.751999999999995,0.007911610796091394
44.753,0.0015025467439132145
44.754,0.005497912741147852
44.754999999999995,0.012051981737035573
44.756,0.017191635058343334
44.757,0.02009677308536934
44.757999999999996,0.020176424329653213
44.759,0.01717205028802986
44.76,0.011271801202721777
44.760999999999996,0.003191633288472614
44.762,0.005837546037074516
44.763,0.014224935311763576
44.763999999999996,0.0203226056486307
44.765,0.022821950794523673
44.766,0.021136625356772864
44.766999999999996,0.015642218072671087
44.768,0.007666205280352911
44.769,0.0008102453092550562
44.769999999999996,0.007683304787456598
44.771,0.011347027235541275
44.772,0.011210978306798078
44.772999999999996,0.007934776062113399
44.774,0.003275398154359913
44.775,0.00043743616904476525
44.775999999999996,0.0010572095384058506
44.777,0.002621161251009557
44.778,0.01034841054106216
44.778999999999996,0.020338514923405396
44.78,0.029674488553604314
44.781,0.03510639008549489
44.782,0.03401522201665786
44.783,0.025253255910076475
44.784,0.009598376453629003
44.785,0.01032882720699723
44.786,0.030675222254390448
44.787,0.047322079308656194
44.788,0.05692992236498276
44.789,0.05776059150367154
44.79,0.050047060170698376
44.791,0.03582207825429773
44.792,0.018280707677596708
44.793,0.0008867547405322354
44.794,0.013502798541110883
44.795,0.023245506487053542
44.796,0.028104162065081307
44.797,0.02901212281728114
44.798,0.02753788761919449
44.799,0.02525584673254491
44.8,0.023237991519615957
44.801,0.02181738558948735
44.802,0.020665119130311153
44.803,0.01910884786583681
44.804,0.016542518976262747
44.805,0.012758535733822235
44.806,0.008077790095532632
44.806999999999995,0.003239738095776938
44.808,0.0008900970765703188
44.809,0.0036695131171318126
44.809999999999995,0.00494271804313241
44.811,0.005111457761729112
44.812,0.004984973395665519
44.812999999999995,0.005465162951239823
44.814,0.007185916943632315
44.815,0.010242587657016751
44.815999999999995,0.014113770564490999
44.817,0.01780663765852219
44.818,0.020175798107799486
44.818999999999996,0.020303916857228696
44.82,0.017811972919725007
44.821,0.01299426777107113
44.821999999999996,0.0067368371052612935
44.823,0.0002537468124555616
44.824,0.005263735534608111
44.824999999999996,0.008965887753613695
44.826,0.010531007081251233
44.827,0.010172546680315914
44.827999999999996,0.008485908485094546
44.829,0.0062079417544230265
44.83,0.003984988728554105
44.830999999999996,0.002230255844290702
44.832,0.001106467184171192
44.833,0.0006143731943209737
44.833999999999996,0.0007243317132576479
44.835,0.0014740017464340113
44.836,0.0029753223612652437
44.836999999999996,0.005319627595222438
44.838,0.008421830588011369
44.839,0.011881090493272142
44.839999999999996,0.014940038061200995
44.841,0.016593552138237426
44.842,0.01584147614758381
44.842999999999996,0.01201840867226851
44.844,0.005091668329091746
44.845,0.004186366896163708
44.846,0.014348145513789882
44.847,0.023510732651288814
44.848,0.029835119066301628
44.849,0.03201456955027407
44.85,0.029641557695947323
44.851,0.023332172727438462
44.852,0.014558120703334966
44.853,0.005227591495600054
44.854,0.0028621495669956575
44.855,0.00853277028362874
44.856,0.011533572294637242
44.857,0.012550301183957809
44.858,0.012906580303489063
44.859,0.014048364128902056
44.86,0.016973495029470025
44.861,0.02179082765141371
44.862,0.027558539091426523
44.863,0.03246896155245203
44.864,0.03434203505077935
44.865,0.03129292504893624
44.866,0.02238067958112074
44.867,0.008042023153978766
44.868,0.009830932494914972
44.869,0.028213331029897648
44.87,0.043603005998005484
44.870999999999995,0.052846030882127214
44.872,0.05391812873468981
44.873,0.04645423051765822
44.873999999999995,0.0318816196079562
44.875,0.01311484135505379
44.876,0.006114795366862193
44.876999999999995,0.022126519994166042
44.878,0.03213428444376809
44.879,0.034854674750036
44.879999999999995,0.030728341392380436
44.881,0.02170698993552989
44.882,0.010672166528514873
44.882999999999996,0.0006476225106443674
44.884,0.005981689832375681
44.885,0.008037690553006467
44.885999999999996,0.00576075433642284
44.887,0.0006225024977270788
44.888,0.005191020497285062
44.888999999999996,0.00946632595074673
44.89,0.01061669542574049
44.891,0.008116447176131504
44.891999999999996,0.0025982066772343906
44.893,0.0044002714980289695
44.894,0.010947322822919664
44.894999999999996,0.015318328966505129
44.896,0.016495556883521126
44.897,0.014413855252091061
44.897999999999996,0.009885431831433103
44.899,0.004243963816554562
44.9,0.0011587430122572797
44.900999999999996,0.005422329041517646
44.902,0.008366093945985155
44.903,0.010499935832131671
44.903999999999996,0.012708578270658223
44.905,0.015765082858268643
44.906,0.019857339618324803
44.907,0.024316081655222067
44.908,0.027670549072329634
44.909,0.02804685765930812
44.91,0.023800710116546425
44.911,0.014182611514167495
44.912,0.00019575101758462243
44.913,0.017277090003362836
44.914,0.0339254011673214
44.915,0.046669138725509096
44.916,0.052617670445588745
44.917,0.0502797449712792
44.918,0.04002929764460926
44.919,0.02406311096173092
44.92,0.005846948651703257
44.921,0.010796123224072415
44.922,0.02269002460661992
44.923,0.028107955988552064
44.924,0.027140841522621407
44.925,0.021534977716610077
44.926,0.014065481883640828
44.927,0.0076516000784591495
44.928,0.0044910184321151556
44.929,0.005471777202319204
44.93,0.010020841941333106
44.931,0.016402982019479106
44.931999999999995,0.022341663187741705
44.933,0.025741686367546514
44.934,0.025279266895141855
44.934999999999995,0.02068954788034443
44.936,0.01269774559425317
44.937,0.0026650550306382592
44.937999999999995,0.007890091248492955
44.939,0.017710316402817523
44.94,0.026017246742506873
44.940999999999995,0.03248317224412373
44.942,0.03701502912504959
44.943,0.039483651868355424
44.943999999999996,0.039547251627075695
44.945,0.03667073423259981
44.946,0.03035150893120752
44.946999999999996,0.020464691868652515
44.948,0.007575884859342458
44.949,0.006934522599236279
44.949999999999996,0.021030967517532192
44.951,0.032457124894382273
44.952,0.03932624839617157
44.952999999999996,0.040675943244998264
44.954,0.036790274849103174
44.955,0.029159374072877768
44.955999999999996,0.02006559947620992
44.957,0.011914640938476157
44.958,0.006523117294525571
44.958999999999996,0.004596277318246914
44.96,0.005570152023001338
44.961,0.007870827149521389
44.961999999999996,0.009501235764609645
44.963,0.008753110062302966
44.964,0.004798905160111916
44.964999999999996,0.0020383785708186237
44.966,0.01042505408191102
44.967,0.018508296514021715
44.967999999999996,0.024576601357657404
44.969,0.027647219720492056
44.97,0.027766747859871026
44.971,0.025916768477946064
44.972,0.02356202506021109
44.973,0.022011562349311162
44.974,0.021835149468235913
44.975,0.022561264653494676
44.976,0.02278359943947532
44.977,0.02065521048491508
44.978,0.01460580414665209
44.979,0.004030028694577252
44.98,0.010304546887872012
44.981,0.026290726235508863
44.982,0.04096804460569489
44.983,0.051317931595499834
44.984,0.05511519251915115
44.985,0.05156105503013637
44.986,0.04149469804446563
44.987,0.027120810646604702
44.988,0.011351270604392207
44.989,0.0030162163485489223
44.99,0.014013365556978446
44.991,0.020888082567375947
44.992,0.02406202078672209
44.993,0.024710412296145987
44.994,0.024144195966759763
44.995,0.02323452653894941
44.995999999999995,0.022091798788861586
44.997,0.020107679797078226
44.998,0.01632853643808861
44.998999999999995,0.010003670569829327
45.0,0.001087104708684661
45.001,0.009510163055039694
45.001999999999995,0.02002738830852463
45.003,0.028297667729871842
45.004,0.03238072278716035
45.004999999999995,0.031167705659643514
45.006,0.024749536364049928
45.007,0.014423360110956459
45.007999999999996,0.002337959177547107
45.009,0.009097948588899792
45.01,0.017844835985100456
45.010999999999996,0.022696728964238147
45.012,0.02344783261436516
45.013,0.0207414924475301
45.013999999999996,0.01569508216078618
45.015,0.009466077381706538
45.016,0.002929004413647381
45.016999999999996,0.003428944404819355
45.018,0.009387524874993525
45.019,0.014741931891732835
45.019999999999996,0.019070955837207706
45.021,0.02166640801504467
45.022,0.021692643272978842
45.022999999999996,0.018537223363177854
45.024,0.01221476186460524
45.025,0.0036379782555498188
45.025999999999996,0.005403094755995195
45.027,0.012615504657765479
45.028,0.015858146828518535
45.028999999999996,0.013880805025217017
45.03,0.006889402261039252
45.031,0.003292335965831242
45.032,0.013578421973564242
45.033,0.02043779066590671
45.034,0.02095202919898693
45.035,0.013789672486980471
45.036,0.0002267242328187453
45.037,0.018174718204109413
45.038,0.03573303569352626
45.039,0.04834813358618691
45.04,0.05252733634144202
45.041,0.04686595943397955
45.042,0.032487093562413104
45.043,0.012748871558134351
45.044,0.007700167745376345
45.045,0.02423406894399955
45.046,0.033532954718373476
45.047,0.03445066137517021
45.048,0.02821352306256501
45.049,0.017908958337574495
45.05,0.007443669887638526
45.051,0.0003108864912571896
45.052,0.001445781487904084
45.053,0.002239620642262302
45.054,0.009574577630466163
45.055,0.017603437970536574
45.056,0.023228857258956098
45.056999999999995,0.024218155483479012
45.058,0.019875925475228356
45.059,0.01118817262094852
45.059999999999995,0.00042364633875495764
45.061,0.009646657088687149
45.062,0.01663754869406755
45.062999999999995,0.019253461255874012
45.064,0.01759485939909125
45.065,0.012997420045499596
45.065999999999995,0.007491044328456068
45.067,0.0030834950699458823
45.068,0.001115552661524823
45.068999999999996,0.001892119620781946
45.07,0.004686676303297136
45.071,0.008085274955495185
45.071999999999996,0.010526625666185103
45.073,0.010842008788963384
45.074,0.008616121346360263
45.074999999999996,0.004265985234074506
45.076,0.0011610000971604233
45.077,0.0063747479416735265
45.077999999999996,0.010268023517174029
45.079,0.012234769197548396
45.08,0.01228831279824015
45.080999999999996,0.010965016252194239
45.082,0.009073500009312943
45.083,0.00739436642344105
45.083999999999996,0.0064377079291728125
45.085,0.006329701704507609
45.086,0.006843051993684099
45.086999999999996,0.0075325531429173715
45.088,0.007906546264800392
45.089,0.0075664105603873415
45.089999999999996,0.006274726218853105
45.091,0.0039529815504320545
45.092,0.000642693109629905
45.092999999999996,0.00352485875480637
45.094,0.008319343902442024
45.095,0.01336356129963614
45.096,0.018081600656938805
45.097,0.021695318692263387
45.098,0.02331286093162943
45.099,0.02211873146976143
45.1,0.017627630788860406
45.101,0.00992362525312771
45.102,0.00020890294903263483
45.103,0.011335476096840475
45.104,0.021622990094561166
45.105,0.029244118715606685
45.106,0.03282687347289499
45.107,0.03181418249337841
45.108,0.02661603019699249
45.109,0.018496524849184345
45.11,0.00922167032338
45.111,0.0005724109487505822
45.112,0.006126240251316798
45.113,0.010312933842557447
45.114,0.012241468694021537
45.115,0.012769342813719074
45.116,0.012965798480895914
45.117,0.013682187027713056
45.118,0.015237434033099472
45.119,0.017326941093554662
45.12,0.019180033568248024
45.120999999999995,0.01989897036694476
45.122,0.018845173737944983
45.123,0.01592080339923811
45.123999999999995,0.011633297364119922
45.125,0.006913306415871042
45.126,0.00275244427486839
45.126999999999995,0.00019937741560640637
45.128,0.0019150578086080297
45.129,0.003027226962716168
45.129999999999995,0.004587060349579101
45.131,0.007618084453633087
45.132,0.012624082095993604
45.132999999999996,0.019241775586340534
45.134,0.026191002065417062
45.135,0.031577193555629025
45.135999999999996,0.03347509849666892
45.137,0.030612714044710478
45.138,0.02292098873296665
45.138999999999996,0.01174078514614877
45.14,0.00042014455258536604
45.141,0.010541474093632855
45.141999999999996,0.015974413523189242
45.143,0.015283631332030829
45.144,0.008770456108925014
45.144999999999996,0.0015118532894391253
45.146,0.012285634938512162
45.147,0.019980968167030894
45.147999999999996,0.021798826974638856
45.149,0.016579530789272167
45.15,0.005201574322810244
45.150999999999996,0.009624083369440092
45.152,0.024113138610869778
45.153,0.03449618815157348
45.153999999999996,0.038107229952490364
45.155,0.034141662849162285
45.156,0.023855111845016888
45.157,0.01014825501663206
45.158,0.003326883192509781
45.159,0.01325748449947259
45.16,0.017619556045437818
45.161,0.016199667896014305
45.162,0.010541931694926981
45.163,0.0033565953649071513
45.164,0.002406095341812287
45.165,0.004514713867555418
45.166,0.0021461771964380316
45.167,0.003900213465582434
45.168,0.011512481101721164
45.169,0.017980264092589897
45.17,0.02087165626236318
45.171,0.018790077323229796
45.172,0.011780260813049745
45.173,0.001275482243702397
45.174,0.010370559299487669
45.175,0.02059486824132302
45.176,0.027341404038142357
45.177,0.029560538323841843
45.178,0.027357390524011174
45.179,0.021780505826963545
45.18,0.014361650015245616
45.181,0.006590077753392109
45.182,0.0004917075641955217
45.183,0.006446128045927451
45.184,0.01133072029237737
45.184999999999995,0.015402217677603183
45.186,0.018783340176433586
45.187,0.021247741935968924
45.187999999999995,0.02222408724250509
45.189,0.02102630916641106
45.19,0.017219784063747412
45.190999999999995,0.010969632616294576
45.192,0.0032124927004909096
45.193,0.0044496514431689544
45.193999999999996,0.010135043501204477
45.195,0.01224142812237288
45.196,0.009998071486676672
45.196999999999996,0.003815084821664592
45.198,0.004711038717621154
45.199,0.013169515230913703
45.199999999999996,0.01899365941666562
45.201,0.020213425269948848
45.202,0.01606867697625903
45.202999999999996,0.00728396979339687
45.204,0.004093785271921407
45.205,0.015257858490104545
45.205999999999996,0.023440635384730756
45.207,0.026708283275338772
45.208,0.024509108292303954
45.208999999999996,0.017808716194374834
45.21,0.00877301810591525
45.211,0.00010001361399760003
45.211999999999996,0.00579138442278796
45.213,0.007466215584009399
45.214,0.004860269380419339
45.214999999999996,0.0007600019737861525
45.216,0.0072386520117251685
45.217,0.012223593455371546
45.217999999999996,0.013890244891896483
45.219,0.01147232268827565
45.22,0.005445294865200941
45.221,0.002677458144603899
45.222,0.010853253495224329
45.223,0.01714968634319045
45.224,0.020309051551742043
45.225,0.02006591565573338
45.226,0.017133451856047692
45.227,0.012884015390209948
45.228,0.008845591290537325
45.229,0.00618792830977805
45.23,0.005365673615269272
45.231,0.006025589318083697
45.232,0.007193095552443161
45.233,0.007661297984903722
45.234,0.006443268264974678
45.235,0.0031345015213754754
45.236,0.0019307097707030748
45.237,0.007772292038880248
45.238,0.013066627775344213
45.239,0.01655164620682377
45.24,0.017400249652732337
45.241,0.015444729870582237
45.242,0.011189374861412218
45.243,0.005620570059107285
45.244,0.0001112338715161166
45.245,0.005026329464399538
45.245999999999995,0.008557828916639814
45.247,0.01062959275470476
45.248,0.011558486132370493
45.248999999999995,0.011830140714623467
45.25,0.011838592139215951
45.251,0.011688844769891687
45.251999999999995,0.011135864060389977
45.253,0.009683361834981027
45.254,0.006808433752458352
45.254999999999995,0.002232841516469787
45.256,0.003856769288700529
45.257,0.01072348761804677
45.257999999999996,0.01717184465284945
45.259,0.021803231958879874
45.26,0.023369451749167672
45.260999999999996,0.021126086931849905
45.262,0.01508378556246087
45.263,0.006081763966034992
45.263999999999996,0.004344296169522916
45.265,0.014272368903523487
45.266,0.021807368929265734
45.266999999999996,0.025496307502915625
45.268,0.024644713984321907
45.269,0.01946013521457192
45.269999999999996,0.01099253779653333
45.271,0.0008908951890744525
45.272,0.008962476251460808
45.272999999999996,0.016852945370360625
45.274,0.021579474024511866
45.275,0.022672166124404366
45.275999999999996,0.02044065439040268
45.277,0.015851641495903766
45.278,0.010270675899805683
45.278999999999996,0.005130127969591545
45.28,0.0015976973511283002
45.281,0.00031636373588834256
45.282,0.001269332050131874
45.283,0.003796384904187704
45.284,0.006756630720775198
45.285,0.008802760791563103
45.286,0.00870893858485491
45.287,0.00568248918333451
45.288,0.0004089562908045495
45.289,0.008948035474839461
45.29,0.018642430035194908
45.291,0.02775660533304835
45.292,0.03445887236917654
45.293,0.03721422171076588
45.294,0.0351386057566667
45.295,0.028233220422120345
45.296,0.01743887619964669
45.297,0.0044875167018212075
45.298,0.008426943751877164
45.299,0.01909308236469627
45.3,0.02574565769290818
45.301,0.02744280874072544
45.302,0.024266443564267402
45.303,0.017293898199404422
45.304,0.008342212415130118
45.305,0.00045812858892148046
45.306,0.007159523278768954
45.307,0.010443398491088073
45.308,0.00990627865073788
45.309,0.006115011496622706
45.309999999999995,0.00041900762670081374
45.311,0.00542955737251709
45.312,0.00974602029977693
45.312999999999995,0.011348496593839791
45.314,0.009842666621360607
45.315,0.005682550306348018
45.315999999999995,3.5840050193407957e-06
45.317,0.0057670566954783654
45.318,0.010266832645443385
45.318999999999996,0.012646219434649844
45.32,0.012749160419124522
45.321,0.011115715975396545
45.321999999999996,0.008762964745205383
45.323,0.006822423974960001
45.324,0.0061486067094280675
45.324999999999996,0.007022081672032093
45.326,0.00904135208395796
45.327,0.011239533329809781
45.327999999999996,0.012391832389928872
45.329,0.011419699961158047
45.33,0.007765961857512973
45.330999999999996,0.0016223345466543765
45.332,0.006065306794102088
45.333,0.013820985271564003
45.333999999999996,0.020028665471404597
45.335,0.02337343565488699
45.336,0.0232023985799113
45.336999999999996,0.01969741661665161
45.338,0.013808385794563808
45.339,0.006967801841921111
45.339999999999996,0.0006729003144611666
45.341,0.003939348348336962
45.342,0.0063982283438397255
45.342999999999996,0.0069970936405408515
45.344,0.006656932270169624
45.345,0.006599287239393088
45.346,0.007927454374814928
45.347,0.011239827721795674
45.348,0.016387545943235125
45.349,0.02244510261002829
45.35,0.027901384739898664
45.351,0.03101817321318673
45.352,0.030260519536002596
45.353,0.024689209434127907
45.354,0.014221258566976822
45.355,0.00029710502188821307
45.356,0.017212038489695877
45.357,0.034340849115048235
45.358,0.04934085346388458
45.359,0.060091337340747134
45.36,0.0650200007620977
45.361,0.06332582264586752
45.362,0.05507513243583507
45.363,0.04117017278394118
45.364,0.023206014585476675
45.365,0.003242122957754466
45.366,0.016478922986258887
45.367,0.033828977301433465
45.368,0.04706895522597816
45.369,0.05506157139057646
45.37,0.05738884074176624
45.370999999999995,0.05435410773607216
45.372,0.04686871542532225
45.373,0.03624743293264459
45.373999999999995,0.023958051735808925
45.375,0.011381956002193602
45.376,0.00036121707994055574
45.376999999999995,0.010491189589001306
45.378,0.018543724206568486
45.379,0.02427519903562808
45.379999999999995,0.027546570469603987
45.381,0.028242905158115252
45.382,0.026268532250333952
45.382999999999996,0.02162550496538916
45.384,0.014545444922559018
45.385,0.005615827599468082
45.385999999999996,0.004166818913732774
45.387,0.013467238502679854
45.388,0.020816773352639227
45.388999999999996,0.024916543104309182
45.39,0.024959819329569168
45.391,0.02087618339458494
45.391999999999996,0.013412825087519257
45.393,0.004010929411074986
45.394,0.00550473827351401
45.394999999999996,0.013346314572801778
45.396,0.018179235763564925
45.397,0.01941760182518613
45.397999999999996,0.017315634849953035
45.399,0.012833208088989722
45.4,0.007321661049179086
45.400999999999996,0.0021294945551258815
45.402,0.001751492518119034
45.403,0.0038972513415907145
45.403999999999996,0.00446817784718069
45.405,0.004045777432599307
45.406,0.0033618389635130513
45.407,0.0030234034986264063
45.408,0.0033300776868952424
45.409,0.004239369112853693
45.41,0.005476229370551157
45.411,0.006727028942468418
45.412,0.007826561275070967
45.413,0.00885127181980563
45.414,0.010071266201447826
45.415,0.01177328872273911
45.416,0.0140243530163131
45.417,0.016478741216310534
45.418,0.01832566878387037
45.419,0.01843073848332086
45.42,0.015655356802250414
45.421,0.009268281563265101
45.422,0.0006822657073051159
45.423,0.013170967471739266
45.424,0.026264465119701836
45.425,0.0374719096431694
45.426,0.04430386670671675
45.427,0.044896350522912215
45.428,0.03852788779489496
45.429,0.025880257423560777
45.43,0.008961816455774521
45.431,0.00929454380793617
45.432,0.025657193891296715
45.433,0.03728461276463401
45.434,0.042304802913238584
45.434999999999995,0.04014992853605662
45.436,0.03158336119643022
45.437,0.018440601245561974
45.437999999999995,0.003175943501769667
45.439,0.01165602495537103
45.44,0.023858186719888427
45.440999999999995,0.03189940262418457
45.442,0.03504056366001285
45.443,0.033298257841721586
45.443999999999996,0.027300941873825736
45.445,0.018101271504692457
45.446,0.006993824925929153
45.446999999999996,0.004639158651784873
45.448,0.01545628722089809
45.449,0.024274216122503266
45.449999999999996,0.03018369772686809
45.451,0.032658358556852916
45.452,0.03163209208560486
45.452999999999996,0.027512510168864707
45.454,0.02110603146461874
45.455,0.013454319296374423
45.455999999999996,0.005613528258013808
45.457,0.0015658452850427092
45.458,0.007592143431119204
45.458999999999996,0.012367926170014724
45.46,0.01609346875609624
45.461,0.019070479208143518
45.461999999999996,0.021477002862820543
45.463,0.02320047973417774
45.464,0.02380084502368933
45.464999999999996,0.022632267120237703
45.466,0.019094269645687174
45.467,0.012930728498878441
45.467999999999996,0.0044681683678750835
45.469,0.0053052742085136625
45.47,0.014872640717782212
45.471,0.022516393716080323
45.472,0.026757174386942188
45.473,0.02677342748255237
45.474,0.022668249820083388
45.475,0.015490077250649959
45.476,0.0069868936243887006
45.477,0.0008434962613107393
45.478,0.006279009810349426
45.479,0.008320240556901616
45.48,0.0069268123569877155
45.481,0.002975579081555888
45.482,0.002040971015558031
45.483,0.006478169514560224
45.484,0.009019019191834633
45.485,0.00902455674189714
45.486,0.006654914991013022
45.487,0.002737914347339206
45.488,0.0015565458648105724
45.489,0.005118635219092797
45.49,0.007241196963973159
45.491,0.00779406287446832
45.492,0.00718376468643197
45.493,0.006127698273922577
45.494,0.005334202983442209
45.495,0.005208692486354082
45.495999999999995,0.0056921990696947615
45.497,0.006288459762945289
45.498,0.006267247535698435
45.498999999999995,0.0049690233751660765
45.5,0.0021005280179449996
45.501,0.002085818271258679
45.501999999999995,0.0067958414908304175
45.503,0.010885649372122426
45.504,0.013183425935594156
45.504999999999995,0.012839903863186451
45.506,0.00959775462671722
45.507,0.0038972761507531
45.507999999999996,0.0032115274935903947
45.509,0.010320379392236437
45.51,0.01600009601226844
45.510999999999996,0.0191259040446026
45.512,0.01910411680345674
45.513,0.015950615135415173
45.513999999999996,0.010220039461458564
45.515,0.0028276120912865523
45.516,0.005170453554915203
45.516999999999996,0.0127726699979593
45.518,0.01916075728560346
45.519,0.02375006421388433
45.519999999999996,0.026180887818462856
45.521,0.02628577337039287
45.522,0.024065831216701857
45.522999999999996,0.0196920624784991
45.524,0.013524751964043338
45.525,0.00612622196784341
45.525999999999996,0.0017619718845886326
45.527,0.009294714311652894
45.528,0.015646526424541164
45.528999999999996,0.020153080991641238
45.53,0.022427664915206074
45.531,0.0224120797686739
45.532,0.020341898092225877
45.533,0.016637073103510244
45.534,0.01175863881965869
45.535,0.006088109363612361
45.536,0.00011981319920767818
45.537,0.006688353791865672
45.538,0.013391281212953547
45.539,0.019803043775906255
45.54,0.02520276772000458
45.541,0.02860024662469502
45.542,0.028914598750203503
45.543,0.025280003520641425
45.544,0.017396630928697
45.545,0.005809611622806036
45.546,0.007999453852875255
45.547,0.021780928092946954
45.548,0.03294330819351068
45.549,0.039150401314096854
45.55,0.038935885863876196
45.551,0.03215662998386282
45.552,0.02013546025102005
45.553,0.005423263718055137
45.554,0.008781821299404859
45.555,0.01941591892098625
45.556,0.024321600772947295
45.557,0.022793037455495893
45.558,0.015734543794940232
45.559,0.005381871226561909
45.559999999999995,0.005336517301158229
45.561,0.013613281086067967
45.562,0.017512962238667606
45.562999999999995,0.016440650846090806
45.564,0.011196633689494516
45.565,0.00361385969948224
45.565999999999995,0.004094785716895954
45.567,0.010062418537228422
45.568,0.013329968148822037
45.568999999999996,0.0140632406956587
45.57,0.013360865850104634
45.571,0.01272716763210707
45.571999999999996,0.013399109835603249
45.573,0.015769518839290314
45.574,0.019120671992550898
45.574999999999996,0.02178043096731738
45.576,0.021669528015206684
45.577,0.017070317958317215
45.577999999999996,0.007360909535136007
45.579,0.006545064900718564
45.58,0.022229296190717913
45.580999999999996,0.036300198274393826
45.582,0.04529150947700695
45.583,0.046667451145899604
45.583999999999996,0.039625394256784324
45.585,0.02543595905950907
45.586,0.0071942329151574134
45.586999999999996,0.010966023419711911
45.588,0.024976366453158545
45.589,0.031934602845750726
45.589999999999996,0.030877077921554964
45.591,0.02299329878989055
45.592,0.011221996394896802
45.592999999999996,0.000644954537305228
45.594,0.009076583939345162
45.595,0.011798753316909646
45.596,0.008378696019807591
45.597,0.00023793016937532775
45.598,0.009886668157719046
45.599,0.01884456103774907
45.6,0.024041917800319744
45.601,0.02417776137685815
45.602,0.01953072137350717
45.603,0.011734453080976731
45.604,0.0031468325538121233
45.605,0.003956083149703272
45.606,0.008085706453120305
45.607,0.008919290248493127
45.608,0.007246892452848782
45.609,0.004535870108178814
45.61,0.002292259562064977
45.611,0.0014621031790203586
45.612,0.002092401624317412
45.613,0.003370838825493041
45.614,0.004022176601881184
45.615,0.0029073578327918114
45.616,0.00040470558277503114
45.617,0.005316229479745854
45.618,0.010267212723019049
45.619,0.013189041044883923
45.62,0.012204376226314788
45.620999999999995,0.006338637679612592
45.622,0.004006394836305163
45.623,0.016995566509288573
45.623999999999995,0.02976514320160062
45.625,0.03918262736809741
45.626,0.04273492238220566
45.626999999999995,0.03927051614996627
45.628,0.029362091117812017
45.629,0.015172101118656658
45.629999999999995,0.0001422432578790388
45.631,0.013306080800059787
45.632,0.02182255974729434
45.632999999999996,0.02462159421053484
45.634,0.02227641071794291
45.635,0.016737637394484153
45.635999999999996,0.010680890034133007
45.637,0.0066753962254205235
45.638,0.006425134320114917
45.638999999999996,0.01029992211136387
45.64,0.017276444338194367
45.641,0.025281871571063107
45.641999999999996,0.03181620518081426
45.643,0.034658331558737494
45.644,0.032452869262692335
45.644999999999996,0.025027087229357467
45.646,0.013378009993891412
45.647,0.0006319882522553238
45.647999999999996,0.01475750413530993
45.649,0.02688399385016181
45.65,0.035440646705453334
45.650999999999996,0.03962883401074285
45.652,0.03944669802398425
45.653,0.0355471820861239
45.653999999999996,0.02900037956823393
45.655,0.02103611742624744
45.656,0.0128244648243407
45.657,0.00532256793586105
45.658,0.0008107453608194885
45.659,0.005246513826856099
45.66,0.00797885967637155
45.661,0.009287763087195014
45.662,0.009670612621496507
45.663,0.009739484006921997
45.664,0.010088338871194119
45.665,0.011148427654165245
45.666,0.013064045119636478
45.667,0.015626279511167573
45.668,0.018294215255910264
45.669,0.020311462323648045
45.67,0.020897101665858307
45.671,0.019464129137862458
45.672,0.015805139782016857
45.673,0.010190169750492752
45.674,0.0033446588318253472
45.675,0.003690679428108677
45.676,0.009782684679673012
45.677,0.013953347964160801
45.678,0.015589598751672247
45.679,0.014566340103197182
45.68,0.011259961502561113
45.681,0.006458803976394861
45.682,0.0011999964452440446
45.683,0.003427108794431628
45.684,0.006472511808408239
45.684999999999995,0.007283979288887299
45.686,0.0056161869417441215
45.687,0.0016828914839585717
45.687999999999995,0.003852682218854551
45.689,0.009954276463273612
45.69,0.015359057114636795
45.690999999999995,0.018788563043378337
45.692,0.019201725546302714
45.693,0.01604647378990198
45.693999999999996,0.009449754910696297
45.695,0.0002833610583980128
45.696,0.009938514790286998
45.696999999999996,0.019334958961680266
45.698,0.026061523783628245
45.699,0.028748630331870927
45.699999999999996,0.026857852534846526
45.701,0.020847752638878458
45.702,0.012086109151910052
45.702999999999996,0.002516145670952097
45.704,0.005840239702847271
45.705,0.011404144113262139
45.705999999999996,0.013433580489752586
45.707,0.012170917950436056
45.708,0.008699213142425322
45.708999999999996,0.004554350784663361
45.71,0.0012187951104789456
45.711,0.0003382973486254716
45.711999999999996,7.452324918410495e-05
45.713,0.001884809336231626
45.714,0.004035450829208539
45.714999999999996,0.005424566815574767
45.716,0.005345161183311992
45.717,0.0037639259243958537
45.717999999999996,0.0013362590579627102
45.719,0.0008498389952364942
45.72,0.0017084192728310686
45.721,0.0006080257462668974
45.722,0.002329789788958287
45.723,0.006205808268082958
45.724,0.009614837241663973
45.725,0.011127321382343146
45.726,0.0098133178111933
45.727,0.0056184087585175475
45.728,0.0005532582676669552
45.729,0.007093703831544489
45.73,0.01220856355994667
45.731,0.01452469098730709
45.732,0.01357606513985204
45.733,0.00999102734675908
45.734,0.005302864704308973
45.735,0.0014357161065106014
45.736,3.3672533559410425e-05
45.737,0.0018615645435718698
45.738,0.006488537586098407
45.739,0.0123742356478536
45.74,0.017342288237285963
45.741,0.019292696734561326
45.742,0.016919564751959038
45.743,0.010193405764756816
45.744,0.000441489674946932
45.745,0.010009046623819762
45.745999999999995,0.018516337442926672
45.747,0.022919504927448504
45.748,0.022190651579876205
45.748999999999995,0.0167361970549056
45.75,0.008255538263720361
45.751,0.0007915176063470487
45.751999999999995,0.007933020859587652
45.753,0.011409168961215558
45.754,0.010648274560640006
45.754999999999995,0.0063574138738068725
45.756,0.00021890494060178048
45.757,0.005690919763655698
45.757999999999996,0.009562599744238702
45.759,0.01038270172780164
45.76,0.00817535688163477
45.760999999999996,0.0039023504894169056
45.762,0.0009198739725841662
45.763,0.004743015650521738
45.763999999999996,0.006474273418256307
45.765,0.005780057343326554
45.766,0.003129776409193416
45.766999999999996,0.00040765791709221496
45.768,0.0035269460944633837
45.769,0.005083305317066589
45.769999999999996,0.004403937106884404
45.771,0.0014378744669999632
45.772,0.0032722074938713657
45.772999999999996,0.008758803820681681
45.774,0.013870671351710764
45.775,0.017515576221367055
45.775999999999996,0.01885442841209417
45.777,0.017425914804344685
45.778,0.01320473533117262
45.778999999999996,0.006606319469003407
45.78,0.0015535031775342479
45.781,0.010146085607272667
45.782,0.017872892795282775
45.783,0.02346480649960909
45.784,0.025918249867513846
45.785,0.024722524452981627
45.786,0.02001469617671356
45.787,0.012600993485283589
45.788,0.0038124055132530772
45.789,0.004788718256383229
45.79,0.01178082001218157
45.791,0.016226913824655877
45.792,0.017879998556454835
45.793,0.017177385580827067
45.794,0.015019508284108685
45.795,0.012405512299121235
45.796,0.010054652133131408
45.797,0.008155550260412247
45.798,0.00634556850512926
45.799,0.003940272655975797
45.8,0.00033590863959163237
45.801,0.0045682016607863874
45.802,0.010104395146829879
45.803,0.014863551388933766
45.804,0.01705092466629462
45.805,0.015085069216640344
45.806,0.008250457219995688
45.807,0.0028299962106812164
45.808,0.016099978962078952
45.809,0.028439052369733927
45.809999999999995,0.03643096739910108
45.811,0.037323505934034044
45.812,0.02988989757825992
45.812999999999995,0.014911751751023427
45.814,0.004892344069326194
45.815,0.025500417125765448
45.815999999999995,0.04261278338099244
45.817,0.05277100338989181
45.818,0.05423628248561648
45.818999999999996,0.047365862789260624
45.82,0.034383474495747336
45.821,0.018631182475401662
45.821999999999996,0.003551683492151211
45.823,0.008271373056768885
45.824,0.01571771590549309
45.824999999999996,0.019209752415006595
45.826,0.020277808163856915
45.827,0.020793902890416684
45.827999999999996,0.022161069917077645
45.829,0.024748129949345183
45.83,0.027762479078571635
45.830999999999996,0.029591784949073302
45.832,0.028477169095186845
45.833,0.023264444907421404
45.833999999999996,0.0139558866111787
45.835,0.0018595036995939704
45.836,0.010722165207629497
45.836999999999996,0.021158469072241566
45.838,0.02728327015833204
45.839,0.02804328058974207
45.839999999999996,0.023785262067734313
45.841,0.01609320765345174
45.842,0.00724241494553486
45.842999999999996,0.000534175419107098
45.844,0.005714978074687538
45.845,0.007873888547857387
45.846,0.007666589510833639
45.847,0.006448308312988337
45.848,0.005678376520724055
45.849,0.006333299544783916
45.85,0.008535825196221631
45.851,0.011521184024040948
45.852,0.013936944600324078
45.853,0.014355640812745958
45.854,0.011810595509444856
45.855,0.006166999624169783
45.856,0.00179214699592083
45.857,0.01058003005069868
45.858,0.018431097850424925
45.859,0.02378358559072333
45.86,0.025660404538195417
45.861,0.023840574286600184
45.862,0.018797908407698672
45.863,0.011467229131648458
45.864,0.002949570324632968
45.865,0.005730045425842926
45.866,0.013741845011403514
45.867,0.020443961437152262
45.868,0.025305291505851202
45.869,0.027843350812532548
45.87,0.027646345827922584
45.870999999999995,0.024497403804242177
45.872,0.01855546777923225
45.873,0.01050110724848949
45.873999999999995,0.0015492029734539231
45.875,0.006729434974913966
45.876,0.012762209944043285
45.876999999999995,0.015411228072706586
45.878,0.014348171140794012
45.879,0.010224176542895577
45.879999999999995,0.004547841846090805
45.881,0.0007200878908097982
45.882,0.0037456200474652868
45.882999999999996,0.0033948305820907356
45.884,0.0003876831813288853
45.885,0.006528380205059877
45.885999999999996,0.013130414475707723
45.887,0.0180449068384228
45.888,0.01952720600920207
45.888999999999996,0.016767841710983337
45.89,0.010129884805661352
45.891,0.0010236632278591876
45.891999999999996,0.008528723170389852
45.893,0.016485757138955302
45.894,0.02133729756026835
45.894999999999996,0.022440778006165528
45.896,0.02005464293577923
45.897,0.015092701706679288
45.897999999999996,0.008720161866470764
45.899,0.001959014147416996
45.9,0.004548713531716811
45.900999999999996,0.010547129512177377
45.902,0.0159708966389252
45.903,0.020663358136962507
45.903999999999996,0.024160982064054138
45.905,0.02566910946373536
45.906,0.024271748096004388
45.907,0.019313297492326912
45.908,0.010804470814466787
45.909,0.0003259926243102089
45.91,0.012272340695893377
45.911,0.022724738959092737
45.912,0.02948909134938825
45.913,0.031165347022254836
45.914,0.02765354161526823
45.915,0.020295023783995406
45.916,0.01156603627421593
45.917,0.004386833950606718
45.918,0.0012423459607581958
45.919,0.003383565261625269
45.92,0.01036540898802127
45.921,0.020079006534212476
45.922,0.029285253563813545
45.923,0.034501224133980574
45.924,0.032982196517356635
45.925,0.023514312094994532
45.926,0.0067936259085213495
45.927,0.014705269077875789
45.928,0.03731651328472113
45.929,0.05704496174206081
45.93,0.0704576890129637
45.931,0.07537368333054367
45.932,0.07120089014847485
45.933,0.05888496943184275
45.934,0.040543887760001104
45.934999999999995,0.0189328682520346
45.936,0.0031012609726807612
45.937,0.023053824217313862
45.937999999999995,0.03902724674793093
45.939,0.04983580792367497
45.94,0.05500002056656931
45.940999999999995,0.05468682865142948
45.942,0.049629258553225676
45.943,0.04102576052870634
45.943999999999996,0.030396421334268762
45.945,0.019374874334164013
45.946,0.009442041177043496
45.946999999999996,0.0016478876747422766
45.948,0.0036008641052434867
45.949,0.006605203877137324
45.949999999999996,0.008241257545813712
45.951,0.009643479776070914
45.952,0.01178636357728224
45.952999999999996,0.01509728897396421
45.954,0.019239712999350247
45.955,0.023160810947998448
45.955999999999996,0.02541220280814666
45.957,0.02465475320856481
45.958,0.02018409821641601
45.958999999999996,0.01229211058195268
45.96,0.0023229316714440543
45.961,0.007620843926439452
45.961999999999996,0.015247479982561653
45.963,0.01874742817740763
45.964,0.017350029296998477
45.964999999999996,0.011579369382358796
45.966,0.003118896381809296
45.967,0.005676314130281586
45.967999999999996,0.012462772731491531
45.969,0.01556540953587833
45.97,0.01439764156072144
45.971,0.009518639798884626
45.972,0.0023292277413275025
45.973,0.005467074717378555
45.974,0.012433547637270228
45.975,0.01779343588524063
45.976,0.021513269413384963
45.977,0.02406498765682723
45.978,0.025981240695357864
45.979,0.02740055652689479
45.98,0.02780649477127771
45.981,0.026093223798013123
45.982,0.020964133795122932
45.983,0.011535641802139196
45.984,0.0020749371435021505
45.985,0.01841457989815739
45.986,0.03477952392891504
45.987,0.047751504172943965
45.988,0.054061837628404386
45.989,0.05153845372367891
45.99,0.03984554022379592
45.991,0.02077342366437912
45.992,0.0020363392102376305
45.993,0.023879336492255498
45.994,0.040086510133748365
45.995,0.04713803680878927
45.995999999999995,0.04349677660050471
45.997,0.029949594305068102
45.998,0.00938629218954693
45.998999999999995,0.013901134162729216
46.0,0.035197624100328964
46.001,0.050368607987369064
46.001999999999995,0.056655484810663466
46.003,0.05311060609828456
46.004,0.04062664172649763
46.004999999999995,0.021614627205424015
46.006,0.00054997109695765
46.007,0.022173541093469498
46.007999999999996,0.039861225066513566
46.009,0.0510210069539243
46.01,0.05421045052483944
46.010999999999996,0.049307787585702645
46.012,0.0375005437530539
46.013,0.021089574727228874
46.013999999999996,0.0031163576756296756
46.015,0.0131548564955092
46.016,0.02483184714777785
46.016999999999996,0.029960262646191744
46.018,0.02793374018863863
46.019,0.01963402285649614
46.019999999999996,0.007238812972713865
46.021,0.006282255260395347
46.022,0.01787301739936367
46.022999999999996,0.02511960936788536
46.024,0.026806220399486245
46.025,0.023143160247360486
46.025999999999996,0.015606003635825587
46.027,0.006441332005118643
46.028,0.0020035640057029756
46.028999999999996,0.007917868291264096
46.03,0.010439386939138416
46.031,0.009731099962123013
46.032,0.006729138676953448
46.033,0.0026814998020607056
46.034,0.0013364666710353114
46.035,0.004746744332332208
46.036,0.00752184094920727
46.037,0.009967708595908271
46.038,0.012349078458867152
46.039,0.014536698205730777
46.04,0.015850999700434246
46.041,0.015199800921083698
46.042,0.011486418774636502
46.043,0.004144996144022833
46.044,0.006410657234436325
46.045,0.01862899393036378
46.046,0.03006656791065815
46.047,0.03800734084503874
46.048,0.0402798521668069
46.049,0.03600436246886429
46.05,0.026000635988194347
46.051,0.012683091689293557
46.052,0.0005649417493674304
46.053,0.01036718639447206
46.054,0.014379729831878152
46.055,0.012031626268864379
46.056,0.004726450299385614
46.057,0.004579911628186133
46.058,0.01230562671522665
46.059,0.015383670127843084
46.059999999999995,0.012250031769427877
46.061,0.0033564204473823076
46.062,0.008963173929903288
46.062999999999995,0.021231991204873565
46.064,0.029937203100335777
46.065,0.032644684923736206
46.065999999999995,0.028761318171302185
46.067,0.019701777883454858
46.068,0.008413192473154524
46.068999999999996,0.001579717701522642
46.07,0.007294026118089994
46.071,0.007211366863145688
46.071999999999996,0.001715870428950252
46.073,0.007076254819090585
46.074,0.01601980681941822
46.074999999999996,0.02193384050712062
46.076,0.022561821317705726
46.077,0.01720336186949251
46.077999999999996,0.006844099500313993
46.079,0.006219472015835927
46.08,0.019104111125734312
46.080999999999996,0.029160565389028746
46.082,0.03463289546085918
46.083,0.034977742248197635
46.083999999999996,0.03079520215811103
46.085,0.02345496067118606
46.086,0.014589130313937763
46.086999999999996,0.00564046588104267
46.088,0.0023974657800058226
46.089,0.009006525313753538
46.089999999999996,0.013992624450231759
46.091,0.01727507598744989
46.092,0.018740734159509796
46.092999999999996,0.018238438234403055
46.094,0.015710428977672282
46.095,0.011383443305820312
46.096,0.005905069838222332
46.097,0.00032669894866912144
46.098,0.004103050013007209
46.099,0.006286748024150449
46.1,0.005650463618671059
46.101,0.002395335301698911
46.102,0.002485837948808744
46.103,0.007462662506063251
46.104,0.010928868934371101
46.105,0.011726781951746907
46.106,0.009556273460673727
46.107,0.00511960412801269
46.108,6.220039442514033e-05
46.109,0.00411563198916907
46.11,0.005420279355460778
46.111,0.0031598426088609664
46.112,0.002360786691764869
46.113,0.009737216401652163
46.114,0.016822135785227385
46.115,0.02130729806311044
46.116,0.021354213180714572
46.117,0.016089016337462146
46.118,0.005828199035295856
46.119,0.008008369082135557
46.12,0.02324500711155466
46.120999999999995,0.03743698858662419
46.122,0.04835287402943528
46.123,0.054335725078678614
46.123999999999995,0.05448687575642909
46.125,0.0486831997626009
46.126,0.03748661608814705
46.126999999999995,0.02201696560165166
46.128,0.0038365115634802507
46.129,0.015148555959888187
46.129999999999995,0.03280374125603019
46.131,0.04694804193949634
46.132,0.05563146121443648
46.132999999999996,0.05748986784349912
46.134,0.05210249613392785
46.135,0.04023857426138248
46.135999999999996,0.023879667895026147
46.137,0.005950804464570733
46.138,0.010224291838683739
46.138999999999996,0.021636417588546866
46.14,0.026295652965871205
46.141,0.02373117288622708
46.141999999999996,0.015131526814709325
46.143,0.003065143835383624
46.144,0.009160022889897527
46.144999999999996,0.01833204926242277
46.146,0.022140171587278133
46.147,0.01973055606819118
46.147999999999996,0.01186559197949491
46.149,0.0006542174959577397
46.15,0.011057478452902768
46.150999999999996,0.020454439154491043
46.152,0.025463550110955
46.153,0.025220451902654813
46.153999999999996,0.02018642278888813
46.155,0.011914475451108141
46.156,0.0025597134669329636
46.157,0.005711588326340685
46.158,0.011250298644424868
46.159,0.013263554097052536
46.16,0.011904952909669806
46.161,0.008128683257927522
46.162,0.0033770035423596333
46.163,0.0008020402595692782
46.164,0.003112839244960785
46.165,0.002777737499563613
46.166,0.0003248486213951976
46.167,0.005653924915492331
46.168,0.012115126123040028
46.169,0.01826009776576837
46.17,0.02254667152018272
46.171,0.02362675692780945
46.172,0.020622541249826702
46.173,0.013344598382231922
46.174,0.002403691398391239
46.175,0.010822143514246957
46.176,0.024379188916617407
46.177,0.03606635471507097
46.178,0.04384036844288715
46.179,0.04621102210220654
46.18,0.04253475981011772
46.181,0.03313672502910177
46.182,0.019235228994086747
46.183,0.002695233815336985
46.184,0.014318459834889575
46.184999999999995,0.029697087445086503
46.186,0.04167141037704532
46.187,0.048977017695536584
46.187999999999995,0.05090276209894083
46.189,0.04726335759690854
46.19,0.03835351385320663
46.190999999999995,0.024927639399480096
46.192,0.008212443051304795
46.193,0.010083311616704413
46.193999999999996,0.027826000612811277
46.195,0.0426425667855669
46.196,0.05225714115829933
46.196999999999996,0.05493889476090243
46.198,0.04995688644787
46.199,0.03789946541549593
46.199999999999996,0.02072452918646021
46.201,0.0014678441135973484
46.202,0.016364640535944854
46.202999999999996,0.02958861407404975
46.204,0.036109368700753264
46.205,0.035441949944663376
46.205999999999996,0.028815633984985156
46.207,0.018810607016338788
46.208,0.008615872357131519
46.208999999999996,0.0011185231059000615
46.21,0.0019058617188192014
46.211,0.00025659359038930624
46.211999999999996,0.004715865341866035
46.213,0.010609648544523082
46.214,0.014785282402981497
46.214999999999996,0.015231753064795508
46.216,0.011208014209169904
46.217,0.0034585994006723197
46.217999999999996,0.00605665819059385
46.219,0.014818723172253023
46.22,0.020566032615096697
46.221,0.021998109605578867
46.222,0.01913654094257979
46.223,0.013234410941266728
46.224,0.006280647778044898
46.225,0.00028237319510692496
46.226,0.0034202254952497937
46.227,0.0045693095766608256
46.228,0.003996688938045688
46.229,0.0032295881647859937
46.23,0.0038419168777506147
46.231,0.006785623008820011
46.232,0.01194195640078344
46.233,0.01805490714485533
46.234,0.02307668472766964
46.235,0.024814101413168338
46.236,0.02166325404292236
46.237,0.013191398072548174
46.238,0.0003770456739140603
46.239,0.014567808235496409
46.24,0.02873550210850861
46.241,0.03925285385042812
46.242,0.04398494892333387
46.243,0.042015031742118715
46.244,0.03378447302038892
46.245,0.020887455273733382
46.245999999999995,0.005616222638804443
46.247,0.009587671509727752
46.248,0.022617697024115802
46.248999999999995,0.032011422707533446
46.25,0.037048624859212516
46.251,0.03767523154196269
46.251999999999995,0.034334280804609076
46.253,0.02778951835141072
46.254,0.01899690736359936
46.254999999999995,0.009032618181438322
46.256,0.0009538150748610972
46.257,0.009807572586078799
46.257999999999996,0.016489062186191582
46.259,0.020241315120485086
46.26,0.020759111430198658
46.260999999999996,0.0182925124777054
46.262,0.013625595820186822
46.263,0.007909185209682597
46.263999999999996,0.002380309836562087
46.265,0.0019509749802841688
46.266,0.004545920354440532
46.266999999999996,0.005428358339779539
46.268,0.005090117550495042
46.269,0.004245111003461301
46.269999999999996,0.003524137812936646
46.271,0.003226891679611918
46.272,0.0032277788421192135
46.272999999999996,0.003073654704100755
46.274,0.0022357556378762335
46.275,0.00041401660125942546
46.275999999999996,0.0022345660486675495
46.277,0.005048576726370524
46.278,0.0070344190035652576
46.278999999999996,0.007210911710496075
46.28,0.005006248655510483
46.281,0.0005565691391640364
46.282,0.005219252267044593
46.283,0.010819204628912834
46.284,0.014584330869381134
46.285,0.015217532046424526
46.286,0.012219765871090381
46.287,0.006089258299312063
46.288,0.001793111577785124
46.289,0.00956144152051334
46.29,0.015415376516551097
46.291,0.018139058285657317
46.292,0.01741487073465832
46.293,0.013831785660532893
46.294,0.008597748629195963
46.295,0.0030714437066191817
46.296,0.0017082301300220975
46.297,0.005320263891698828
46.298,0.007981877177162835
46.299,0.010295227260450518
46.3,0.012833051920931184
46.301,0.015741612041745186
46.302,0.018536208838171222
46.303,0.020191893015481445
46.304,0.01951562361683324
46.305,0.01566946702514899
46.306,0.0086425358197005
46.307,0.0005279105972213487
46.308,0.009905609874886055
46.309,0.017162683660035056
46.309999999999995,0.020297200839564607
46.311,0.018322555607349304
46.312,0.011681577617984695
46.312999999999995,0.002218620331237923
46.314,0.007312370487968229
46.315,0.014065544610493131
46.315999999999995,0.015988934886610354
46.317,0.012485974330895018
46.318,0.0046255503262642135
46.318999999999996,0.005181114338317972
46.32,0.013940994129024798
46.321,0.01903263121735811
46.321999999999996,0.019039489216225464
46.323,0.014187483132637254
46.324,0.006241881352766159
46.324999999999996,0.002100264899732074
46.326,0.00811671389059669
46.327,0.009960517134376843
46.327999999999996,0.007253347716707444
46.329,0.0011769116319500007
46.33,0.005960582157948425
46.330999999999996,0.011527891883713757
46.332,0.013465864220642295
46.333,0.010969124549053794
46.333999999999996,0.004727121651966939
46.335,0.0033481453388987384
46.336,0.01080329018246014
46.336999999999996,0.015490758288551065
46.338,0.01628666132313484
46.339,0.013433839794929363
46.339999999999996,0.008398663737380942
46.341,0.003300378018126815
46.342,0.00011924703954357106
46.342999999999996,3.605201994750347e-05
46.344,0.0026552497494336377
46.345,0.006771580613747419
46.346,0.010142170290891442
46.347,0.010620343693670885
46.348,0.0068750168833744355
46.349,0.0010667993701272888
46.35,0.01170986299547868
46.351,0.022453529909378322
46.352,0.03031524595087341
46.353,0.03278979443197601
46.354,0.02858213808625091
46.355,0.017998461038183245
46.356,0.0028915501898804014
46.357,0.013806247614325992
46.358,0.028811495521586596
46.359,0.03926546025975877
46.36,0.04334943146500347
46.361,0.040598505373953146
46.362,0.0318723940440124
46.363,0.019039312741136367
46.364,0.004494511433357746
46.365,0.009346546099589011
46.366,0.020465988416046407
46.367,0.02751010577357832
46.368,0.029897468899040384
46.369,0.027799315011440888
46.37,0.022034758415168935
46.370999999999995,0.013913084914919053
46.372,0.005036348945658831
46.373,0.00293671499887436
46.373999999999995,0.008559802389212655
46.375,0.01087438650510253
46.376,0.009637718262536055
46.376999999999995,0.00543368989533011
46.378,0.00039471669415677235
46.379,0.00601469261270057
46.379999999999995,0.009538548327399301
46.381,0.009526895472828175
46.382,0.005422737161010163
46.382999999999996,0.0022203356182916136
46.384,0.011805724104359027
46.385,0.0210643356581763
46.385999999999996,0.027641434467575804
46.387,0.029739464412134008
46.388,0.02662915392091173
46.388999999999996,0.01887246499353548
46.39,0.008183520759101622
46.391,0.0030374656234609036
46.391999999999996,0.01236178286532748
46.393,0.01798666941422673
46.394,0.01919369981768806
46.394999999999996,0.016480512305136797
46.396,0.011337781214856218
46.397,0.0057524905918979055
46.397999999999996,0.0015990900982085917
46.399,0.00010687140583432527
46.4,0.0015581462908844915
46.400999999999996,0.00529098413660696
46.402,0.009980858566967966
46.403,0.014090913756533052
46.403999999999996,0.01633742235273493
46.405,0.016026708446365952
46.406,0.013175222816851
46.407,0.008403469693230492
46.408,0.0026685313617136
46.409,0.003055649253949986
46.41,0.008038679659422936
46.411,0.011919514781611552
46.412,0.014680388794697307
46.413,0.01650835767730125
46.414,0.017618791563944153
46.415,0.01811762880306156
46.416,0.017951939436321954
46.417,0.01695515647512034
46.418,0.01495301594255796
46.419,0.011874841771271431
46.42,0.00781938035710641
46.421,0.003050692580386436
46.422,0.0020655352308320365
46.423,0.007147689408148482
46.424,0.011860989801548929
46.425,0.015927825685036444
46.426,0.01908701808182483
46.427,0.02103488244586656
46.428,0.021397588735704635
46.429,0.019776473726238183
46.43,0.015876674367827737
46.431,0.00968657710515529
46.432,0.0016394507821424727
46.433,0.00732330819468017
46.434,0.015846599524751606
46.434999999999995,0.022422414826222568
46.436,0.025762386675134526
46.437,0.025175045634205348
46.437999999999995,0.020821180079653258
46.439,0.01374551356635848
46.44,0.005647792030572848
46.440999999999995,0.0015585243581970195
46.442,0.006275526685867193
46.443,0.007674422451205797
46.443999999999996,0.005924312439759755
46.445,0.002113934565232894
46.446,0.0021170933790763138
46.446999999999996,0.005123138604000033
46.448,0.005796365054835292
46.449,0.0039279929161260135
46.449999999999996,0.00026330268203498625
46.451,0.0037713974694855014
46.452,0.006579681524596256
46.452999999999996,0.006970328969824613
46.454,0.004598603992016205
46.455,0.00011832176502468875
46.455999999999996,0.005012627842885415
46.457,0.009011366679573687
46.458,0.010372349904473596
46.458999999999996,0.008386901813206914
46.46,0.0034003782552673614
46.461,0.0032835508745751836
46.461999999999996,0.009820788768775958
46.463,0.014424912188242172
46.464,0.01594123020074008
46.464999999999996,0.01420125287124582
46.466,0.010038934808908669
46.467,0.004968317553814748
46.467999999999996,0.0006402187038987564
46.469,0.001728250764577812
46.47,0.0017502588889638294
46.471,4.506575362596301e-05
46.472,0.0024621705670278705
46.473,0.004127211429867656
46.474,0.004032288380766384
46.475,0.0019334850568738739
46.476,0.0015459248284314323
46.477,0.005147615606801549
46.478,0.007462419251801086
46.479,0.007488703599515893
46.48,0.005056288626156555
46.481,0.0009524904447374306
46.482,0.0033072220570627515
46.483,0.005992348282222842
46.484,0.005776726958854779
46.485,0.0022427522749630066
46.486,0.003915673442146112
46.487,0.011074179940324046
46.488,0.017190042971694117
46.489,0.020472652637521006
46.49,0.0199790559455763
46.491,0.0159230000697757
46.492,0.009583906425222942
46.493,0.0028430925337448384
46.494,0.002491159789676085
46.495,0.005328668963348245
46.495999999999995,0.005676773725328112
46.497,0.004608589705520166
46.498,0.003819941877323329
46.498999999999995,0.004924976061578952
46.5,0.008742029041887237
46.501,0.014836585565706448
46.501999999999995,0.02150865170312904
46.503,0.026262236549361776
46.504,0.026624763245738595
46.504999999999995,0.021052631614568676
46.506,0.009612901807790418
46.507,0.00581070520525021
46.507999999999996,0.021892634908713626
46.509,0.034737774751653794
46.51,0.04099936462617322
46.510999999999996,0.038899126596837696
46.512,0.028823813528095783
46.513,0.013296044105243907
46.513999999999996,0.0036911234037446785
46.515,0.017787791219689812
46.516,0.025518969814406246
46.516999999999996,0.02526496903050162
46.518,0.017696750211276688
46.519,0.005539502185489686
46.519999999999996,0.0072573757825664985
46.521,0.016687498246401804
46.522,0.019839321165469572
46.522999999999996,0.015693997310653404
46.524,0.005347726982345953
46.525,0.008382398894076973
46.525999999999996,0.021824310935765357
46.527,0.03151066555042124
46.528,0.0351125572223264
46.528999999999996,0.03198530056163468
46.53,0.023198278639710242
46.531,0.011084542976314716
46.532,0.001513731849848719
46.533,0.012052955878376747
46.534,0.01890715801331524
46.535,0.021639898400845407
46.536,0.020895239954193574
46.537,0.017996057066969835
46.538,0.014418202075120514
46.539,0.011325314421922018
46.54,0.009302521171898764
46.541,0.008340204636457182
46.542,0.008025488204296468
46.543,0.007832325616188678
46.544,0.007381894534135453
46.545,0.006575439659376758
46.546,0.005565730870217419
46.547,0.004603828028231633
46.548,0.0038473934953100015
46.549,0.0032276015509619606
46.55,0.0024417453671086112
46.551,0.001081617644723954
46.552,0.001152819079057996
46.553,0.004244890774912028
46.554,0.0077518661083077756
46.555,0.010854742409979601
46.556,0.012568100702322336
46.557,0.012049323526141917
46.558,0.008905302113545283
46.559,0.0033895356527149038
46.559999999999995,0.0035845063819883584
46.561,0.010628321137082801
46.562,0.016211023728213494
46.562999999999995,0.019041117303806254
46.564,0.018384175159357523
46.565,0.014226207307766853
46.565999999999995,0.007244031350753887
46.567,0.001394531021286613
46.568,0.010327640080750345
46.568999999999996,0.018298106649961284
46.57,0.024369216069505033
46.571,0.028011373263794062
46.571999999999996,0.029063143480068727
46.573,0.027613182376767798
46.574,0.023870496936635437
46.574999999999996,0.01808345365497435
46.576,0.010537668338483741
46.577,0.0016225336419173095
46.577999999999996,0.008078010441693801
46.579,0.017729522561887933
46.58,0.026274800667988454
46.580999999999996,0.03256341846454925
46.582,0.03556171976598138
46.583,0.034588744078473996
46.583999999999996,0.02950887815227501
46.585,0.020821039799984953
46.586,0.009613373331585691
46.586999999999996,0.0026088081887185584
46.588,0.014179205080375014
46.589,0.02354845807388408
46.589999999999996,0.029521996621581205
46.591,0.03141445441840428
46.592,0.02910521836196707
46.592999999999996,0.02300620381274078
46.594,0.013969202010340381
46.595,0.003162479158752071
46.596,0.008062737280423258
46.597,0.018308579051926885
46.598,0.026271782488775833
46.599,0.03089198194997189
46.6,0.031499429731570744
46.601,0.02794006699327751
46.602,0.020644904465033198
46.603,0.01061084909082674
46.604,0.0007250888354292046
46.605,0.011709571141605092
46.606,0.020755834811798223
46.607,0.026624223501115967
46.608,0.028633258659868675
46.609,0.026749536454757954
46.61,0.021537431097273026
46.611,0.013989281759966896
46.612,0.005289996902863863
46.613,0.003414801201253925
46.614,0.011186197942466135
46.615,0.01736256693426615
46.616,0.021538925276155443
46.617,0.02349383222965644
46.618,0.023118213014643483
46.619,0.02039254627393868
46.62,0.01543050394214007
46.620999999999995,0.008569743469742114
46.622,0.000459549200486653
46.623,0.007916005935785128
46.623999999999995,0.015325416294579392
46.625,0.020495816869439746
46.626,0.022398567572665062
46.626999999999995,0.02053589114304489
46.628,0.015135001895945795
46.629,0.007173318624848009
46.629999999999995,0.0017954700797087567
46.631,0.009983563615559321
46.632,0.015792648727133502
46.632999999999996,0.01820112026154562
46.634,0.01700266337394157
46.635,0.012825715772476055
46.635999999999996,0.006928570587548637
46.637,0.000832611182598
46.638,0.004095698968567329
46.638999999999996,0.006990549656751553
46.64,0.0076628852320080355
46.641,0.0065655385712869475
46.641999999999996,0.004572974353517579
46.643,0.0026569365481329153
46.644,0.00156619617053477
46.644999999999996,0.0016093714639577083
46.646,0.0025995471830889995
46.647,0.003963366652330498
46.647999999999996,0.0049649940165869925
46.649,0.004963790347512737
46.65,0.0036223101368333638
46.650999999999996,0.0010061331190348692
46.652,0.0024422316415160824
46.653,0.0060322648908160735
46.653999999999996,0.009006988988843107
46.655,0.010720873165206668
46.656,0.010771199008105609
46.657,0.009064127864190336
46.658,0.005819961283973668
46.659,0.0015350825006358085
46.66,0.0030824105426659233
46.661,0.00719641331958194
46.662,0.009949740441399216
46.663,0.010600683002737464
46.664,0.008685162926168633
46.665,0.004179636482732902
46.666,0.0023817764430278544
46.667,0.009892375891475895
46.668,0.016804722446881224
46.669,0.021417891192310683
46.67,0.022277122590618693
46.671,0.018592367898013107
46.672,0.010553075290893457
46.673,0.0005756201745315959
46.674,0.012641153140421392
46.675,0.02306246375878498
46.676,0.029458890584888913
46.677,0.030283006445761842
46.678,0.025272533379133297
46.679,0.015575278147375013
46.68,0.0034898830837881635
46.681,0.008121255655618394
46.682,0.01658788026906781
46.683,0.020139983862570574
46.684,0.018360073626593552
46.684999999999995,0.012246001855907056
46.686,0.0038690910702323697
46.687,0.0042630716093241565
46.687999999999995,0.009939381391092138
46.689,0.011847488987199811
46.69,0.009866453586297268
46.690999999999995,0.0049750425260379335
46.692,0.0011721272076177151
46.693,0.006841684652468819
46.693999999999996,0.010782187025731665
46.695,0.012560514301411085
46.696,0.012571858465849286
46.696999999999996,0.011740303439802844
46.698,0.011037422571636393
46.699,0.011009323983388039
46.699999999999996,0.011496289851426835
46.701,0.011656274519463241
46.702,0.010290304033334873
46.702999999999996,0.006354768534021813
46.704,0.0005268607339159827
46.705,0.00974620322086491
46.705999999999996,0.019716135974599425
46.707,0.02822076541589006
46.708,0.03301016330471686
46.708999999999996,0.032454867779048595
46.71,0.026051826338533864
46.711,0.014620443106371032
46.711999999999996,0.0001278378902225058
46.713,0.014798791447907243
46.714,0.02751843816892111
46.714999999999996,0.03598489758677544
46.716,0.03914584116366509
46.717,0.0370398255484255
46.717999999999996,0.03060271909089656
46.719,0.02128608797613539
46.72,0.010637064742507935
46.721,2.142761600968702e-05
46.722,0.009731134691380388
46.723,0.017863437480025807
46.724,0.0239844622816388
46.725,0.02772866914354836
46.726,0.02877121460738694
46.727,0.02692980889685353
46.728,0.022351938937525743
46.729,0.015686079944222404
46.73,0.008122203416165081
46.731,0.0012264908686035762
46.732,0.0034249421035384593
46.733,0.004718447642560881
46.734,0.002422818966603848
46.735,0.002610177807269262
46.736,0.008575525810583535
46.737,0.013179796198695411
46.738,0.014325424253501036
46.739,0.010807091754745726
46.74,0.002786284483742967
46.741,0.008136364279701942
46.742,0.019310369396448892
46.743,0.0277948966708726
46.744,0.0312665939416287
46.745,0.02878982314590642
46.745999999999995,0.021191143850509114
46.747,0.010894725376386125
46.748,0.001242780695314122
46.748999999999995,0.0045082531324199294
46.75,0.004213990746843549
46.751,0.0024286670075886257
46.751999999999995,0.013685256665942542
46.753,0.02619654024030021
46.754,0.035890493415069315
46.754999999999995,0.039130280965314075
46.756,0.0337625875246719
46.757,0.01976137208387987
46.757999999999996,0.0007148999920012298
46.759,0.023859065372437187
46.76,0.04517818619752587
46.760999999999996,0.060601030273526195
46.762,0.06742013112901882
46.763,0.06482429087215165
46.763999999999996,0.05391116164905151
46.765,0.03722609221939619
46.766,0.018003301887009437
46.766999999999996,0.0006489986017454475
46.768,0.016391197502400416
46.769,0.027974714275951884
46.769999999999996,0.03521204691247839
46.771,0.038672716950741454
46.772,0.039254128632805356
46.772999999999996,0.03778929118590261
46.774,0.03481153357517767
46.775,0.030520822833545888
46.775999999999996,0.02491717579457903
46.777,0.01801178464434284
46.778,0.010011997855696644
46.778999999999996,0.0014021514102823844
46.78,0.0071061323179694375
46.781,0.014725488682846077
46.782,0.020780115578253638
46.783,0.024855275793232795
46.784,0.026857477306950824
46.785,0.026973693786007655
46.786,0.025558211285304177
46.787,0.023000216788074162
46.788,0.019625660860760126
46.789,0.015665181555746442
46.79,0.011286791607881177
46.791,0.0066623826179148275
46.792,0.0020234011014766407
46.793,0.0023314557433251988
46.794,0.006088888129428702
46.795,0.009015411844620354
46.796,0.011051521172757778
46.797,0.012358071891730854
46.798,0.01328283371234404
46.799,0.01424595733628507
46.8,0.015577147176905762
46.801,0.01736092669998763
46.802,0.01934961618871043
46.803,0.020984301782557047
46.804,0.02152856426748797
46.805,0.02028067066707251
46.806,0.01680138130103412
46.807,0.01108676365620819
46.808,0.0036311636018103903
46.809,0.004640905456847525
46.809999999999995,0.012555526516901876
46.811,0.018932090780526645
46.812,0.022822574449602683
46.812999999999995,0.023688398561380216
46.814,0.0214793059332352
46.815,0.01660954147812819
46.815999999999995,0.009853769842301732
46.817,0.0022001642347796915
46.818,0.0053018924224722324
46.818999999999996,0.011673795032274259
46.82,0.016109824409039058
46.821,0.018052342537148117
46.821999999999996,0.017246871870601203
46.823,0.013778795371156486
46.824,0.008083979380892916
46.824999999999996,0.0009187004531197471
46.826,0.006724281522734737
46.827,0.013754929462997886
46.827999999999996,0.019163144749430438
46.829,0.02219846058292246
46.83,0.022507309571463085
46.830999999999996,0.020188286028843035
