Czas,AbsSum,Sum
57.988,0.010646511591733325,0.010646511591733325
57.989,0.011274360931784893,0.011274360931784893
57.99,0.009638710865491822,0.009638710865491822
57.991,0.005931246302833707,0.005931246302833707
57.992,0.0009816897519561993,0.0009816897519561993
57.993,0.003919410830047018,-0.003919410830047018
57.994,0.007373757624577329,-0.007373757624577329
57.995,0.008298289841237325,-0.008298289841237325
57.996,0.006282191648684509,-0.006282191648684509
57.997,0.0017579151791300579,-0.0017579151791300579
57.998,0.004076751767055785,0.004076751767055785
57.999,0.009569431155045405,0.009569431155045405
58.0,0.013066131685766976,0.013066131685766976
58.001,0.01337111556734548,0.01337111556734548
58.001999999999995,0.010077777905577406,0.010077777905577406
58.003,0.0036775344508046207,0.0036775344508046207
58.004,0.004575563885955144,-0.004575563885955144
58.004999999999995,0.012992672436235945,-0.012992672436235945
58.006,0.019865704922352463,-0.019865704922352463
58.007,0.023850113504857662,-0.023850113504857662
58.007999999999996,0.024218102985697838,-0.024218102985697838
58.009,0.020936971245621685,-0.020936971245621685
58.01,0.014586023713267742,-0.014586023713267742
58.010999999999996,0.0061701495627483945,-0.0061701495627483945
58.012,0.0030955578706456373,0.0030955578706456373
58.013,0.01196990828511558,0.01196990828511558
58.013999999999996,0.019312699523322138,0.019312699523322138
58.015,0.024166175615840717,0.024166175615840717
58.016,0.025824454248820506,0.025824454248820506
58.016999999999996,0.02392165909557257,0.02392165909557257
58.018,0.01854326900547857,0.01854326900547857
58.019,0.01032857692407289,0.01032857692407289
58.019999999999996,0.0005040694602578468,0.0005040694602578468
58.021,0.009215137888936738,-0.009215137888936738
58.022,0.01688874224623872,-0.01688874224623872
58.022999999999996,0.02075650335912801,-0.02075650335912801
58.024,0.019699164290122036,-0.019699164290122036
58.025,0.013623762676891233,-0.013623762676891233
58.025999999999996,0.0036364024721619597,-0.0036364024721619597
58.027,0.008091387949651876,0.008091387949651876
58.028,0.01877290089266133,0.01877290089266133
58.028999999999996,0.02568314322064264,0.02568314322064264
58.03,0.026888769377468272,0.026888769377468272
58.031,0.021820878490626514,0.021820878490626514
58.032,0.011508165386113012,0.011508165386113012
58.033,0.0016235897558969754,-0.0016235897558969754
58.034,0.014354610665334507,-0.014354610665334507
58.035,0.023522099280566235,-0.023522099280566235
58.036,0.02688210668731592,-0.02688210668731592
58.037,0.023732623517140755,-0.023732623517140755
58.038,0.01511196767842385,-0.01511196767842385
58.039,0.003509106633305611,-0.003509106633305611
58.04,0.007833120541512329,0.007833120541512329
58.041,0.01581958834262554,0.01581958834262554
58.042,0.018346718766245933,0.018346718766245933
58.043,0.014845741419598497,0.014845741419598497
58.044,0.006375887801864089,0.006375887801864089
58.045,0.004744728868663156,-0.004744728868663156
58.046,0.015644914438824528,-0.015644914438824528
58.047,0.023721529616624132,-0.023721529616624132
58.048,0.027329675805420815,-0.027329675805420815
58.049,0.026146976981583026,-0.026146976981583026
58.05,0.02112580851113101,-0.02112580851113101
58.051,0.014077261408661255,-0.014077261408661255
58.052,0.007040085654376397,-0.007040085654376397
58.053,0.001643528214956064,-0.001643528214956064
58.054,0.0013397357626293155,0.0013397357626293155
58.055,0.0021275413876991134,0.0021275413876991134
58.056,0.001732799847248509,0.001732799847248509
58.057,0.0015268879555872705,0.0015268879555872705
58.058,0.002719165712306809,0.002719165712306809
58.059,0.0059242724308193025,0.0059242724308193025
58.06,0.010947991456685053,0.010947991456685053
58.061,0.01684377633919627,0.01684377633919627
58.062,0.02220369158007863,0.02220369158007863
58.063,0.025578466516905884,0.025578466516905884
58.064,0.025891678662843483,0.025891678662843483
58.065,0.02272816959066099,0.02272816959066099
58.065999999999995,0.016426947390846592,0.016426947390846592
58.067,0.00797398007660466,0.00797398007660466
58.068,0.0012521570766849137,-0.0012521570766849137
58.068999999999996,0.009796034624658207,-0.009796034624658207
58.07,0.016415313167087397,-0.016415313167087397
58.071,0.020282505810746046,-0.020282505810746046
58.071999999999996,0.02107406337049478,-0.02107406337049478
58.073,0.018957652556644295,-0.018957652556644295
58.074,0.014509618385905565,-0.014509618385905565
58.074999999999996,0.008597532865846216,-0.008597532865846216
58.076,0.0022516900112522107,-0.0022516900112522107
58.077,0.0034660281609284233,0.0034660281609284233
58.077999999999996,0.007597317132709265,0.007597317132709265
58.079,0.009426495475175094,0.009426495475175094
58.08,0.008611336136124883,0.008611336136124883
58.080999999999996,0.005278414534814726,0.005278414534814726
58.082,4.721055856845053e-05,4.721055856845053e-05
58.083,0.0060466842467035865,-0.0060466842467035865
58.083999999999996,0.011736271763943417,-0.011736271763943417
58.085,0.015789322454858683,-0.015789322454858683
58.086,0.017296935716652816,-0.017296935716652816
58.086999999999996,0.01590686067370481,-0.01590686067370481
58.088,0.011929097480959957,-0.011929097480959957
58.089,0.006271754376986655,-0.006271754376986655
58.089999999999996,0.00021316660715730833,-0.00021316660715730833
58.091,0.004933059897517327,0.004933059897517327
58.092,0.008167263926842524,0.008167263926842524
58.092999999999996,0.009065913319469312,0.009065913319469312
58.094,0.007878933107124507,0.007878933107124507
58.095,0.005433199234204068,0.005433199234204068
58.096,0.002872025785037897,0.002872025785037897
58.097,0.0013101326909851448,0.0013101326909851448
58.098,0.0015078870836507418,0.0015078870836507418
58.099,0.0036598835212459636,0.0036598835212459636
58.1,0.007354639766074915,0.007354639766074915
58.101,0.011707652214016344,0.011707652214016344
58.102,0.015617670602337168,0.015617670602337168
58.103,0.018062801379456664,0.018062801379456664
58.104,0.01834867001606639,0.01834867001606639
58.105,0.016244741410338746,0.016244741410338746
58.106,0.011986719207252118,0.011986719207252118
58.107,0.006166894861544597,0.006166894861544597
58.108,0.00043497130455477813,-0.00043497130455477813
58.109,0.007019522547301673,-0.007019522547301673
58.11,0.012888387346702206,-0.012888387346702206
58.111,0.017500479025867627,-0.017500479025867627
58.112,0.02047715310319426,-0.02047715310319426
58.113,0.02158789184839956,-0.02158789184839956
58.114,0.020748145620861535,-0.020748145620861535
58.115,0.0180437632422337,-0.0180437632422337
58.116,0.013771104170903967,-0.013771104170903967
58.117,0.008461162736242221,-0.008461162736242221
58.118,0.002850810931752714,-0.002850810931752714
58.119,0.0022210431685140766,0.0022210431685140766
58.12,0.005984409805818432,0.005984409805818432
58.121,0.00793452205323189,0.00793452205323189
58.122,0.007989089693990207,0.007989089693990207
58.123,0.006542285278956863,0.006542285278956863
58.124,0.004377689016667807,0.004377689016667807
58.125,0.0024481748769735125,0.0024481748769735125
58.126,0.0015802934490351697,0.0015802934490351697
58.126999999999995,0.0021954115967248128,0.0021954115967248128
58.128,0.00414482484089001,0.00414482484089001
58.129,0.006726234438843232,0.006726234438843232
58.129999999999995,0.00889191398080822,0.00889191398080822
58.131,0.009592849360582259,0.009592849360582259
58.132,0.008151154045228967,0.008151154045228967
58.132999999999996,0.0045348180257462276,0.0045348180257462276
58.134,0.0005667137967392377,-0.0005667137967392377
58.135,0.005906215669745005,-0.005906215669745005
58.135999999999996,0.010042437690545207,-0.010042437690545207
58.137,0.011794232465120395,-0.011794232465120395
58.138,0.010638413694925044,-0.010638413694925044
58.138999999999996,0.006915834184922288,-0.006915834184922288
58.14,0.001767783153597225,-0.001767783153597225
58.141,0.0031887731335356094,0.0031887731335356094
58.141999999999996,0.00635160833923276,0.00635160833923276
58.143,0.006635726606371493,0.006635726606371493
58.144,0.0038256620258317687,0.0038256620258317687
58.144999999999996,0.00133966421829752,-0.00133966421829752
58.146,0.007381885247505482,-0.007381885247505482
58.147,0.012533106188822205,-0.012533106188822205
58.147999999999996,0.015278758149613433,-0.015278758149613433
58.149,0.014820092049676409,-0.014820092049676409
58.15,0.011308568350617394,-0.011308568350617394
58.150999999999996,0.005778617436958438,-0.005778617436958438
58.152,0.00019639288811103316,0.00019639288811103316
58.153,0.005010332094626933,0.005010332094626933
58.153999999999996,0.007526529839084824,0.007526529839084824
58.155,0.007413754391114199,0.007413754391114199
58.156,0.00521094940666826,0.00521094940666826
58.157,0.0021068276483543836,0.0021068276483543836
58.158,0.0004855321949413942,-0.0004855321949413942
58.159,0.001413393596170557,-0.001413393596170557
58.16,0.00016702684259848493,-0.00016702684259848493
58.161,0.0029625912253211507,0.0029625912253211507
58.162,0.006995620557089306,0.006995620557089306
58.163,0.010598452307525126,0.010598452307525126
58.164,0.012523377105626267,0.012523377105626267
58.165,0.01200419035057608,0.01200419035057608
58.166,0.008980361155716623,0.008980361155716623
58.167,0.004085843969698873,0.004085843969698873
58.168,0.0015790624340968923,-0.0015790624340968923
58.169,0.006802347555571428,-0.006802347555571428
58.17,0.0106138087208425,-0.0106138087208425
58.171,0.012519222280333902,-0.012519222280333902
58.172,0.012547589869208932,-0.012547589869208932
58.173,0.011116034531333816,-0.011116034531333816
58.174,0.008783596265468444,-0.008783596265468444
58.175,0.006002085098953417,-0.006002085098953417
58.176,0.002966439092563785,-0.002966439092563785
58.177,0.00037818002246647257,0.00037818002246647257
58.178,0.004182250272360369,0.004182250272360369
58.179,0.008463216719686063,0.008463216719686063
58.18,0.012909146333427863,0.012909146333427863
58.181,0.016813689619205482,0.016813689619205482
58.182,0.019193161671332604,0.019193161671332604
58.183,0.019065326708141074,0.019065326708141074
58.184,0.015801568996356916,0.015801568996356916
58.185,0.009425580627615499,0.009425580627615499
58.186,0.0007385605312834033,0.0007385605312834033
58.187,0.008796860988504672,-0.008796860988504672
58.188,0.017400852054108882,-0.017400852054108882
58.189,0.023453839594127848,-0.023453839594127848
58.19,0.02595886095338571,-0.02595886095338571
58.190999999999995,0.02483581503423512,-0.02483581503423512
58.192,0.0209426767727102,-0.0209426767727102
58.193,0.01580510266871651,-0.01580510266871651
58.193999999999996,0.011132268000167363,-0.011132268000167363
58.195,0.008270560420836019,-0.008270560420836019
58.196,0.007772015388005739,-0.007772015388005739
58.196999999999996,0.009221105306738024,-0.009221105306738024
58.198,0.011381366666969171,-0.011381366666969171
58.199,0.01261885060840503,-0.01261885060840503
58.199999999999996,0.01146710203875131,-0.01146710203875131
58.201,0.007149405096349865,-0.007149405096349865
58.202,0.00011459964338929471,0.00011459964338929471
58.202999999999996,0.009122100066500443,0.009122100066500443
58.204,0.01802040523385735,0.01802040523385735
58.205,0.02485578293276428,0.02485578293276428
58.205999999999996,0.02816213516241933,0.02816213516241933
58.207,0.027400069015901952,0.027400069015901952
58.208,0.02310528076248776,0.02310528076248776
58.208999999999996,0.016699722068909444,0.016699722068909444
58.21,0.010028563808684592,0.010028563808684592
58.211,0.004774441811836001,0.004774441811836001
58.211999999999996,0.0019389207707828271,0.0019389207707828271
58.213,0.001557311699327543,0.001557311699327543
58.214,0.0027353250243413326,0.0027353250243413326
58.214999999999996,0.003990587727127916,0.003990587727127916
58.216,0.0037836650706988286,0.0037836650706988286
58.217,0.0010639172064057145,0.0010639172064057145
58.217999999999996,0.004346107198303292,-0.004346107198303292
58.219,0.011648702843744781,-0.011648702843744781
58.22,0.019279537012294,-0.019279537012294
58.221,0.025355542496323075,-0.025355542496323075
58.222,0.028217935673365606,-0.028217935673365606
58.223,0.026901912100989973,-0.026901912100989973
58.224,0.021395145703938453,-0.021395145703938453
58.225,0.01262014885810749,-0.01262014885810749
58.226,0.0021649117239558547,-0.0021649117239558547
58.227,0.008138174813110775,0.008138174813110775
58.228,0.016647404515995477,0.016647404515995477
58.229,0.022233389690487815,0.022233389690487815
58.23,0.024411172478463774,0.024411172478463774
58.231,0.02327866774143112,0.02327866774143112
58.232,0.0193231390313479,0.0193231390313479
58.233,0.013194178742608673,0.013194178742608673
58.234,0.005538011432656112,0.005538011432656112
58.235,0.003052168452092602,-0.003052168452092602
58.236,0.01197433218765256,-0.01197433218765256
58.237,0.020503059017318217,-0.020503059017318217
58.238,0.02770890165675843,-0.02770890165675843
58.239,0.03248827854756431,-0.03248827854756431
58.24,0.03373599627391617,-0.03373599627391617
58.241,0.03063020709915909,-0.03063020709915909
58.242,0.022943479888535116,-0.022943479888535116
58.243,0.011266149933289444,-0.011266149933289444
58.244,0.0029582223400232274,0.0029582223400232274
58.245,0.017632808005148156,0.017632808005148156
58.246,0.030415360165073704,0.030415360165073704
58.247,0.03923440923916929,0.03923440923916929
58.248,0.042770689711251794,0.042770689711251794
58.249,0.040762069203692075,0.040762069203692075
58.25,0.034038102805715544,0.034038102805715544
58.251,0.024270325506138196,0.024270325506138196
58.251999999999995,0.013510939107426305,0.013510939107426305
58.253,0.0036573390760966163,0.0036573390760966163
58.254,0.003998518227979673,-0.003998518227979673
58.254999999999995,0.009005935346648085,-0.009005935346648085
58.256,0.011716783199489152,-0.011716783199489152
58.257,0.013001171940464714,-0.013001171940464714
58.257999999999996,0.013824281927487272,-0.013824281927487272
58.259,0.014833130902618591,-0.014833130902618591
58.26,0.016094743502498652,-0.016094743502498652
58.260999999999996,0.01707351737919775,-0.01707351737919775
58.262,0.016853597821722258,-0.016853597821722258
58.263,0.014528849316677405,-0.014528849316677405
58.263999999999996,0.00962566922743805,-0.00962566922743805
58.265,0.0024107903717606313,-0.0024107903717606313
58.266,0.0060287878420004,0.0060287878420004
58.266999999999996,0.01397510319013807,0.01397510319013807
58.268,0.0194940756208845,0.0194940756208845
58.269,0.020960307220032802,0.020960307220032802
58.269999999999996,0.01753953138359242,0.01753953138359242
58.271,0.009485487496865811,0.009485487496865811
58.272,0.0018406746027680343,-0.0018406746027680343
58.272999999999996,0.014242799512219748,-0.014242799512219748
58.274,0.02518754400562493,-0.02518754400562493
58.275,0.0324001826159246,-0.0324001826159246
58.275999999999996,0.03440575979311684,-0.03440575979311684
58.277,0.030878784912746957,-0.030878784912746957
58.278,0.02271536220691047,-0.02271536220691047
58.278999999999996,0.011812288321231199,-0.011812288321231199
58.28,0.0006094176082565702,-0.0006094176082565702
58.281,0.008492991363874493,0.008492991363874493
58.282,0.013703177800149591,0.013703177800149591
58.283,0.014259967386480835,0.014259967386480835
58.284,0.010610322391412262,0.010610322391412262
58.285,0.004300598755619255,0.004300598755619255
58.286,0.002395992198504694,-0.002395992198504694
58.287,0.00703386395835306,-0.00703386395835306
58.288,0.007607027276083496,-0.007607027276083496
58.289,0.003077149150244812,-0.003077149150244812
58.29,0.006310458058420495,0.006310458058420495
58.291,0.01900843749536434,0.01900843749536434
58.292,0.03246690678885208,0.03246690678885208
58.293,0.04369606933155196,0.04369606933155196
58.294,0.04996870778835079,0.04996870778835079
58.295,0.04949538887424372,0.04949538887424372
58.296,0.04189980776673557,0.04189980776673557
58.297,0.028360865186854597,0.028360865186854597
58.298,0.01136639852722651,0.01136639852722651
58.299,0.005876278430337286,-0.005876278430337286
58.3,0.020231639498719763,-0.020231639498719763
58.301,0.029423377444482875,-0.029423377444482875
58.302,0.03260183159518287,-0.03260183159518287
58.303,0.030526311175444285,-0.030526311175444285
58.304,0.02529980141053731,-0.02529980141053731
58.305,0.019720767630122368,-0.019720767630122368
58.306,0.016431799902163577,-0.016431799902163577
58.307,0.017111685889111383,-0.017111685889111383
58.308,0.021952658612397365,-0.021952658612397365
58.309,0.029585581376690148,-0.029585581376690148
58.31,0.03748363905949638,-0.03748363905949638
58.311,0.042728820215921205,-0.042728820215921205
58.312,0.04291078438132347,-0.04291078438132347
58.313,0.03688230161271849,-0.03688230161271849
58.314,0.0251362160883478,-0.0251362160883478
58.315,0.009685328356320846,-0.009685328356320846
58.315999999999995,0.00651693092335906,0.00651693092335906
58.317,0.020430651413067952,0.020430651413067952
58.318,0.02978573160901319,0.02978573160901319
58.318999999999996,0.0336677933377262,0.0336677933377262
58.32,0.03265136534223129,0.03265136534223129
58.321,0.028449435352674395,0.028449435352674395
58.321999999999996,0.02321116928072641,0.02321116928072641
58.323,0.01871851727964064,0.01871851727964064
58.324,0.015766243229661945,0.015766243229661945
58.324999999999996,0.013945543692434998,0.013945543692434998
58.326,0.011909296211983113,0.011909296211983113
58.327,0.008024903160471284,0.008024903160471284
58.327999999999996,0.0011780695793438543,0.0011780695793438543
58.329,0.00857162004158855,-0.00857162004158855
58.33,0.01974060547014535,-0.01974060547014535
58.330999999999996,0.029699337825621785,-0.029699337825621785
58.332,0.03541765978849415,-0.03541765978849415
58.333,0.034447443798137634,-0.034447443798137634
58.333999999999996,0.025816298071281142,-0.025816298071281142
58.335,0.010519353100037493,-0.010519353100037493
58.336,0.008582292086258228,0.008582292086258228
58.336999999999996,0.02745629005133855,0.02745629005133855
58.338,0.041988637155659314,0.041988637155659314
58.339,0.04913258424691934,0.04913258424691934
58.339999999999996,0.047753074619921204,0.047753074619921204
58.341,0.03889566328357776,0.03889566328357776
58.342,0.025393532533711155,0.025393532533711155
58.342999999999996,0.010941919248699803,0.010941919248699803
58.344,0.001056344087714026,-0.001056344087714026
58.345,0.008496628317313317,-0.008496628317313317
58.346,0.011104464208448376,-0.011104464208448376
58.347,0.010329993576512009,-0.010329993576512009
58.348,0.008657580569823919,-0.008657580569823919
58.349,0.00858105180429905,-0.00858105180429905
58.35,0.011606974169878844,-0.011606974169878844
58.351,0.017636224878115454,-0.017636224878115454
58.352,0.02494196956154728,-0.02494196956154728
58.353,0.030755224592427046,-0.030755224592427046
58.354,0.03225828852623451,-0.03225828852623451
58.355,0.027643715360868956,-0.027643715360868956
58.356,0.016870983021620968,-0.016870983021620968
58.357,0.0018532352177169592,-0.0018532352177169592
58.358,0.014001970410855564,0.014001970410855564
58.359,0.026756631366195105,0.026756631366195105
58.36,0.033100619684208285,0.033100619684208285
58.361,0.031330229621731376,0.031330229621731376
58.362,0.021835059336591967,0.021835059336591967
58.363,0.006946977546665394,0.006946977546665394
58.364,0.009783602147794874,-0.009783602147794874
58.365,0.024634030635403984,-0.024634030635403984
58.366,0.03473202764314104,-0.03473202764314104
58.367,0.03873139120345192,-0.03873139120345192
58.368,0.03694897679817099,-0.03694897679817099
58.369,0.030962627926007093,-0.030962627926007093
58.37,0.02285360647387215,-0.02285360647387215
58.371,0.014389705609799491,-0.014389705609799491
58.372,0.006449375626226349,-0.006449375626226349
58.373,0.0011155408738906753,0.0011155408738906753
58.374,0.00915130806134842,0.00915130806134842
58.375,0.01855672856450467,0.01855672856450467
58.376,0.029587417666986547,0.029587417666986547
58.376999999999995,0.04139583741676516,0.04139583741676516
58.378,0.05200708911450975,0.05200708911450975
58.379,0.0587712229514871,0.0587712229514871
58.379999999999995,0.059157508002470924,0.059157508002470924
58.381,0.05162705949546988,0.05162705949546988
58.382,0.036282880176065464,0.036282880176065464
58.382999999999996,0.015063565414476666,0.015063565414476666
58.384,0.008605116678031237,-0.008605116678031237
58.385,0.0306092646721518,-0.0306092646721518
58.385999999999996,0.04715905733966128,-0.04715905733966128
58.387,0.05571080344377983,-0.05571080344377983
58.388,0.05552980827190353,-0.05552980827190353
58.388999999999996,0.04774505827815209,-0.04774505827815209
58.39,0.03490939664385239,-0.03490939664385239
58.391,0.02022846443397845,-0.02022846443397845
58.391999999999996,0.006709548781601877,-0.006709548781601877
58.393,0.0035175204191691682,0.0035175204191691682
58.394,0.009535222527103072,0.009535222527103072
58.394999999999996,0.011584386516813521,0.011584386516813521
58.396,0.010704897491419911,0.010704897491419911
58.397,0.008239172512414591,0.008239172512414591
58.397999999999996,0.005382800399653103,0.005382800399653103
58.399,0.0029163807833196553,0.0029163807833196553
58.4,0.0011614417277864607,0.0011614417277864607
58.400999999999996,0.00011015258209433771,0.00011015258209433771
58.402,0.00038037483519664253,-0.00038037483519664253
58.403,0.0004431252047506711,-0.0004431252047506711
58.403999999999996,0.00017318709144028966,-0.00017318709144028966
58.405,0.00028904618930534033,0.00028904618930534033
58.406,0.0006355705192250287,0.0006355705192250287
58.407,0.00033046619923503577,0.00033046619923503577
58.408,0.0013093848249512324,-0.0013093848249512324
58.409,0.0048784405425023455,-0.0048784405425023455
58.41,0.01055793333000667,-0.01055793333000667
58.411,0.017830072388066644,-0.017830072388066644
58.412,0.025371139357889663,-0.025371139357889663
58.413,0.031217366220054173,-0.031217366220054173
58.414,0.03320536425985887,-0.03320536425985887
58.415,0.029583344716184932,-0.029583344716184932
58.416,0.019610571963210675,-0.019610571963210675
58.417,0.003942975838958107,-0.003942975838958107
58.418,0.015345299362755936,0.015345299362755936
58.419,0.03514537935031212,0.03514537935031212
58.42,0.05201241762747757,0.05201241762747757
58.421,0.062983085980717,0.062983085980717
58.422,0.0662709771589487,0.0662709771589487
58.423,0.06163469451784313,0.06163469451784313
58.424,0.0503181984109734,0.0503181984109734
58.425,0.034601490006384905,0.034601490006384905
58.426,0.017123999349185962,0.017123999349185962
58.427,0.00020979405465776076,0.00020979405465776076
58.428,0.014590102780744884,-0.014590102780744884
58.429,0.026611700124517752,-0.026611700124517752
58.43,0.03585274961062701,-0.03585274961062701
58.431,0.04253808445171207,-0.04253808445171207
58.432,0.04667966818820709,-0.04667966818820709
58.433,0.04783117575905601,-0.04783117575905601
58.434,0.045155774022547814,-0.045155774022547814
58.435,0.037797566647127946,-0.037797566647127946
58.436,0.02541943315014315,-0.02541943315014315
58.437,0.008690746192665761,-0.008690746192665761
58.438,0.010491275185516472,0.010491275185516472
58.439,0.029180509390621695,0.029180509390621695
58.44,0.043958096596129106,0.043958096596129106
58.440999999999995,0.051758826359867935,0.051758826359867935
58.442,0.05070132770920497,0.05070132770920497
58.443,0.040657447834735766,0.040657447834735766
58.443999999999996,0.023368065830244245,0.023368065830244245
58.445,0.0020519589901249464,0.0020519589901249464
58.446,0.01938510723468611,-0.01938510723468611
58.446999999999996,0.0373063154190481,-0.0373063154190481
58.448,0.049178662581400585,-0.049178662581400585
58.449,0.054042971827706045,-0.054042971827706045
58.449999999999996,0.05249686186891615,-0.05249686186891615
58.451,0.046228242608470894,-0.046228242608470894
58.452,0.037281117440221695,-0.037281117440221695
58.452999999999996,0.027316215495033207,-0.027316215495033207
58.454,0.01712024434085837,-0.01712024434085837
58.455,0.006523718931746745,-0.006523718931746745
58.455999999999996,0.005258831109784463,0.005258831109784463
58.457,0.019001254103537896,0.019001254103537896
58.458,0.03478745897073182,0.03478745897073182
58.458999999999996,0.05154049614503914,0.05154049614503914
58.46,0.06695204694778467,0.06695204694778467
58.461,0.07787579285276792,0.07787579285276792
58.461999999999996,0.08109651541206818,0.08109651541206818
58.463,0.07426143838908145,0.07426143838908145
58.464,0.05670005897485675,0.05670005897485675
58.464999999999996,0.02988099929560805,0.02988099929560805
58.466,0.0026489759462397975,-0.0026489759462397975
58.467,0.035857699767550905,-0.035857699767550905
58.467999999999996,0.06422227557394326,-0.06422227557394326
58.469,0.08288929395036204,-0.08288929395036204
58.47,0.08872197544784523,-0.08872197544784523
58.471,0.08098553318725835,-0.08098553318725835
58.472,0.06151235569251925,-0.06151235569251925
58.473,0.03431327069468629,-0.03431327069468629
58.474,0.004728216676844995,-0.004728216676844995
58.475,0.021690138591750625,0.021690138591750625
58.476,0.040313109131189205,0.040313109131189205
58.477,0.048348249166662756,0.048348249166662756
58.478,0.04533573691675581,0.04533573691675581
58.479,0.03312920861697424,0.03312920861697424
58.48,0.01537250658505298,0.01537250658505298
58.481,0.003407304597252909,-0.003407304597252909
58.482,0.018884955752488428,-0.018884955752488428
58.483,0.027950582799352308,-0.027950582799352308
58.484,0.029412049169676466,-0.029412049169676466
58.485,0.024211168823606997,-0.024211168823606997
58.486,0.015089885840702016,-0.015089885840702016
58.487,0.005777202419242127,-0.005777202419242127
58.488,0.00010498309632204292,0.00010498309632204292
58.489,0.00013297037606491426,0.00013297037606491426
58.49,0.006131808097644691,-0.006131808097644691
58.491,0.01689684922175017,-0.01689684922175017
58.492,0.028534702262161964,-0.028534702262161964
58.493,0.03654678254501584,-0.03654678254501584
58.494,0.03685276028678841,-0.03685276028678841
58.495,0.02705344961118814,-0.02705344961118814
58.496,0.007300429464881578,-0.007300429464881578
58.497,0.019502077620355118,0.019502077620355118
58.498,0.048258490210679246,0.048258490210679246
58.499,0.07288448372723802,0.07288448372723802
58.5,0.08783733335466647,0.08783733335466647
58.501,0.0895536844255362,0.0895536844255362
58.501999999999995,0.07738906593613175,0.07738906593613175
58.503,0.0537893944537293,0.0537893944537293
58.504,0.02364398874532408,0.02364398874532408
58.504999999999995,0.006993124852329949,-0.006993124852329949
58.506,0.03244428987022489,-0.03244428987022489
58.507,0.0487713745876738,-0.0487713745876738
58.507999999999996,0.05458358782998023,-0.05458358782998023
58.509,0.05108923025282394,-0.05108923025282394
58.51,0.04142472735963093,-0.04142472735963093
58.510999999999996,0.029511097434624954,-0.029511097434624954
58.512,0.018819061042600345,-0.018819061042600345
58.513,0.011429463398211189,-0.011429463398211189
58.513999999999996,0.007657363544259757,-0.007657363544259757
58.515,0.006308506736539261,-0.006308506736539261
58.516,0.005424379575478446,-0.005424379575478446
58.516999999999996,0.0032177070634238575,-0.0032177070634238575
58.518,0.0011462754803900203,0.0011462754803900203
58.519,0.007194376204043675,0.007194376204043675
58.519999999999996,0.013324078815777808,0.013324078815777808
58.521,0.01743029919105074,0.01743029919105074
58.522,0.017737565150469693,0.017737565150469693
58.522999999999996,0.013528917755085162,0.013528917755085162
58.524,0.005507632096112414,0.005507632096112414
58.525,0.004335895787342561,-0.004335895787342561
58.525999999999996,0.013302948687190116,-0.013302948687190116
58.527,0.018808063410386516,-0.018808063410386516
58.528,0.01916308736813831,-0.01916308736813831
58.528999999999996,0.014066798358769162,-0.014066798358769162
58.53,0.004654856377071771,-0.004654856377071771
58.531,0.00687877381384825,0.00687877381384825
58.532,0.01793471827997747,0.01793471827997747
58.533,0.026202107210975625,0.026202107210975625
58.534,0.030170075598480603,0.030170075598480603
58.535,0.029323094848847618,0.029323094848847618
58.536,0.02401710651853362,0.02401710651853362
58.537,0.01515247451449086,0.01515247451449086
58.538,0.003821059390342333,0.003821059390342333
58.539,0.008913377124571725,-0.008913377124571725
58.54,0.0220287430014409,-0.0220287430014409
58.541,0.03439547978104824,-0.03439547978104824
58.542,0.04460232889861573,-0.04460232889861573
58.543,0.05092435258517569,-0.05092435258517569
58.544,0.051549028737029795,-0.051549028737029795
58.545,0.045060559003421465,-0.045060559003421465
58.546,0.031048181615093328,-0.031048181615093328
58.547,0.010608080604853957,-0.010608080604853957
58.548,0.013503723270898405,0.013503723270898405
58.549,0.0372225881438729,0.0372225881438729
58.55,0.05602119505178201,0.05602119505178201
58.551,0.06605473470296595,0.06605473470296595
58.552,0.06527102472422883,0.06527102472422883
58.553,0.054117020940587506,0.054117020940587506
58.554,0.03556688704590418,0.03556688704590418
58.555,0.014396663604096697,0.014396663604096697
58.556,0.004125279711447532,-0.004125279711447532
58.557,0.015756622614989217,-0.015756622614989217
58.558,0.01853889284151636,-0.01853889284151636
58.559,0.013382872091343829,-0.013382872091343829
58.56,0.003767988753053099,-0.003767988753053099
58.561,0.0053791474574499095,0.0053791474574499095
58.562,0.009292796653864626,0.009292796653864626
58.563,0.004959489433382306,0.004959489433382306
58.564,0.007819553520867654,-0.007819553520867654
58.565,0.026248885870145146,-0.026248885870145146
58.565999999999995,0.04531847043683697,-0.04531847043683697
58.567,0.05931112681632964,-0.05931112681632964
58.568,0.06356941547097471,-0.06356941547097471
58.568999999999996,0.055965684497370584,-0.055965684497370584
58.57,0.037610077603331134,-0.037610077603331134
58.571,0.012572298905716752,-0.012572298905716752
58.571999999999996,0.013294538591924183,0.013294538591924183
58.573,0.03405720890000391,0.03405720890000391
58.574,0.0454007369948416,0.0454007369948416
58.574999999999996,0.045800072123152194,0.045800072123152194
58.576,0.03681902968767046,0.03681902968767046
58.577,0.022471660431026518,0.022471660431026518
58.577999999999996,0.007875093065273618,0.007875093065273618
58.579,0.0023649065937098716,-0.0023649065937098716
58.58,0.005528868474279315,-0.005528868474279315
58.580999999999996,0.0015085715838285124,-0.0015085715838285124
58.582,0.007307914717529346,0.007307914717529346
58.583,0.016912272609353143,0.016912272609353143
58.583999999999996,0.02300495857350587,0.02300495857350587
58.585,0.022349459086697044,0.022349459086697044
58.586,0.013744625594058889,0.013744625594058889
58.586999999999996,0.0016477314683087155,-0.0016477314683087155
58.588,0.020669771655161255,-0.020669771655161255
58.589,0.03906978465555892,-0.03906978465555892
58.589999999999996,0.052640147584494576,-0.052640147584494576
58.591,0.05825689170415736,-0.05825689170415736
58.592,0.05455583300791176,-0.05455583300791176
58.592999999999996,0.04211817022029961,-0.04211817022029961
58.594,0.023192058793381216,-0.023192058793381216
58.595,0.0010950189984196375,-0.0010950189984196375
58.596,0.0205061438472916,0.0205061438472916
58.597,0.038259137993538035,0.038259137993538035
58.598,0.04962052579871742,0.04962052579871742
58.599,0.05314543064361209,0.05314543064361209
58.6,0.048595122553186744,0.048595122553186744
58.601,0.03690522368122062,0.03690522368122062
58.602,0.02004372174464532,0.02004372174464532
58.603,0.0007609741219315422,0.0007609741219315422
58.604,0.017780904238981272,-0.017780904238981272
58.605,0.03249675308126401,-0.03249675308126401
58.606,0.04093733741891259,-0.04093733741891259
58.607,0.04181369379010189,-0.04181369379010189
58.608,0.03534300454863257,-0.03534300454863257
58.609,0.023278999063532257,-0.023278999063532257
58.61,0.008554539266052374,-0.008554539266052374
58.611,0.005425283977521094,0.005425283977521094
58.612,0.01567870267035315,0.01567870267035315
58.613,0.020481670121027144,0.020481670121027144
58.614,0.019875479878136003,0.019875479878136003
58.615,0.01565648719075623,0.01565648719075623
58.616,0.01080703091023934,0.01080703091023934
58.617,0.0085081194058846,0.0085081194058846
58.618,0.01102643174348782,0.01102643174348782
58.619,0.018834558692404697,0.018834558692404697
58.62,0.0302734725036024,0.0302734725036024
58.621,0.04190781296829019,0.04190781296829019
58.622,0.04950412293862162,0.04950412293862162
58.623,0.049350816454686336,0.049350816454686336
58.624,0.03950885253986819,0.03950885253986819
58.625,0.020582330519912328,0.020582330519912328
58.626,0.0042649497191735745,-0.0042649497191735745
58.626999999999995,0.0300871767875838,-0.0300871767875838
58.628,0.05151223803262229,-0.05151223803262229
58.629,0.06426479346595743,-0.06426479346595743
58.629999999999995,0.06638036269245456,-0.06638036269245456
58.631,0.05872264837776382,-0.05872264837776382
58.632,0.044633727678254645,-0.044633727678254645
58.632999999999996,0.028823923126521878,-0.028823923126521878
58.634,0.015854728869096116,-0.015854728869096116
58.635,0.008702339292049237,-0.008702339292049237
58.635999999999996,0.007865451336797136,-0.007865451336797136
58.637,0.011305288533021197,-0.011305288533021197
58.638,0.01523477061640643,-0.01523477061640643
58.638999999999996,0.015495936308109188,-0.015495936308109188
58.64,0.0090713957138067,-0.0090713957138067
58.641,0.0047694676172577635,0.0047694676172577635
58.641999999999996,0.02407049966113124,0.02407049966113124
58.643,0.04467285690533923,0.04467285690533923
58.644,0.061432797917561205,0.061432797917561205
58.644999999999996,0.06978370969098516,0.06978370969098516
58.646,0.06714087225553729,0.06714087225553729
58.647,0.053698661853531636,0.053698661853531636
58.647999999999996,0.03236702107920984,0.03236702107920984
58.649,0.00787237670177283,0.00787237670177283
58.65,0.014682933916265488,-0.014682933916265488
58.650999999999996,0.031336263424041826,-0.031336263424041826
58.652,0.040368051323779346,-0.040368051323779346
58.653,0.042642467964605135,-0.042642467964605135
58.653999999999996,0.041083988540630466,-0.041083988540630466
58.655,0.039469710438419243,-0.039469710438419243
58.656,0.04094003167397463,-0.04094003167397463
58.657,0.046723819499352615,-0.046723819499352615
58.658,0.05550896801187532,-0.05550896801187532
58.659,0.06368612778450257,-0.06368612778450257
58.66,0.06641639237224926,-0.06641639237224926
58.661,0.05920950004456989,-0.05920950004456989
58.662,0.03952981498450132,-0.03952981498450132
58.663,0.007925417014344087,-0.007925417014344087
58.664,0.03169189580503802,0.03169189580503802
58.665,0.07274085324195764,0.07274085324195764
58.666,0.10747686730835379,0.10747686730835379
58.667,0.12890545576659063,0.12890545576659063
58.668,0.1325728271664219,0.1325728271664219
58.669,0.11773154114759095,0.11773154114759095
58.67,0.08755213478682154,0.08755213478682154
58.671,0.04831896305552222,0.04831896305552222
58.672,0.00783286727939883,0.00783286727939883
58.673,0.026536864846442732,-0.026536864846442732
58.674,0.049615725046712654,-0.049615725046712654
58.675,0.059526106835036174,-0.059526106835036174
58.676,0.05784545315055381,-0.05784545315055381
58.677,0.04880900228131358,-0.04880900228131358
58.678,0.03781717820749636,-0.03781717820749636
58.679,0.029701557638068077,-0.029701557638068077
58.68,0.02726442143291796,-0.02726442143291796
58.681,0.030518017288871678,-0.030518017288871678
58.682,0.036836751368294174,-0.036836751368294174
58.683,0.04196044138765026,-0.04196044138765026
58.684,0.0415298595818049,-0.0415298595818049
58.685,0.032672982389904154,-0.032672982389904154
58.686,0.015141012289799907,-0.015141012289799907
58.687,0.008374760195896343,0.008374760195896343
58.688,0.032867678090391164,0.032867678090391164
58.689,0.052415301934690406,0.052415301934690406
58.69,0.0619418935418239,0.0619418935418239
58.690999999999995,0.05880630041138742,0.05880630041138742
58.692,0.043713820424272576,0.043713820424272576
58.693,0.02064246415272054,0.02064246415272054
58.693999999999996,0.004231992904801995,-0.004231992904801995
58.695,0.024318521690628255,-0.024318521690628255
58.696,0.03457751344691268,-0.03457751344691268
58.696999999999996,0.03307181156398901,-0.03307181156398901
58.698,0.021608527395248777,-0.021608527395248777
58.699,0.00524079289369044,-0.00524079289369044
58.699999999999996,0.009257806410140538,0.009257806410140538
58.701,0.015512428276195693,0.015512428276195693
58.702,0.009627966715052404,0.009627966715052404
58.702999999999996,0.008409932093786954,-0.008409932093786954
58.704,0.03446835645977369,-0.03446835645977369
58.705,0.06125731410757849,-0.06125731410757849
58.705999999999996,0.08032013669571655,-0.08032013669571655
58.707,0.0844583238540284,-0.0844583238540284
58.708,0.06988191896718057,-0.06988191896718057
58.708999999999996,0.03744657998288875,-0.03744657998288875
58.71,0.007396772222266702,0.007396772222266702
58.711,0.05593389494291836,0.05593389494291836
58.711999999999996,0.09841585213923366,0.09841585213923366
58.713,0.12653780635881845,0.12653780635881845
58.714,0.13545745804819498,0.13545745804819498
58.714999999999996,0.12479451127616556,0.12479451127616556
58.716,0.09837080690979214,0.09837080690979214
58.717,0.06283400238350424,0.06283400238350424
58.717999999999996,0.025635254669667547,0.025635254669667547
58.719,0.006997835250158388,-0.006997835250158388
58.72,0.03148707633137386,-0.03148707633137386
58.721,0.0473462321399923,-0.0473462321399923
58.722,0.05659274619261034,-0.05659274619261034
58.723,0.06241501483170744,-0.06241501483170744
58.724,0.06760661423865295,-0.06760661423865295
58.725,0.07332572899743635,-0.07332572899743635
58.726,0.07859797596412106,-0.07859797596412106
58.727,0.080707157433809,-0.080707157433809
58.728,0.07630710285287119,-0.07630710285287119
58.729,0.0628439716567392,-0.0628439716567392
58.73,0.03978137573084031,-0.03978137573084031
58.731,0.009197715076759792,-0.009197715076759792
58.732,0.0244559325815712,0.0244559325815712
58.733,0.05536682584160932,0.05536682584160932
58.734,0.07782130827173543,0.07782130827173543
58.735,0.08766244253047445,0.08766244253047445
58.736,0.08331172092170273,0.08331172092170273
58.737,0.06608055738413574,0.06608055738413574
58.738,0.03973277575714764,0.03973277575714764
58.739,0.009487740991554031,0.009487740991554031
58.74,0.019200940037758005,-0.019200940037758005
58.741,0.04173574893741458,-0.04173574893741458
58.742,0.05507789953125183,-0.05507789953125183
58.743,0.057975309235222046,-0.057975309235222046
58.744,0.05079941028018259,-0.05079941028018259
58.745,0.03518083098997811,-0.03518083098997811
58.746,0.013641924707112304,-0.013641924707112304
58.747,0.010658665163993582,0.010658665163993582
58.748,0.03408205015253723,0.03408205015253723
58.749,0.05268722415986707,0.05268722415986707
58.75,0.0625869706343194,0.0625869706343194
58.751,0.060573450004599,0.060573450004599
58.752,0.04496353459365782,0.04496353459365782
58.753,0.016451498444562347,0.016451498444562347
58.754,0.021353003872503988,-0.021353003872503988
58.754999999999995,0.062020319926462994,-0.062020319926462994
58.756,0.09721034388293621,-0.09721034388293621
58.757,0.11833478721846698,-0.11833478721846698
58.757999999999996,0.11863909127880505,-0.11863909127880505
58.759,0.095165694788622,-0.095165694788622
58.76,0.05000468887778477,-0.05000468887778477
58.760999999999996,0.00962943506518385,0.00962943506518385
58.762,0.07265830144159222,0.07265830144159222
58.763,0.12651937810060107,0.12651937810060107
58.763999999999996,0.1600984566109381,0.1600984566109381
58.765,0.16644679467433898,0.16644679467433898
58.766,0.1445327409069106,0.1445327409069106
58.766999999999996,0.09952080297759165,0.09952080297759165
58.768,0.04147356593965346,0.04147356593965346
58.769,0.01718477639604076,-0.01718477639604076
58.769999999999996,0.06475419535303023,-0.06475419535303023
58.771,0.09305438228898749,-0.09305438228898749
58.772,0.09918543240509493,-0.09918543240509493
58.772999999999996,0.08581870282414389,-0.08581870282414389
58.774,0.060011037277441656,-0.060011037277441656
58.775,0.030951082361348508,-0.030951082361348508
58.775999999999996,0.007325504835486149,-0.007325504835486149
58.777,0.004942291226747213,0.004942291226747213
58.778,0.003986728279124139,0.003986728279124139
58.778999999999996,0.007944974217198201,-0.007944974217198201
58.78,0.025573157338187737,-0.025573157338187737
58.781,0.04238205227234963,-0.04238205227234963
58.782,0.05255021716159352,-0.05255021716159352
58.783,0.052459422478677444,-0.052459422478677444
58.784,0.0414152071070363,-0.0414152071070363
58.785,0.021488761973543376,-0.021488761973543376
58.786,0.003342032093183357,0.003342032093183357
58.787,0.02839800121941542,0.02839800121941542
58.788,0.0494554719562801,0.0494554719562801
58.789,0.06354905557352672,0.06354905557352672
58.79,0.06928611762462454,0.06928611762462454
58.791,0.06672065969888191,0.06672065969888191
58.792,0.05696217631081816,0.05696217631081816
58.793,0.04173180463984715,0.04173180463984715
58.794,0.023025686279409714,0.023025686279409714
58.795,0.0029399299439664805,0.0029399299439664805
58.796,0.016394213741799456,-0.016394213741799456
58.797,0.03287509535557941,-0.03287509535557941
58.798,0.04459428233965302,-0.04459428233965302
58.799,0.05012647885005231,-0.05012647885005231
58.8,0.048877906467506754,-0.048877906467506754
58.801,0.04135359598273279,-0.04135359598273279
58.802,0.029193513927965004,-0.029193513927965004
58.803,0.014889675818178537,-0.014889675818178537
58.804,0.0012112308368743391,-0.0012112308368743391
58.805,0.009512661636398599,0.009512661636398599
58.806,0.01602308182422089,0.01602308182422089
58.807,0.018447611650592777,0.018447611650592777
58.808,0.0181663071936157,0.0181663071936157
58.809,0.017243452796473966,0.017243452796473966
58.81,0.01760157580494418,0.01760157580494418
58.811,0.020222142303989124,0.020222142303989124
58.812,0.02466820678240608,0.02466820678240608
58.813,0.029127157523546474,0.029127157523546474
58.814,0.030995331176276935,0.030995331176276935
58.815,0.027830379907585807,0.027830379907585807
58.815999999999995,0.018352004410465972,0.018352004410465972
58.817,0.0031323614178472353,0.0031323614178472353
58.818,0.015296123765447563,-0.015296123765447563
58.818999999999996,0.03300010738280658,-0.03300010738280658
58.82,0.04572903792946133,-0.04572903792946133
58.821,0.05019154861890298,-0.05019154861890298
58.821999999999996,0.04511001924639719,-0.04511001924639719
58.823,0.03169477403791768,-0.03169477403791768
58.824,0.013359640330850424,-0.013359640330850424
58.824999999999996,0.0052528956766474035,0.0052528956766474035
58.826,0.01963833077371401,0.01963833077371401
58.827,0.026754510303872693,0.026754510303872693
58.827999999999996,0.02587694928046519,0.02587694928046519
58.829,0.01870841826177203,0.01870841826177203
58.83,0.008710361299232399,0.008710361299232399
58.830999999999996,0.00011903760997322573,-0.00011903760997322573
58.832,0.004611540730565527,-0.004611540730565527
58.833,0.0034837451523205137,-0.0034837451523205137
58.833999999999996,0.002271566674701784,0.002271566674701784
58.835,0.00978627745274887,0.00978627745274887
58.836,0.015371780534817575,0.015371780534817575
58.836999999999996,0.01586840457403178,0.01586840457403178
58.838,0.009828790598113382,0.009828790598113382
58.839,0.0018723706616192838,-0.0018723706616192838
58.839999999999996,0.016219862707536233,-0.016219862707536233
58.841,0.02898445335248902,-0.02898445335248902
58.842,0.03609789240184302,-0.03609789240184302
58.842999999999996,0.035026338539388024,-0.035026338539388024
58.844,0.025686166044332992,-0.025686166044332992
58.845,0.010589868962040089,-0.010589868962040089
58.846,0.005843614454007354,0.005843614454007354
58.847,0.01861064852574598,0.01861064852574598
58.848,0.023668529818990362,0.023668529818990362
58.849,0.019222178626611477,0.019222178626611477
58.85,0.006347560725730219,0.006347560725730219
58.851,0.011247061776331033,-0.011247061776331033
58.852,0.028254772059156698,-0.028254772059156698
58.853,0.039288610521039956,-0.039288610521039956
58.854,0.040431313635249565,-0.040431313635249565
58.855,0.03035964957361182,-0.03035964957361182
58.856,0.010722699787677972,-0.010722699787677972
58.857,0.014317757209488127,0.014317757209488127
58.858,0.039227756683149054,0.039227756683149054
58.859,0.05857305875320675,0.05857305875320675
58.86,0.06839281059126162,0.06839281059126162
58.861,0.06709653299564278,0.06709653299564278
58.862,0.05566647760981666,0.05566647760981666
58.863,0.037162678410524896,0.037162678410524896
58.864,0.015729852048171507,0.015729852048171507
58.865,0.004566489330894364,-0.004566489330894364
58.866,0.020726671611372285,-0.020726671611372285
58.867,0.03136371818506364,-0.03136371818506364
58.868,0.03670561696528496,-0.03670561696528496
58.869,0.03812400614890514,-0.03812400614890514
58.87,0.03739833759475045,-0.03739833759475045
58.871,0.03598473914344449,-0.03598473914344449
58.872,0.03452837300478474,-0.03452837300478474
58.873,0.03275398877831649,-0.03275398877831649
58.874,0.02973079485516365,-0.02973079485516365
58.875,0.024382217850267226,-0.024382217850267226
58.876,0.016038576938777124,-0.016038576938777124
58.877,0.004831189090250981,-0.004831189090250981
58.878,0.0082053071005554,0.0082053071005554
58.879,0.02134688791666354,0.02134688791666354
58.879999999999995,0.03262478163058035,0.03262478163058035
58.881,0.04034128161094922,0.04034128161094922
58.882,0.04348252759245397,0.04348252759245397
58.882999999999996,0.041900524989152636,0.041900524989152636
58.884,0.03622510655347465,0.03622510655347465
58.885,0.027563967421655795,0.027563967421655795
58.885999999999996,0.01712036050215116,0.01712036050215116
58.887,0.005878719878712963,0.005878719878712963
58.888,0.005527804956680467,-0.005527804956680467
58.888999999999996,0.01673280666978266,-0.01673280666978266
58.89,0.027391722919453482,-0.027391722919453482
58.891,0.03690328100841419,-0.03690328100841419
58.891999999999996,0.04424519997426493,-0.04424519997426493
58.893,0.048034650421992564,-0.048034650421992564
58.894,0.04683938553821079,-0.04683938553821079
58.894999999999996,0.03966302161000459,-0.03966302161000459
58.896,0.026445036048899053,-0.026445036048899053
58.897,0.008385076626362504,-0.008385076626362504
58.897999999999996,0.01206222844019972,0.01206222844019972
58.899,0.031579217050194855,0.031579217050194855
58.9,0.04669415011948261,0.04669415011948261
58.900999999999996,0.054622297120363754,0.054622297120363754
58.902,0.05399209256140204,0.05399209256140204
58.903,0.045225551182859196,0.045225551182859196
58.903999999999996,0.030436831453437813,0.030436831453437813
58.905,0.01285904202983978,0.01285904202983978
58.906,0.004039175830721052,-0.004039175830721052
58.907,0.017479900455940646,-0.017479900455940646
58.908,0.02605553344491616,-0.02605553344491616
58.909,0.02994568356519856,-0.02994568356519856
58.91,0.030603993562493378,-0.030603993562493378
58.911,0.030024699033374336,-0.030024699033374336
58.912,0.029845202600539338,-0.029845202600539338
58.913,0.03060528608046085,-0.03060528608046085
58.914,0.031439813921265304,-0.031439813921265304
58.915,0.030339749189994412,-0.030339749189994412
58.916,0.02492011779131524,-0.02492011779131524
58.917,0.01344819539284288,-0.01344819539284288
58.918,0.00422474847639522,0.00422474847639522
58.919,0.026177309618552528,0.026177309618552528
58.92,0.04859771566685588,0.04859771566685588
58.921,0.06663703289246763,0.06663703289246763
58.922,0.0757146475367373,0.0757146475367373
58.923,0.07288700615441378,0.07288700615441378
58.924,0.05784340959591703,0.05784340959591703
58.925,0.03318787713807074,0.03318787713807074
58.926,0.0038784229634652484,0.0038784229634652484
58.927,0.024041180590639352,-0.024041180590639352
58.928,0.045052351951721234,-0.045052351951721234
58.929,0.05563183486987978,-0.05563183486987978
58.93,0.055132111885492496,-0.055132111885492496
58.931,0.04580354067193301,-0.04580354067193301
58.932,0.03195936566929115,-0.03195936566929115
58.933,0.01855647985554944,-0.01855647985554944
58.934,0.009648989811544509,-0.009648989811544509
58.935,0.007206669986433136,-0.007206669986433136
58.936,0.010663923518360792,-0.010663923518360792
58.937,0.017318697764379574,-0.017318697764379574
58.938,0.02341739601355862,-0.02341739601355862
58.939,0.025536692210329927,-0.025536692210329927
58.94,0.02178236409105571,-0.02178236409105571
58.940999999999995,0.012399214192637517,-0.012399214192637517
58.942,0.0004012318051867771,0.0004012318051867771
58.943,0.013311255342331298,0.013311255342331298
58.943999999999996,0.02316633060152769,0.02316633060152769
58.945,0.028096367415326538,0.028096367415326538
58.946,0.028166973620707265,0.028166973620707265
58.946999999999996,0.02527497348836986,0.02527497348836986
58.948,0.022334258486900856,0.022334258486900856
58.949,0.02204956593249404,0.02204956593249404
58.949999999999996,0.02573343479377244,0.02573343479377244
58.951,0.03261738534719124,0.03261738534719124
58.952,0.03994082727374927,0.03994082727374927
58.952999999999996,0.04382671026522224,0.04382671026522224
58.954,0.04066678968047978,0.04066678968047978
58.955,0.028542871443750693,0.028542871443750693
58.955999999999996,0.008175291780132524,0.008175291780132524
58.957,0.01696724288772244,-0.01696724288772244
58.958,0.04148680733056449,-0.04148680733056449
58.958999999999996,0.05957898114743432,-0.05957898114743432
58.96,0.06678576863740407,-0.06678576863740407
58.961,0.061411670421277105,-0.061411670421277105
58.961999999999996,0.04513123682773027,-0.04513123682773027
58.963,0.02257139405616395,-0.02257139405616395
58.964,1.7680143122894856e-05,1.7680143122894856e-05
58.964999999999996,0.016593533937460086,0.016593533937460086
58.966,0.023082294079034154,0.023082294079034154
58.967,0.018522202846849908,0.018522202846849908
58.967999999999996,0.005245180348663613,0.005245180348663613
58.969,0.011936915879175163,-0.011936915879175163
58.97,0.02725901722226006,-0.02725901722226006
58.971,0.03574440105655027,-0.03574440105655027
58.972,0.03461534527375573,-0.03461534527375573
58.973,0.023958111789229502,-0.023958111789229502
58.974,0.006487000249720807,-0.006487000249720807
58.975,0.01345133392104712,0.01345133392104712
58.976,0.031259331304006224,0.031259331304006224
58.977,0.04338749318627013,0.04338749318627013
58.978,0.04815087884535472,0.04815087884535472
58.979,0.045860935519919085,0.045860935519919085
58.98,0.03832134341505425,0.03832134341505425
58.981,0.027949451453503502,0.027949451453503502
58.982,0.016886914819969463,0.016886914819969463
58.983,0.006424977112909149,0.006424977112909149
58.984,0.0030855405642296672,-0.0030855405642296672
58.985,0.011877170421076385,-0.011877170421076385
58.986,0.020177850363571614,-0.020177850363571614
58.987,0.027690554286383433,-0.027690554286383433
58.988,0.03339659098251777,-0.03339659098251777
58.989,0.03579194320173035,-0.03579194320173035
58.99,0.03347510340022619,-0.03347510340022619
58.991,0.025846288108860038,-0.025846288108860038
58.992,0.013615193349170806,-0.013615193349170806
58.993,0.0011261605316064483,0.0011261605316064483
58.994,0.015348513071175959,0.015348513071175959
58.995,0.025930420646249005,0.025930420646249005
58.996,0.03062097624827371,0.03062097624827371
58.997,0.02877478266687851,0.02877478266687851
58.998,0.021579357374306423,0.021579357374306423
58.999,0.011668747546936385,0.011668747546936385
59.0,0.002236967785900995,0.002236967785900995
59.001,0.004049513864471075,-0.004049513864471075
59.002,0.005959125488577253,-0.005959125488577253
59.003,0.0040957322285757455,-0.0040957322285757455
59.004,0.0006397558356205002,-0.0006397558356205002
59.004999999999995,0.0014899108171258775,0.0014899108171258775
59.006,0.0002355864649201422,-0.0002355864649201422
59.007,0.006933842313520899,-0.006933842313520899
59.007999999999996,0.017764006871581164,-0.017764006871581164
59.009,0.030059155585648374,-0.030059155585648374
59.01,0.04010855332355095,-0.04010855332355095
59.010999999999996,0.044333890792766215,-0.044333890792766215
59.012,0.040465944344762576,-0.040465944344762576
59.013,0.028327166093159092,-0.028327166093159092
59.013999999999996,0.009960823588297953,-0.009960823588297953
59.015,0.010930216686360785,0.010930216686360785
59.016,0.03004100700816816,0.03004100700816816
59.016999999999996,0.04366534872792017,0.04366534872792017
59.018,0.04965342166855798,0.04965342166855798
59.019,0.04783927721767586,0.04783927721767586
59.019999999999996,0.03984420857780534,0.03984420857780534
59.021,0.02837663809852307,0.02837663809852307
59.022,0.016308572103460872,0.016308572103460872
59.022999999999996,0.005858846133349914,0.005858846133349914
59.024,0.001857785396919568,-0.001857785396919568
59.025,0.006816205334020266,-0.006816205334020266
59.025999999999996,0.009685148771420382,-0.009685148771420382
59.027,0.011270833701446019,-0.011270833701446019
59.028,0.012060544896756394,-0.012060544896756394
59.028999999999996,0.012058551681798436,-0.012058551681798436
59.03,0.010962263696276186,-0.010962263696276186
59.031,0.008566930564035416,-0.008566930564035416
59.032,0.0051789182784774835,-0.0051789182784774835
59.033,0.0018060636696139976,-0.0018060636696139976
59.034,1.4901605586806596e-05,1.4901605586806596e-05
59.035,0.0012648854547740915,-0.0012648854547740915
59.036,0.006525979096408452,-0.006525979096408452
59.037,0.015414042072933327,-0.015414042072933327
59.038,0.02615255459535751,-0.02615255459535751
59.039,0.035876487164888185,-0.035876487164888185
59.04,0.041435168017216174,-0.041435168017216174
59.041,0.040421425833479095,-0.040421425833479095
59.042,0.03207052281813887,-0.03207052281813887
59.043,0.01768606420800075,-0.01768606420800075
59.044,0.00039468946852160106,-0.00039468946852160106
59.045,0.01573895693828659,0.01573895693828659
59.046,0.026971222571649908,0.026971222571649908
59.047,0.03109442095429347,0.03109442095429347
59.048,0.02818023858762339,0.02818023858762339
59.049,0.020568313891964316,0.020568313891964316
59.05,0.012070255605290318,0.012070255605290318
59.051,0.0066358355602476535,0.0066358355602476535
59.052,0.0069292370893353225,0.0069292370893353225
59.053,0.013313974922232356,0.013313974922232356
59.054,0.02362137281098493,0.02362137281098493
59.055,0.03381660447256654,0.03381660447256654
59.056,0.03936555224194244,0.03936555224194244
59.057,0.036852794914570726,0.036852794914570726
59.058,0.025296399024544447,0.025296399024544447
59.059,0.006689807500933152,0.006689807500933152
59.06,0.014449147510644678,-0.014449147510644678
59.061,0.03240940178783946,-0.03240940178783946
59.062,0.042082288690601,-0.042082288690601
59.063,0.040637109904886844,-0.040637109904886844
59.064,0.028517459855384453,-0.028517459855384453
59.065,0.009412981563097297,-0.009412981563097297
59.065999999999995,0.010806368527110127,0.010806368527110127
59.067,0.025866279276274818,0.025866279276274818
59.068,0.031012840593011442,0.031012840593011442
59.068999999999996,0.024474687989099422,0.024474687989099422
59.07,0.008001363399922062,0.008001363399922062
59.071,0.013683950282265413,-0.013683950282265413
59.071999999999996,0.03433111988309001,-0.03433111988309001
59.073,0.048041374546833,-0.048041374546833
59.074,0.05098519358235128,-0.05098519358235128
59.074999999999996,0.04243743063359689,-0.04243743063359689
59.076,0.024842253188640803,-0.024842253188640803
59.077,0.0029379752368515586,-0.0029379752368515586
59.077999999999996,0.01773513554050564,0.01773513554050564
59.079,0.03244714832206342,0.03244714832206342
59.08,0.038510084308074725,0.038510084308074725
59.080999999999996,0.03578594470906057,0.03578594470906057
59.082,0.02638586917879396,0.02638586917879396
59.083,0.013740602774514778,0.013740602774514778
59.083999999999996,0.001406708802459605,0.001406708802459605
59.085,0.00797975761671535,-0.00797975761671535
59.086,0.013285318128414988,-0.013285318128414988
59.086999999999996,0.014873044722752884,-0.014873044722752884
59.088,0.014100530290415516,-0.014100530290415516
59.089,0.012575211772123247,-0.012575211772123247
59.089999999999996,0.011474519770783434,-0.011474519770783434
59.091,0.011175169878601196,-0.011175169878601196
59.092,0.01128868388430545,-0.01128868388430545
59.092999999999996,0.01103068333017765,-0.01103068333017765
59.094,0.009725464315924599,-0.009725464315924599
59.095,0.007210033172344158,-0.007210033172344158
59.096,0.003961858163935751,-0.003961858163935751
59.097,0.0009028034562911717,-0.0009028034562911717
59.098,0.0010262990327272756,0.0010262990327272756
59.099,0.00132777516510194,0.00132777516510194
59.1,0.00023725124676706404,0.00023725124676706404
59.101,0.0012957648612528744,-0.0012957648612528744
59.102,0.0019459107869055456,-0.0019459107869055456
59.103,0.0005437725490563093,-0.0005437725490563093
59.104,0.0034087308012835304,0.0034087308012835304
59.105,0.00945178537389782,0.00945178537389782
59.106,0.016239382499333904,0.016239382499333904
59.107,0.021961899245210095,0.021961899245210095
59.108,0.024974098974695606,0.024974098974695606
59.109,0.02439743514524142,0.02439743514524142
59.11,0.020466478976932437,0.020466478976932437
59.111,0.014478296441076626,0.014478296441076626
59.112,0.008348638797311009,0.008348638797311009
59.113,0.003926199454734597,0.003926199454734597
59.114,0.0023106440905352643,0.0023106440905352643
59.115,0.003425476129667312,0.003425476129667312
59.116,0.006009648525498384,0.006009648525498384
59.117,0.008042997587087779,0.008042997587087779
59.118,0.007463875922576888,0.007463875922576888
59.119,0.002929864323075218,0.002929864323075218
59.12,0.005646497531177734,-0.005646497531177734
59.121,0.01697817668630542,-0.01697817668630542
59.122,0.028746397227811797,-0.028746397227811797
59.123,0.0382904762033991,-0.0382904762033991
59.124,0.04340979237754052,-0.04340979237754052
59.125,0.043007040297164865,-0.043007040297164865
59.126,0.03736167014187856,-0.03736167014187856
59.127,0.02795512605529729,-0.02795512605529729
59.128,0.01692666628118406,-0.01692666628118406
59.129,0.006363733661714416,-0.006363733661714416
59.129999999999995,0.0023198339034343684,0.0023198339034343684
59.131,0.008706706744695435,0.008706706744695435
59.132,0.0133052441251367,0.0133052441251367
59.132999999999996,0.017136455470271324,0.017136455470271324
59.134,0.021153080346533633,0.021153080346533633
59.135,0.02572068131547639,0.02572068131547639
59.135999999999996,0.030360643062776863,0.030360643062776863
59.137,0.033852636824730796,0.033852636824730796
59.138,0.03465855529490185,0.03465855529490185
59.138999999999996,0.031511252574484505,0.031511252574484505
59.14,0.023952205553933556,0.023952205553933556
59.141,0.012622213521564564,0.012622213521564564
59.141999999999996,0.000801070369770804,-0.000801070369770804
59.143,0.014000070313383265,-0.014000070313383265
59.144,0.02461577645957336,-0.02461577645957336
59.144999999999996,0.030851671344132862,-0.030851671344132862
59.146,0.03189484327144051,-0.03189484327144051
59.147,0.028038374488212062,-0.028038374488212062
59.147999999999996,0.020496185325696775,-0.020496185325696775
59.149,0.01100261722764151,-0.01100261722764151
59.15,0.0013480931086432516,-0.0013480931086432516
59.150999999999996,0.006998844197420621,0.006998844197420621
59.152,0.013088058754526182,0.013088058754526182
59.153,0.016490988260738765,0.016490988260738765
59.153999999999996,0.017174093013690245,0.017174093013690245
59.155,0.015344147074686423,0.015344147074686423
59.156,0.011354407210793995,0.011354407210793995
59.157,0.0057069208916132146,0.0057069208916132146
59.158,0.0008819420319494754,-0.0008819420319494754
59.159,0.00743527704991122,-0.00743527704991122
59.16,0.012777430501192132,-0.012777430501192132
59.161,0.015749130740981714,-0.015749130740981714
59.162,0.015544808573039035,-0.015544808573039035
59.163,0.012063926132501726,-0.012063926132501726
59.164,0.006126607736453008,-0.006126607736453008
59.165,0.0005778689649035105,0.0005778689649035105
59.166,0.005861732986514021,0.005861732986514021
59.167,0.007664090509409279,0.007664090509409279
59.168,0.004755263146252192,0.004755263146252192
59.169,0.0027168093788861743,-0.0027168093788861743
59.17,0.013055660639085557,-0.013055660639085557
59.171,0.02333593031572434,-0.02333593031572434
59.172,0.030171385987275586,-0.030171385987275586
59.173,0.03072882472284971,-0.03072882472284971
59.174,0.023679164286666877,-0.023679164286666877
59.175,0.009767623561836707,-0.009767623561836707
59.176,0.008216341662139129,0.008216341662139129
59.177,0.02610767314536559,0.02610767314536559
59.178,0.03950438004796182,0.03950438004796182
59.179,0.045043771176510275,0.045043771176510275
59.18,0.041420605708088504,0.041420605708088504
59.181,0.029815495328220136,0.029815495328220136
59.182,0.013577492293616704,0.013577492293616704
59.183,0.0027617522618916066,-0.0027617522618916066
59.184,0.014848690075670348,-0.014848690075670348
59.185,0.019822675078609884,-0.019822675078609884
59.186,0.017170013239442408,-0.017170013239442408
59.187,0.008842504388299114,-0.008842504388299114
59.188,0.0014032286047374806,0.0014032286047374806
59.189,0.009241150565269588,0.009241150565269588
59.19,0.011196584394408368,0.011196584394408368
59.190999999999995,0.005801748354416535,0.005801748354416535
59.192,0.00588165611585437,-0.00588165611585437
59.193,0.020540049952719738,-0.020540049952719738
59.193999999999996,0.03359965955807087,-0.03359965955807087
59.195,0.040621546615554255,-0.040621546615554255
59.196,0.03866515122395165,-0.03866515122395165
59.196999999999996,0.027200477199518673,-0.027200477199518673
59.198,0.008296214878367226,-0.008296214878367226
59.199,0.013958930791834013,0.013958930791834013
59.199999999999996,0.034606796073675776,0.034606796073675776
59.201,0.049177888458463014,0.049177888458463014
59.202,0.0548435931017697,0.0548435931017697
59.202999999999996,0.05103166619883157,0.05103166619883157
59.204,0.039357510695856246,0.039357510695856246
59.205,0.02294473819709719,0.02294473819709719
59.205999999999996,0.005394396047295115,0.005394396047295115
59.207,0.010245672408844105,-0.010245672408844105
59.208,0.022187206849374558,-0.022187206849374558
59.208999999999996,0.030091598681911975,-0.030091598681911975
59.21,0.03473964055006841,-0.03473964055006841
59.211,0.037355455608123624,-0.037355455608123624
59.211999999999996,0.038868243379704376,-0.038868243379704376
59.213,0.03940087952985237,-0.03940087952985237
59.214,0.03817790058708569,-0.03817790058708569
59.214999999999996,0.03388335424892971,-0.03388335424892971
59.216,0.025329137816019212,-0.025329137816019212
59.217,0.012175931737926204,-0.012175931737926204
59.217999999999996,0.004577718406356279,0.004577718406356279
59.219,0.022548425886833354,0.022548425886833354
59.22,0.03842387505361841,0.03842387505361841
59.221,0.048808352254129196,0.048808352254129196
59.222,0.05120471911370803,0.05120471911370803
59.223,0.044821084260093035,0.044821084260093035
59.224,0.03093342802167938,0.03093342802167938
59.225,0.012666898430213543,0.012666898430213543
59.226,0.005763408882591521,-0.005763408882591521
59.227,0.020143392812640697,-0.020143392812640697
59.228,0.02736920097823028,-0.02736920097823028
59.229,0.026252937724066193,-0.026252937724066193
59.23,0.017792908756716543,-0.017792908756716543
59.231,0.004836228105093063,-0.004836228105093063
59.232,0.008758731708167452,0.008758731708167452
59.233,0.01920818932440488,0.01920818932440488
59.234,0.023819354254186086,0.023819354254186086
59.235,0.02165031425805013,0.02165031425805013
59.236,0.01364164470186804,0.01364164470186804
59.237,0.0022103559626127415,0.0022103559626127415
59.238,0.009544507204656367,-0.009544507204656367
59.239,0.018768256930926455,-0.018768256930926455
59.24,0.023627684062939032,-0.023627684062939032
59.241,0.023719076257054952,-0.023719076257054952
59.242,0.02001254481433265,-0.02001254481433265
59.243,0.014385819275618272,-0.014385819275618272
59.244,0.008924235152395401,-0.008924235152395401
59.245,0.005225668658248111,-0.005225668658248111
59.246,0.003932937189927618,-0.003932937189927618
59.247,0.004630114966833215,-0.004630114966833215
59.248,0.006113421709456809,-0.006113421709456809
59.249,0.006923466286543997,-0.006923466286543997
59.25,0.005943347138989949,-0.005943347138989949
59.251,0.0028516503268641,-0.0028516503268641
59.252,0.0017261069122645107,0.0017261069122645107
59.253,0.006418945742891454,0.006418945742891454
59.254,0.009595709902671423,0.009595709902671423
59.254999999999995,0.009968736090210994,0.009968736090210994
59.256,0.007109339337152189,0.007109339337152189
59.257,0.001695430677470847,0.001695430677470847
59.257999999999996,0.00460268212297629,-0.00460268212297629
59.259,0.009575635943862864,-0.009575635943862864
59.26,0.011134839683936543,-0.011134839683936543
59.260999999999996,0.00797781138741735,-0.00797781138741735
59.262,5.279343594933242e-05,-5.279343594933242e-05
59.263,0.01132456993966324,0.01132456993966324
59.263999999999996,0.023745451884752383,0.023745451884752383
59.265,0.034299292463495015,0.034299292463495015
59.266,0.040315868924754555,0.040315868924754555
59.266999999999996,0.04004992238055789,0.04004992238055789
59.268,0.03312136745677976,0.03312136745677976
59.269,0.020599130742833163,0.020599130742833163
59.269999999999996,0.00472075951684201,0.00472075951684201
59.271,0.011659476718600717,-0.011659476718600717
59.272,0.025733908495401088,-0.025733908495401088
59.272999999999996,0.03533959710646038,-0.03533959710646038
59.274,0.039349628865944404,-0.039349628865944404
59.275,0.03778707536568519,-0.03778707536568519
59.275999999999996,0.03167324730974984,-0.03167324730974984
59.277,0.022688892923467895,-0.022688892923467895
59.278,0.012760612550148287,-0.012760612550148287
59.278999999999996,0.0036798257362795697,-0.0036798257362795697
59.28,0.0031734667724745234,0.0031734667724745234
59.281,0.006977602148731942,0.006977602148731942
59.282,0.007503363106700562,0.007503363106700562
59.283,0.005072473225032304,0.005072473225032304
59.284,0.000474763270100337,0.000474763270100337
59.285,0.005140783039629381,-0.005140783039629381
59.286,0.010406986977366835,-0.010406986977366835
59.287,0.013926251856705131,-0.013926251856705131
59.288,0.014509099620423205,-0.014509099620423205
59.289,0.011439375810058968,-0.011439375810058968
59.29,0.00470916401241128,-0.00470916401241128
59.291,0.004854164971513307,0.004854164971513307
59.292,0.01564018076398851,0.01564018076398851
59.293,0.02552025814517771,0.02552025814517771
59.294,0.03229634690947649,0.03229634690947649
59.295,0.03423811854265561,0.03423811854265561
59.296,0.030566009840347862,0.030566009840347862
59.297,0.021731334437348253,0.021731334437348253
59.298,0.009387406132488603,0.009387406132488603
59.299,0.0039708102058738995,-0.0039708102058738995
59.3,0.015620515903833211,-0.015620515903833211
59.301,0.023315257681118046,-0.023315257681118046
59.302,0.02587658875335959,-0.02587658875335959
59.303,0.023492728576075563,-0.023492728576075563
59.304,0.017625235839658564,-0.017625235839658564
59.305,0.010542107528530312,-0.010542107528530312
59.306,0.004612487304041418,-0.004612487304041418
59.307,0.0015762233601493458,-0.0015762233601493458
59.308,0.002014044702215089,-0.002014044702215089
59.309,0.005185042827314819,-0.005185042827314819
59.31,0.009284800903547304,-0.009284800903547304
59.311,0.01204549156683503,-0.01204549156683503
59.312,0.011490903655123116,-0.011490903655123116
59.313,0.006609769531373013,-0.006609769531373013
59.314,0.0022638834259802914,0.0022638834259802914
59.315,0.01348255970213525,0.01348255970213525
59.315999999999995,0.024519589931033467,0.024519589931033467
59.317,0.03267199703164949,0.03267199703164949
59.318,0.035818015956281084,0.035818015956281084
59.318999999999996,0.033003840091345944,0.033003840091345944
59.32,0.024692758406291426,0.024692758406291426
59.321,0.012617456008076006,0.012617456008076006
59.321999999999996,0.0007031885342664578,-0.0007031885342664578
59.323,0.012626549469295187,-0.012626549469295187
59.324,0.02103065694596719,-0.02103065694596719
59.324999999999996,0.02476526834898148,-0.02476526834898148
59.326,0.023807412673771726,-0.023807412673771726
59.327,0.019115756406898755,-0.019115756406898755
59.327999999999996,0.01226517751025588,-0.01226517751025588
59.329,0.00499376802379559,-0.00499376802379559
59.33,0.0012027307496600163,0.0012027307496600163
59.330999999999996,0.00533357556883274,0.00533357556883274
59.332,0.006999482000712816,0.006999482000712816
59.333,0.006329522766410997,0.006329522766410997
59.333999999999996,0.00383196062361958,0.00383196062361958
59.335,0.00022728881963026052,0.00022728881963026052
59.336,0.0036907776300993725,-0.0036907776300993725
59.336999999999996,0.007155166070192258,-0.007155166070192258
59.338,0.009503106145192394,-0.009503106145192394
59.339,0.010256842754366472,-0.010256842754366472
59.339999999999996,0.009218438820259434,-0.009218438820259434
59.341,0.006561765747663355,-0.006561765747663355
59.342,0.0028792719918010784,-0.0028792719918010784
59.342999999999996,0.0008659371215753924,0.0008659371215753924
59.344,0.0035124619539541138,0.0035124619539541138
59.345,0.003984510692803853,0.003984510692803853
59.346,0.0016241570682885202,0.0016241570682885202
59.347,0.003528016225624903,-0.003528016225624903
59.348,0.010608801599343099,-0.010608801599343099
59.349,0.018035269174284947,-0.018035269174284947
59.35,0.02383888666759807,-0.02383888666759807
59.351,0.026157820866458747,-0.026157820866458747
59.352,0.023753509633719957,-0.023753509633719957
59.353,0.016396708668957295,-0.016396708668957295
59.354,0.004998034157186748,-0.004998034157186748
59.355,0.00856850160366912,0.00856850160366912
59.356,0.02190647980446328,0.02190647980446328
59.357,0.03267710471133854,0.03267710471133854
59.358,0.03914941924750195,0.03914941924750195
59.359,0.04056345174296966,0.04056345174296966
59.36,0.03721178436309146,0.03721178436309146
59.361,0.03023706073961884,0.03023706073961884
59.362,0.021232133864304163,0.021232133864304163
59.363,0.011785158489261224,0.011785158489261224
59.364,0.0031158084639906426,0.0031158084639906426
59.365,0.004098063033996623,-0.004098063033996623
59.366,0.009682093048429352,-0.009682093048429352
59.367,0.013773045945823667,-0.013773045945823667
59.368,0.016579992187525653,-0.016579992187525653
59.369,0.01821000818932137,-0.01821000818932137
59.37,0.018627383216626936,-0.018627383216626936
59.371,0.01774711076264523,-0.01774711076264523
59.372,0.015598463786771578,-0.015598463786771578
59.373,0.012460505408775743,-0.012460505408775743
59.374,0.008883255455787506,-0.008883255455787506
59.375,0.005561401952180343,-0.005561401952180343
59.376,0.003099521585407091,-0.003099521585407091
59.377,0.0017672704512304961,-0.0017672704512304961
59.378,0.0013622016483195252,-0.0013622016483195252
59.379,0.0012646711756145765,-0.0012646711756145765
59.379999999999995,0.0006933086584596561,-0.0006933086584596561
59.381,0.0009204655232398362,0.0009204655232398362
59.382,0.0035869702945094534,0.0035869702945094534
59.382999999999996,0.006601796573536597,0.006601796573536597
59.384,0.008683675358376075,0.008683675358376075
59.385,0.008405213866308327,0.008405213866308327
59.385999999999996,0.004793098742784703,0.004793098742784703
59.387,0.002115541868857483,-0.002115541868857483
59.388,0.010992161393091738,-0.010992161393091738
59.388999999999996,0.019373342086595715,-0.019373342086595715
59.39,0.024276027180402972,-0.024276027180402972
59.391,0.023124956788004504,-0.023124956788004504
59.391999999999996,0.014710918588220111,-0.014710918588220111
59.393,0.00015075708602356046,0.00015075708602356046
59.394,0.018528968458745614,0.018528968458745614
59.394999999999996,0.03595682129317882,0.03595682129317882
59.396,0.04757127302281518,0.04757127302281518
59.397,0.049504144381887195,0.049504144381887195
59.397999999999996,0.040107232823874545,0.040107232823874545
59.399,0.020616139674202547,0.020616139674202547
59.4,0.004989282784675536,-0.004989282784675536
59.400999999999996,0.03092949191156541,-0.03092949191156541
59.402,0.051124614264850536,-0.051124614264850536
59.403,0.06081777766899171,-0.06081777766899171
59.403999999999996,0.05784358447098364,-0.05784358447098364
59.405,0.043166204001101334,-0.043166204001101334
59.406,0.020534855937806046,-0.020534855937806046
59.407,0.004623922281076784,0.004623922281076784
59.408,0.02672615911843836,0.02672615911843836
59.409,0.041494893669024535,0.041494893669024535
59.41,0.04693685871855974,0.04693685871855974
59.411,0.04357186212118772,0.04357186212118772
59.412,0.033905518027674206,0.033905518027674206
59.413,0.02137848029457362,0.02137848029457362
59.414,0.009179386645567254,0.009179386645567254
59.415,0.0006744688155019407,-0.0006744688155019407
59.416,0.007705755364370001,-0.007705755364370001
59.417,0.012724027568594124,-0.012724027568594124
59.418,0.01710577697386311,-0.01710577697386311
59.419,0.021922333262814366,-0.021922333262814366
59.42,0.0272699886992039,-0.0272699886992039
59.421,0.032065885091223156,-0.032065885091223156
59.422,0.034388377684595434,-0.034388377684595434
59.423,0.032231043083133536,-0.032231043083133536
59.424,0.024381842929403534,-0.024381842929403534
59.425,0.011089546784366244,-0.011089546784366244
59.426,0.005745407775691643,0.005745407775691643
59.427,0.022947861800756537,0.022947861800756537
59.428,0.03690177140597045,0.03690177140597045
59.429,0.044567818212779504,0.044567818212779504
59.43,0.04434787616183533,0.04434787616183533
59.431,0.03651492736505428,0.03651492736505428
59.432,0.023079452979777832,0.023079452979777832
59.433,0.007156058220092789,0.007156058220092789
59.434,0.00794240294493361,-0.00794240294493361
59.435,0.019578522689175464,-0.019578522689175464
59.436,0.026359706269678596,-0.026359706269678596
59.437,0.02825665136955941,-0.02825665136955941
59.438,0.026292849159852187,-0.026292849159852187
59.439,0.021974528120214873,-0.021974528120214873
59.44,0.01670373314482899,-0.01670373314482899
59.440999999999995,0.011393208402372547,-0.011393208402372547
59.442,0.006395407684505944,-0.006395407684505944
59.443,0.0017154665300074163,-0.0017154665300074163
59.443999999999996,0.002641943545701951,0.002641943545701951
59.445,0.006391242457439499,0.006391242457439499
59.446,0.008909476176976657,0.008909476176976657
59.446999999999996,0.009453031683760788,0.009453031683760788
59.448,0.007560769020092314,0.007560769020092314
59.449,0.0034556407135186745,0.0034556407135186745
59.449999999999996,0.0017654691476204085,-0.0017654691476204085
59.451,0.006293793600434608,-0.006293793600434608
59.452,0.008124132565326497,-0.008124132565326497
59.452999999999996,0.005771616336051262,-0.005771616336051262
59.454,0.0010683849684187893,0.0010683849684187893
59.455,0.011186867765194928,0.011186867765194928
59.455999999999996,0.022028694957830754,0.022028694957830754
59.457,0.030362546729954407,0.030362546729954407
59.458,0.033265916614945205,0.033265916614945205
59.458999999999996,0.02910407435271217,0.02910407435271217
59.46,0.018158062853869613,0.018158062853869613
59.461,0.002658726113449369,0.002658726113449369
59.461999999999996,0.013819064208149054,-0.013819064208149054
59.463,0.02742315261098409,-0.02742315261098409
59.464,0.03520209544032931,-0.03520209544032931
59.464999999999996,0.03599264903100058,-0.03599264903100058
59.466,0.030705822778035543,-0.030705822778035543
59.467,0.021906710533481675,-0.021906710533481675
59.467999999999996,0.01283379070039209,-0.01283379070039209
59.469,0.0062083346016702,-0.0062083346016702
59.47,0.0032675790814965383,-0.0032675790814965383
59.471,0.00338197544893586,-0.00338197544893586
59.472,0.004408754300758258,-0.004408754300758258
59.473,0.0036629548567211033,-0.0036629548567211033
59.474,0.0008497347688505257,0.0008497347688505257
59.475,0.009408209596297672,0.009408209596297672
59.476,0.020173991855741716,0.020173991855741716
59.477,0.02961543870469636,0.02961543870469636
59.478,0.03366422602234501,0.03366422602234501
59.479,0.029231366017341654,0.029231366017341654
59.48,0.01555128815119926,0.01555128815119926
59.481,0.005153398509290165,-0.005153398509290165
59.482,0.0279870020634675,-0.0279870020634675
59.483,0.04665152872213254,-0.04665152872213254
59.484,0.05531522357165904,-0.05531522357165904
59.485,0.05049404454224386,-0.05049404454224386
59.486,0.03232379107931308,-0.03232379107931308
59.487,0.004772318466008592,-0.004772318466008592
59.488,0.025329381832892357,0.025329381832892357
59.489,0.05017802035935717,0.05017802035935717
59.49,0.06324615313733548,0.06324615313733548
59.491,0.061195669353109126,0.061195669353109126
59.492,0.04486004053155615,0.04486004053155615
59.493,0.018987601245125968,0.018987601245125968
59.494,0.009173234412723878,-0.009173234412723878
59.495,0.032004269682340866,-0.032004269682340866
59.496,0.04370346295080825,-0.04370346295080825
59.497,0.04186243186195703,-0.04186243186195703
59.498,0.027978192922875237,-0.027978192922875237
59.499,0.0067880884841125125,-0.0067880884841125125
59.5,0.015312966283297858,0.015312966283297858
59.501,0.032240154900524336,0.032240154900524336
59.502,0.03994657052622361,0.03994657052622361
59.503,0.03739834695697251,0.03739834695697251
59.504,0.02655447237126546,0.02655447237126546
59.504999999999995,0.011440905705283198,0.011440905705283198
59.506,0.0033094075107807934,-0.0033094075107807934
59.507,0.013937427718662689,-0.013937427718662689
59.507999999999996,0.018583829066556402,-0.018583829066556402
59.509,0.017575828171382007,-0.017575828171382007
59.51,0.01296310904707254,-0.01296310904707254
59.510999999999996,0.00754486994420348,-0.00754486994420348
59.512,0.00378011579796898,-0.00378011579796898
59.513,0.0029749210973285803,-0.0029749210973285803
59.513999999999996,0.005003448232767957,-0.005003448232767957
59.515,0.00860220668997856,-0.00860220668997856
59.516,0.012062683935655938,-0.012062683935655938
59.516999999999996,0.014013532984844972,-0.014013532984844972
59.518,0.013974081417206024,-0.013974081417206024
59.519,0.012472440985132421,-0.012472440985132421
59.519999999999996,0.010706071565106667,-0.010706071565106667
59.521,0.009907450074336922,-0.009907450074336922
59.522,0.010692389877315361,-0.010692389877315361
59.522999999999996,0.0126718732472627,-0.0126718732472627
59.524,0.014501288737642086,-0.014501288737642086
59.525,0.014366325622303546,-0.014366325622303546
59.525999999999996,0.010729676918937246,-0.010729676918937246
59.527,0.0030535918540375074,-0.0030535918540375074
59.528,0.007788619825307218,0.007788619825307218
59.528999999999996,0.019592660455720525,0.019592660455720525
59.53,0.029399549778080666,0.029399549778080666
59.531,0.0343915432362336,0.0343915432362336
59.532,0.032810194651933945,0.032810194651933945
59.533,0.024582421832326406,0.024582421832326406
59.534,0.011434141461522345,0.011434141461522345
59.535,0.0035579521958238477,-0.0035579521958238477
59.536,0.016837630445022855,-0.016837630445022855
59.537,0.025384401002771676,-0.025384401002771676
59.538,0.027549319826035163,-0.027549319826035163
59.539,0.023452533000734417,-0.023452533000734417
59.54,0.01483312116463567,-0.01483312116463567
59.541,0.004423004284817799,-0.004423004284817799
59.542,0.004932524561154803,0.004932524561154803
59.543,0.01111429388801155,0.01111429388801155
59.544,0.013265178372948352,0.013265178372948352
59.545,0.011874510969378225,0.011874510969378225
59.546,0.008421419234118061,0.008421419234118061
59.547,0.004732974146337592,0.004732974146337592
59.548,0.0022971537620462145,0.0022971537620462145
59.549,0.0017684758706891432,0.0017684758706891432
59.55,0.0028216056499258376,0.0028216056499258376
59.551,0.004378220475893343,0.004378220475893343
59.552,0.005102040646468383,0.005102040646468383
59.553,0.003970534501675874,0.003970534501675874
59.554,0.0007159077167716969,0.0007159077167716969
59.555,0.004016567637632369,-0.004016567637632369
59.556,0.008841395625188729,-0.008841395625188729
59.557,0.012071820217455537,-0.012071820217455537
59.558,0.012274582746586538,-0.012274582746586538
59.559,0.008759096237142779,-0.008759096237142779
59.56,0.001848660168577815,-0.001848660168577815
59.561,0.007143995425188848,0.007143995425188848
59.562,0.016221990038289953,0.016221990038289953
59.563,0.02319559384862197,0.02319559384862197
59.564,0.02622021831817508,0.02622021831817508
59.565,0.02424133276414658,0.02424133276414658
59.565999999999995,0.017243940429789828,0.017243940429789828
59.567,0.006262740297760574,0.006262740297760574
59.568,0.006831133564542054,-0.006831133564542054
59.568999999999996,0.019705634109236567,-0.019705634109236567
59.57,0.03002109121137255,-0.03002109121137255
59.571,0.0358742413411422,-0.0358742413411422
59.571999999999996,0.03615766742358502,-0.03615766742358502
59.573,0.03077785222496516,-0.03077785222496516
59.574,0.020695890526023282,-0.020695890526023282
59.574999999999996,0.007777566859563165,-0.007777566859563165
59.576,0.005534132503035833,0.005534132503035833
59.577,0.016680048226241286,0.016680048226241286
59.577999999999996,0.02350299979009503,0.02350299979009503
59.579,0.02472092646911456,0.02472092646911456
59.58,0.02024477790038562,0.02024477790038562
59.580999999999996,0.011249625848745221,0.011249625848745221
59.582,4.4625138970943694e-05,-4.4625138970943694e-05
59.583,0.010857151378448357,-0.010857151378448357
59.583999999999996,0.01849542328305816,-0.01849542328305816
59.585,0.021015111365559072,-0.021015111365559072
59.586,0.01771912547240035,-0.01771912547240035
59.586999999999996,0.009355670427985296,-0.009355670427985296
59.588,0.002049772849344258,0.002049772849344258
59.589,0.0136946526641791,0.0136946526641791
59.589999999999996,0.022703932254983558,0.022703932254983558
59.591,0.026851581466382713,0.026851581466382713
59.592,0.02510558484661437,0.02510558484661437
59.592999999999996,0.017853767294777393,0.017853767294777393
59.594,0.006759793530175627,0.006759793530175627
59.595,0.005696438079854975,-0.005696438079854975
59.596,0.0168545375406508,-0.0168545375406508
59.597,0.024505866394513628,-0.024505866394513628
59.598,0.027357710994517705,-0.027357710994517705
59.599,0.02522697325081467,-0.02522697325081467
59.6,0.018947265565892588,-0.018947265565892588
59.601,0.01005448397796604,-0.01005448397796604
59.602,0.0003668545844550105,-0.0003668545844550105
59.603,0.008416500422013001,0.008416500422013001
59.604,0.015005821335030723,0.015005821335030723
59.605,0.01866109826015218,0.01866109826015218
59.606,0.019197538161295113,0.019197538161295113
59.607,0.016904749470348823,0.016904749470348823
59.608,0.012432996926741111,0.012432996926741111
59.609,0.006679952613997021,0.006679952613997021
59.61,0.0006815630011242968,0.0006815630011242968
59.611,0.004511026357168218,-0.004511026357168218
59.612,0.007987237118313426,-0.007987237118313426
59.613,0.009162296265049358,-0.009162296265049358
59.614,0.007954704804603766,-0.007954704804603766
59.615,0.004891049729974027,-0.004891049729974027
59.616,0.0010700116210261433,-0.0010700116210261433
59.617,0.002052513735636454,0.002052513735636454
59.618,0.0030373312157008286,0.0030373312157008286
59.619,0.0009086144788754711,0.0009086144788754711
59.62,0.004461238269966875,-0.004461238269966875
59.621,0.012169686365049283,-0.012169686365049283
59.622,0.020400821417922776,-0.020400821417922776
59.623,0.02684829938795276,-0.02684829938795276
59.624,0.029347676577354074,-0.029347676577354074
59.625,0.02653773132471783,-0.02653773132471783
59.626,0.018340204062168252,-0.018340204062168252
59.627,0.00608735585887117,-0.00608735585887117
59.628,0.00777065958677437,0.00777065958677437
59.629,0.02031226242632002,0.02031226242632002
59.629999999999995,0.028957059128870165,0.028957059128870165
59.631,0.0321919397367889,0.0321919397367889
59.632,0.029975572100165056,0.029975572100165056
59.632999999999996,0.023684787976134804,0.023684787976134804
59.634,0.015615675514946808,0.015615675514946808
59.635,0.008202540822034952,0.008202540822034952
59.635999999999996,0.0032169149978212,0.0032169149978212
59.637,0.001219973032255431,0.001219973032255431
59.638,0.0014581377205009228,0.0014581377205009228
59.638999999999996,0.002239492959868485,0.002239492959868485
59.64,0.0016592873243632686,0.0016592873243632686
59.641,0.0015845510359131535,-0.0015845510359131535
59.641999999999996,0.007584058251353325,-0.007584058251353325
59.643,0.015054459903497923,-0.015054459903497923
59.644,0.02168977088138629,-0.02168977088138629
59.644999999999996,0.024937608815580155,-0.024937608815580155
59.646,0.022935004818398844,-0.022935004818398844
59.647,0.015277495209866656,-0.015277495209866656
59.647999999999996,0.003337103701956454,-0.003337103701956454
59.649,0.010010480313838374,0.010010480313838374
59.65,0.02119033936975056,0.02119033936975056
59.650999999999996,0.027019462169812866,0.027019462169812866
59.652,0.025731613971049287,0.025731613971049287
59.653,0.017591929917576257,0.017591929917576257
59.653999999999996,0.004883116845672354,0.004883116845672354
59.655,0.008752088790647216,-0.008752088790647216
59.656,0.019414972324115876,-0.019414972324115876
59.657,0.0241531976446073,-0.0241531976446073
59.658,0.02187545360063912,-0.02187545360063912
59.659,0.01368165036015761,-0.01368165036015761
59.66,0.0024996237163769355,-0.0024996237163769355
59.661,0.007856344366628827,0.007856344366628827
59.662,0.01390299786360418,0.01390299786360418
59.663,0.013591515764285156,0.013591515764285156
59.664,0.006946347956190858,0.006946347956190858
59.665,0.003958124278132446,-0.003958124278132446
59.666,0.015665830570255244,-0.015665830570255244
59.667,0.024429192563577538,-0.024429192563577538
59.668,0.027368692487336286,-0.027368692487336286
59.669,0.023336316537481826,-0.023336316537481826
59.67,0.013222248891145623,-0.013222248891145623
59.671,0.0003706024933368455,0.0003706024933368455
59.672,0.013956937649788325,0.013956937649788325
59.673,0.024223162006949055,0.024223162006949055
59.674,0.02896731106597479,0.02896731106597479
59.675,0.027641195242970734,0.027641195242970734
59.676,0.021353740202622,0.021353740202622
59.677,0.012374392861181678,0.012374392861181678
59.678,0.0033319037326628716,0.0033319037326628716
59.679,0.003613101045320021,-0.003613101045320021
59.68,0.007356458111221282,-0.007356458111221282
59.681,0.00803335485291747,-0.00803335485291747
59.682,0.006775789150329962,-0.006775789150329962
59.683,0.0051665578695119785,-0.0051665578695119785
59.684,0.004602110442568065,-0.004602110442568065
59.685,0.005788770236646223,-0.005788770236646223
59.686,0.008532374324027715,-0.008532374324027715
59.687,0.0118678387003761,-0.0118678387003761
59.688,0.014454893401352295,-0.014454893401352295
59.689,0.01508093701782461,-0.01508093701782461
59.69,0.013088296266768605,-0.013088296266768605
59.690999999999995,0.00858455668779415,-0.00858455668779415
59.692,0.00238161156554451,-0.00238161156554451
59.693,0.004292280506711547,0.004292280506711547
59.693999999999996,0.010188353374396966,0.010188353374396966
59.695,0.014395568728942149,0.014395568728942149
59.696,0.01654306350704456,0.01654306350704456
59.696999999999996,0.016795749476868942,0.016795749476868942
59.698,0.015671525780494983,0.015671525780494983
59.699,0.013770681595274904,0.013770681595274904
59.699999999999996,0.011531400748812834,0.011531400748812834
59.701,0.009104105303184005,0.009104105303184005
59.702,0.006382703817086349,0.006382703817086349
59.702999999999996,0.0031653296056611464,0.0031653296056611464
59.704,0.0006338038050145272,-0.0006338038050145272
59.705,0.004817745564242405,-0.004817745564242405
59.705999999999996,0.008861384627237427,-0.008861384627237427
59.707,0.012014095402155764,-0.012014095402155764
59.708,0.013518797263548314,-0.013518797263548314
59.708999999999996,0.012870212598684051,-0.012870212598684051
59.71,0.010018967472513568,-0.010018967472513568
59.711,0.005446445268420991,-0.005446445268420991
59.711999999999996,8.018951011316925e-05,-8.018951011316925e-05
59.713,0.004925929865938884,0.004925929865938884
59.714,0.008478316580128022,0.008478316580128022
59.714999999999996,0.009809466960220283,0.009809466960220283
59.716,0.008646730921169927,0.008646730921169927
59.717,0.005243407231607332,0.005243407231607332
59.717999999999996,0.0002774401863836264,0.0002774401863836264
59.719,0.005337649619241336,-0.005337649619241336
59.72,0.010665068058530227,-0.010665068058530227
59.721,0.014920046042589192,-0.014920046042589192
59.722,0.01757179080568134,-0.01757179080568134
59.723,0.018367818398805157,-0.018367818398805157
59.724,0.01730331976422635,-0.01730331976422635
59.725,0.014570103084405912,-0.014570103084405912
59.726,0.010513735375246764,-0.010513735375246764
59.727,0.0056087617252898285,-0.0056087617252898285
59.728,0.0004405635214667502,-0.0004405635214667502
59.729,0.004330496861842106,0.004330496861842106
59.73,0.008044538653993679,0.008044538653993679
59.731,0.010161354833779643,0.010161354833779643
59.732,0.010401585294574354,0.010401585294574354
59.733,0.008865695801929023,0.008865695801929023
59.734,0.006078806814614052,0.006078806814614052
59.735,0.00292243699414911,0.00292243699414911
59.736,0.00044625799172660625,0.00044625799172660625
59.737,0.00040566194414487055,-0.00040566194414487055
59.738,0.0009166600239762393,0.0009166600239762393
59.739,0.00435383109451157,0.00435383109451157
59.74,0.009172309774004904,0.009172309774004904
59.741,0.014089663172181327,0.014089663172181327
59.742,0.017574338065478274,0.017574338065478274
59.743,0.018248832319554494,0.018248832319554494
59.744,0.015287030082315398,0.015287030082315398
59.745,0.00868931043374546,0.00868931043374546
59.746,0.0006528332834177959,-0.0006528332834177959
59.747,0.011134176420076804,-0.011134176420076804
59.748,0.02081722615833941,-0.02081722615833941
59.749,0.02791826090393811,-0.02791826090393811
59.75,0.0312636380946319,-0.0312636380946319
59.751,0.03058551473125395,-0.03058551473125395
59.752,0.026568206216161665,-0.026568206216161665
59.753,0.020626017989781868,-0.020626017989781868
59.754,0.014470982638535166,-0.014470982638535166
59.754999999999995,0.009592103045652495,-0.009592103045652495
59.756,0.00679760031273418,-0.00679760031273418
59.757,0.005958546259930572,-0.005958546259930572
59.757999999999996,0.0060384625167258415,-0.0060384625167258415
59.759,0.005413034837777561,-0.005413034837777561
59.76,0.002399094928181098,-0.002399094928181098
59.760999999999996,0.004153428702362345,0.004153428702362345
59.762,0.01437935113281958,0.01437935113281958
59.763,0.027176908527719954,0.027176908527719954
59.763999999999996,0.04033242502771847,0.04033242502771847
59.765,0.0509826169109646,0.0509826169109646
59.766,0.05631009429437771,0.05631009429437771
59.766999999999996,0.05429581167658599,0.05429581167658599
59.768,0.044325956578886924,0.044325956578886924
59.769,0.027479512174640404,0.027479512174640404
59.769999999999996,0.006400937520763463,0.006400937520763463
59.771,0.015229608191538216,-0.015229608191538216
59.772,0.03350721185760841,-0.03350721185760841
59.772999999999996,0.04519361187257023,-0.04519361187257023
59.774,0.048461488571585984,-0.048461488571585984
59.775,0.04329879114242287,-0.04329879114242287
59.775999999999996,0.03146835471107468,-0.03146835471107468
59.777,0.016035874628979888,-0.016035874628979888
59.778,0.0005941248592048346,-0.0005941248592048346
59.778999999999996,0.011609275616856667,0.011609275616856667
59.78,0.018411792904111848,0.018411792904111848
59.781,0.019157218362132297,0.019157218362132297
59.782,0.01470520714948004,0.01470520714948004
59.783,0.007052699235469754,0.007052699235469754
59.784,0.001303768214592873,-0.001303768214592873
59.785,0.008072092304429996,-0.008072092304429996
59.786,0.011737383588142723,-0.011737383588142723
59.787,0.011858815910665397,-0.011858815910665397
59.788,0.0090376292249595,-0.0090376292249595
59.789,0.004603711923060275,-0.004603711923060275
59.79,0.0001455251495850769,-0.0001455251495850769
59.791,0.0029601689268083033,0.0029601689268083033
59.792,0.0038827743960919586,0.0038827743960919586
59.793,0.002462002661468361,0.002462002661468361
59.794,0.0008746372641980823,-0.0008746372641980823
59.795,0.0053308812397729,-0.0053308812397729
59.796,0.009994875458583992,-0.009994875458583992
59.797,0.014034377838741261,-0.014034377838741261
59.798,0.016786753770421926,-0.016786753770421926
59.799,0.017754810721359454,-0.017754810721359454
59.8,0.016565619156765174,-0.016565619156765174
59.801,0.012963415231028707,-0.012963415231028707
59.802,0.00688323719427728,-0.00688323719427728
59.803,0.0014005684724936074,0.0014005684724936074
59.804,0.011114238062030494,0.011114238062030494
59.805,0.02091138594169,0.02091138594169
59.806,0.028978407327959987,0.028978407327959987
59.807,0.0333574760454784,0.0333574760454784
59.808,0.03244271387192801,0.03244271387192801
59.809,0.025521022158720437,0.025521022158720437
59.81,0.013178649172646748,0.013178649172646748
59.811,0.002596606173494478,-0.002596606173494478
59.812,0.018713658765302885,-0.018713658765302885
59.813,0.03165191204412436,-0.03165191204412436
59.814,0.03835527819282182,-0.03835527819282182
59.815,0.03709713661223522,-0.03709713661223522
59.815999999999995,0.028046433845853456,-0.028046433845853456
59.817,0.013333031614949366,-0.013333031614949366
59.818,0.0034481377549741826,0.0034481377549741826
59.818999999999996,0.018181219619397,0.018181219619397
59.82,0.027359690993013767,0.027359690993013767
59.821,0.02906688042149328,0.02906688042149328
59.821999999999996,0.023502182405069977,0.023502182405069977
59.823,0.012880005111141866,0.012880005111141866
59.824,0.000721770706942552,0.000721770706942552
59.824999999999996,0.009245042085608564,-0.009245042085608564
59.826,0.014236820439893761,-0.014236820439893761
59.827,0.013247550829299638,-0.013247550829299638
59.827999999999996,0.007299126073767931,-0.007299126073767931
59.829,0.0009714104994739879,0.0009714104994739879
59.83,0.008250361305644207,0.008250361305644207
59.830999999999996,0.011699692445845391,0.011699692445845391
59.832,0.009938147166045993,0.009938147166045993
59.833,0.0035207104367609827,0.0035207104367609827
59.833999999999996,0.005248074169319769,-0.005248074169319769
59.835,0.013108298080449055,-0.013108298080449055
59.836,0.016981781712936524,-0.016981781712936524
59.836999999999996,0.01506831390683458,-0.01506831390683458
59.838,0.007526248423641019,-0.007526248423641019
59.839,0.003501745071950174,0.003501745071950174
59.839999999999996,0.014539076591026918,0.014539076591026918
59.841,0.02189545034134317,0.02189545034134317
59.842,0.022889787676737026,0.022889787676737026
59.842999999999996,0.01676948479707788,0.01676948479707788
59.844,0.005016010380426811,0.005016010380426811
59.845,0.009072573304949276,-0.009072573304949276
59.846,0.021393400602615645,-0.021393400602615645
59.847,0.028319748284137244,-0.028319748284137244
59.848,0.027836847822272696,-0.027836847822272696
59.849,0.02016591712172188,-0.02016591712172188
59.85,0.007677917929489417,-0.007677917929489417
59.851,0.005869182358876703,0.005869182358876703
59.852,0.01651682806654843,0.01651682806654843
59.853,0.021329571455362135,0.021329571455362135
59.854,0.019264468236119638,0.019264468236119638
59.855,0.011417487595192038,0.011417487595192038
59.856,0.0005863466289741343,0.0005863466289741343
59.857,0.009687898002295844,-0.009687898002295844
59.858,0.016274239032966587,-0.016274239032966587
59.859,0.01742140497038496,-0.01742140497038496
59.86,0.013238383031442888,-0.013238383031442888
59.861,0.005551173871334637,-0.005551173871334637
59.862,0.0027899707669468772,0.0027899707669468772
59.863,0.008902085369282116,0.008902085369282116
59.864,0.010822118762437225,0.010822118762437225
59.865,0.008110847793357323,0.008110847793357323
59.866,0.0019269865984848874,0.0019269865984848874
59.867,0.0054271117708391435,-0.0054271117708391435
59.868,0.011313510051308708,-0.011313510051308708
59.869,0.013638891082789647,-0.013638891082789647
59.87,0.011516810825181604,-0.011516810825181604
59.871,0.0055094313397693094,-0.0055094313397693094
59.872,0.00260478776206325,0.00260478776206325
59.873,0.01043364511554175,0.01043364511554175
59.874,0.015727517692962607,0.015727517692962607
59.875,0.017039466328536455,0.017039466328536455
59.876,0.014090373543358983,0.014090373543358983
59.877,0.007752714972056255,0.007752714972056255
59.878,0.0003026537122600821,-0.0003026537122600821
59.879,0.008148854947261608,-0.008148854947261608
59.879999999999995,0.01414318310224851,-0.01414318310224851
59.881,0.017299429478057776,-0.017299429478057776
59.882,0.01740537988341007,-0.01740537988341007
59.882999999999996,0.014897056363289897,-0.014897056363289897
59.884,0.010582186857712514,-0.010582186857712514
59.885,0.005341195560075732,-0.005341195560075732
59.885999999999996,8.345513894214619e-05,8.345513894214619e-05
59.887,0.005156704929044408,0.005156704929044408
59.888,0.009497369848951429,0.009497369848951429
59.888999999999996,0.012773781460716943,0.012773781460716943
59.89,0.01463603697506605,0.01463603697506605
59.891,0.014744829029419699,0.014744829029419699
59.891999999999996,0.012900434151428487,0.012900434151428487
59.893,0.009215949427986165,0.009215949427986165
59.894,0.004243245748038759,0.004243245748038759
59.894999999999996,0.0010346016071373777,-0.0010346016071373777
59.896,0.005384358496519594,-0.005384358496519594
59.897,0.007646995072534535,-0.007646995072534535
59.897999999999996,0.007109111622080019,-0.007109111622080019
59.899,0.0037907288535355063,-0.0037907288535355063
59.9,0.0014675997727176962,0.0014675997727176962
59.900999999999996,0.007175238491608971,0.007175238491608971
59.902,0.01158938556356117,0.01158938556356117
59.903,0.013227429493903983,0.013227429493903983
59.903999999999996,0.011332633489470459,0.011332633489470459
59.905,0.006137998626999838,0.006137998626999838
59.906,0.0011666344992353785,-0.0011666344992353785
59.907,0.008764067913100608,-0.008764067913100608
59.908,0.014737865842602319,-0.014737865842602319
59.909,0.0176345266266713,-0.0176345266266713
59.91,0.016882873832157714,-0.016882873832157714
59.911,0.012940404787209307,-0.012940404787209307
59.912,0.007125744684650726,-0.007125744684650726
59.913,0.0011979212936683384,-0.0011979212936683384
59.914,0.003177587588495131,0.003177587588495131
59.915,0.004905340249535133,0.004905340249535133
59.916,0.0037348610754800405,0.0037348610754800405
59.917,0.000262720481410784,0.000262720481410784
59.918,0.004317231722956662,-0.004317231722956662
59.919,0.008615028035957274,-0.008615028035957274
59.92,0.011456495009721202,-0.011456495009721202
59.921,0.012175673097020183,-0.012175673097020183
59.922,0.010711383917640392,-0.010711383917640392
59.923,0.007506754718151398,-0.007506754718151398
59.924,0.0032784511499743345,-0.0032784511499743345
59.925,0.0012410376598103725,0.0012410376598103725
59.926,0.00549049214068188,0.00549049214068188
59.927,0.00914141495064333,0.00914141495064333
59.928,0.01203880081051939,0.01203880081051939
59.929,0.01407843596904141,0.01407843596904141
59.93,0.015101488526289474,0.015101488526289474
59.931,0.01487328470483501,0.01487328470483501
59.932,0.013168656528811572,0.013168656528811572
59.933,0.00993046540488403,0.00993046540488403
59.934,0.005425020223273863,0.005425020223273863
59.935,0.00030737596300065446,0.00030737596300065446
59.936,0.004462577533058136,-0.004462577533058136
59.937,0.007854938999562945,-0.007854938999562945
59.938,0.009092108280976596,-0.009092108280976596
59.939,0.007948425051107386,-0.007948425051107386
59.94,0.004909051648183595,-0.004909051648183595
59.940999999999995,0.0011074465887274925,-0.0011074465887274925
59.942,0.0019670119959741502,0.0019670119959741502
59.943,0.0029171660058325884,0.0029171660058325884
59.943999999999996,0.0009048947373449947,0.0009048947373449947
59.945,0.004019564257252232,-0.004019564257252232
59.946,0.010847430144168826,-0.010847430144168826
59.946999999999996,0.017842903525229072,-0.017842903525229072
59.948,0.02302072730437365,-0.02302072730437365
59.949,0.024729810033085414,-0.024729810033085414
59.949999999999996,0.022162026213053746,-0.022162026213053746
59.951,0.01562311632593876,-0.01562311632593876
59.952,0.006474709635744379,-0.006474709635744379
59.952999999999996,0.0032401266153652183,0.0032401266153652183
59.954,0.011374683422230872,0.011374683422230872
59.955,0.016281909792268966,0.016281909792268966
59.955999999999996,0.017258087146322158,0.017258087146322158
59.957,0.014694099303240536,0.014694099303240536
59.958,0.009895841416453072,0.009895841416453072
59.958999999999996,0.004640186978833639,0.004640186978833639
59.96,0.000613929352050131,0.000613929352050131
59.961,0.0010855946947245282,-0.0010855946947245282
59.961999999999996,0.00023664083292194467,-0.00023664083292194467
59.963,0.0025108881105209186,0.0025108881105209186
59.964,0.005910292550907015,0.005910292550907015
59.964999999999996,0.008559694993587816,0.008559694993587816
59.966,0.009359726483281545,0.009359726483281545
59.967,0.007841721275033482,0.007841721275033482
59.967999999999996,0.004273080380038307,0.004273080380038307
59.969,0.00047442236025906,-0.00047442236025906
59.97,0.005229743396095883,-0.005229743396095883
59.971,0.008886859607892856,-0.008886859607892856
59.972,0.010705897654966977,-0.010705897654966977
59.973,0.01046266638995243,-0.01046266638995243
59.974,0.00841914133788642,-0.00841914133788642
59.975,0.005152053804145798,-0.005152053804145798
59.976,0.0013217757991337668,-0.0013217757991337668
59.977,0.0025255020946989685,0.0025255020946989685
59.978,0.006054069999444773,0.006054069999444773
59.979,0.009113799524615713,0.009113799524615713
59.98,0.011626741301911325,0.011626741301911325
59.981,0.013453667809163019,0.013453667809163019
59.982,0.01431485076211044,0.01431485076211044
59.983,0.013813860361532426,0.013813860361532426
59.984,0.01156697663094409,0.01156697663094409
59.985,0.00739238275690698,0.00739238275690698
59.986,0.001481905206664866,0.001481905206664866
59.987,0.005523542329355195,-0.005523542329355195
59.988,0.012603888524285359,-0.012603888524285359
59.989,0.018573365157283257,-0.018573365157283257
59.99,0.022381871170990563,-0.022381871170990563
59.991,0.023411680491076527,-0.023411680491076527
59.992,0.021670879162161753,-0.021670879162161753
59.993,0.01781300497436549,-0.01781300497436549
59.994,0.012965883451539888,-0.012965883451539888
59.995,0.008413932347070385,-0.008413932347070385
59.996,0.005226723029518526,-0.005226723029518526
59.997,0.0039460280521791125,-0.0039460280521791125
59.998,0.004427359804758507,-0.004427359804758507
59.999,0.005885360812713545,-0.005885360812713545
60.0,0.007130484528116455,-0.007130484528116455
60.001,0.006927025796417602,-0.006927025796417602
60.002,0.004367586470406635,-0.004367586470406635
60.003,0.0008433548356268506,0.0008433548356268506
60.004,0.008274500220710086,0.008274500220710086
60.004999999999995,0.01684809102163493,0.01684809102163493
60.006,0.025086373111428237,0.025086373111428237
60.007,0.03145133690270831,0.03145133690270831
60.007999999999996,0.03468546718819856,0.03468546718819856
60.009,0.03406950242292904,0.03406950242292904
60.01,0.029543802672799456,0.029543802672799456
60.010999999999996,0.021681213578217343,0.021681213578217343
60.012,0.01153776935130426,0.01153776935130426
60.013,0.0004324029249582233,0.0004324029249582233
60.013999999999996,0.01028685636774169,-0.01028685636774169
60.015,0.019443069546062987,-0.019443069546062987
60.016,0.02616988869297702,-0.02616988869297702
60.016999999999996,0.02998422887390843,-0.02998422887390843
60.018,0.030800571521095253,-0.030800571521095253
60.019,0.028900547967250882,-0.028900547967250882
60.019999999999996,0.024868816887260274,-0.024868816887260274
60.021,0.019500688304182508,-0.019500688304182508
60.022,0.013684028241841924,-0.013684028241841924
60.022999999999996,0.008261194605468442,-0.008261194605468442
60.024,0.003885803430985654,-0.003885803430985654
60.025,0.000899912726467037,-0.000899912726467037
60.025999999999996,0.0007364181345946568,0.0007364181345946568
60.027,0.0014347552442793123,0.0014347552442793123
60.028,0.0018742053830100593,0.0018742053830100593
60.028999999999996,0.0028155983990704476,0.0028155983990704476
60.03,0.0048730086771351655,0.0048730086771351655
60.031,0.008301642440732396,0.008301642440732396
60.032,0.012865636547188702,0.012865636547188702
60.033,0.017834372170608633,0.017834372170608633
60.034,0.0221236926124374,0.0221236926124374
60.035,0.024557215722435445,0.024557215722435445
60.036,0.024184873084003265,0.024184873084003265
60.037,0.020573114548942072,0.020573114548942072
60.038,0.013982198342682738,0.013982198342682738
60.039,0.0053720924321559345,0.0053720924321559345
60.04,0.0037765295088233453,-0.0037765295088233453
60.041,0.011788306931940426,-0.011788306931940426
60.042,0.01718541153724791,-0.01718541153724791
60.043,0.0190436624541056,-0.0190436624541056
60.044,0.01721713122257491,-0.01721713122257491
60.045,0.012369823196082165,-0.012369823196082165
60.046,0.005804809709976535,-0.005804809709976535
60.047,0.0008638651461796766,0.0008638651461796766
60.048,0.006108733304514953,0.006108733304514953
60.049,0.008850272117148977,0.008850272117148977
60.05,0.008688122981272597,0.008688122981272597
60.051,0.005945790306811237,0.005945790306811237
60.052,0.0015249917826606078,0.0015249917826606078
60.053,0.003381816375665849,-0.003381816375665849
60.054,0.007634852982129985,-0.007634852982129985
60.055,0.010448320014699352,-0.010448320014699352
60.056,0.011567390900928284,-0.011567390900928284
60.057,0.011277213326439819,-0.011277213326439819
60.058,0.010249929542896932,-0.010249929542896932
60.059,0.009282072788915255,-0.009282072788915255
60.06,0.009004679621527971,-0.009004679621527971
60.061,0.009654050937812344,-0.009654050937812344
60.062,0.010971442431403878,-0.010971442431403878
60.063,0.012261363590976956,-0.012261363590976956
60.064,0.012592026210282742,-0.012592026210282742
60.065,0.011080938765046976,-0.011080938765046976
60.065999999999995,0.007184797554708672,-0.007184797554708672
60.067,0.0009117538553808778,-0.0009117538553808778
60.068,0.007104576762713135,0.007104576762713135
60.068999999999996,0.015692837225230953,0.015692837225230953
60.07,0.02337430589945429,0.02337430589945429
60.071,0.028680322822362426,0.028680322822362426
60.071999999999996,0.030479891191045085,0.030479891191045085
60.073,0.0282392957579741,0.0282392957579741
60.074,0.022153567153706356,0.022153567153706356
60.074999999999996,0.013121324476824878,0.013121324476824878
60.076,0.002571382357757382,0.002571382357757382
60.077,0.007817610211605397,-0.007817610211605397
60.077999999999996,0.016441664690924413,-0.016441664690924413
60.079,0.022070942695617064,-0.022070942695617064
60.08,0.024064079886120478,-0.024064079886120478
60.080999999999996,0.02245805682882564,-0.02245805682882564
60.082,0.01792158527287079,-0.01792158527287079
60.083,0.011587536750367266,-0.011587536750367266
60.083999999999996,0.004802530039684713,-0.004802530039684713
60.085,0.0011541772106931382,0.0011541772106931382
60.086,0.005326510336812394,0.005326510336812394
60.086999999999996,0.007262341223357959,0.007262341223357959
60.088,0.007084174401789323,0.007084174401789323
60.089,0.0054355686202727845,0.0054355686202727845
60.089999999999996,0.0033128708924907006,0.0033128708924907006
60.091,0.001814871261520877,0.001814871261520877
60.092,0.0018613146397739738,0.0018613146397739738
60.092999999999996,0.0039409811575768705,0.0039409811575768705
60.094,0.00794825625740945,0.00794825625740945
60.095,0.013152495365075696,0.013152495365075696
60.096,0.018318371106169157,0.018318371106169157
60.097,0.02196207207221388,0.02196207207221388
60.098,0.022694584593724396,0.022694584593724396
60.099,0.019577519499232858,0.019577519499232858
60.1,0.012406540873535505,0.012406540873535505
60.101,0.0018470019026310199,0.0018470019026310199
60.102,0.010624195571238514,-0.010624195571238514
60.103,0.022972667861978328,-0.022972667861978328
60.104,0.03301041574887457,-0.03301041574887457
60.105,0.038862887300697785,-0.038862887300697785
60.106,0.03939125615290552,-0.03939125615290552
60.107,0.034466721366048975,-0.034466721366048975
60.108,0.02502506489519993,-0.02502506489519993
60.109,0.01288102498479555,-0.01288102498479555
60.11,0.00034069680326254077,-0.00034069680326254077
60.111,0.010299023561040363,0.010299023561040363
60.112,0.017245644675591094,0.017245644675591094
60.113,0.019583112806984174,0.019583112806984174
60.114,0.01743348175057474,0.01743348175057474
60.115,0.011873987100448482,0.011873987100448482
60.116,0.004636612286331016,0.004636612286331016
60.117,0.002329357289556087,-0.002329357289556087
60.118,0.0073198379568896925,-0.0073198379568896925
60.119,0.009249944021014695,-0.009249944021014695
60.12,0.007853752351706019,-0.007853752351706019
60.121,0.0036729680286159945,-0.0036729680286159945
60.122,0.002146438341058018,0.002146438341058018
60.123,0.008182899740957855,0.008182899740957855
60.124,0.013099572212370746,0.013099572212370746
60.125,0.015942533279035637,0.015942533279035637
60.126,0.01630811297645222,0.01630811297645222
60.127,0.014352163522912291,0.014352163522912291
60.128,0.010659414499521748,0.010659414499521748
60.129,0.00602719210058839,0.00602719210058839
60.129999999999995,0.0012351937031274507,0.0012351937031274507
60.131,0.003131784666103338,-0.003131784666103338
60.132,0.006765091821902716,-0.006765091821902716
60.132999999999996,0.00960869919477106,-0.00960869919477106
60.134,0.011756005552078602,-0.011756005552078602
60.135,0.013315218500800658,-0.013315218500800658
60.135999999999996,0.0142976879188176,-0.0142976879188176
60.137,0.014571762779081515,-0.014571762779081515
60.138,0.01389955341466555,-0.01389955341466555
60.138999999999996,0.01204378936103024,-0.01204378936103024
60.14,0.008906361717316015,-0.008906361717316015
60.141,0.004647077235183532,-0.004647077235183532
60.141999999999996,0.00026532908226772754,0.00026532908226772754
60.143,0.0050987098709131965,0.0050987098709131965
60.144,0.008999074001337863,0.008999074001337863
60.144999999999996,0.011196907382744283,0.011196907382744283
60.146,0.01122366482624147,0.01122366482624147
60.147,0.009075262003709375,0.009075262003709375
60.147999999999996,0.00526870095044161,0.00526870095044161
60.149,0.0007634841483572894,0.0007634841483572894
60.15,0.0032450088730919912,-0.0032450088730919912
60.150999999999996,0.005616728966856188,-0.005616728966856188
60.152,0.005572165414572717,-0.005572165414572717
60.153,0.002930981820380943,-0.002930981820380943
60.153999999999996,0.0017854724881387252,0.0017854724881387252
60.155,0.007426795750248609,0.007426795750248609
60.156,0.012457078166238755,0.012457078166238755
60.157,0.015319773827110781,0.015319773827110781
60.158,0.014838773707154272,0.014838773707154272
60.159,0.010554924059618222,0.010554924059618222
60.16,0.002907007616977762,0.002907007616977762
60.161,0.006799543634565217,-0.006799543634565217
60.162,0.016641738642849728,-0.016641738642849728
60.163,0.024495866436590817,-0.024495866436590817
60.164,0.028526541655070695,-0.028526541655070695
60.165,0.027629619146230803,-0.027629619146230803
60.166,0.021717666058729795,-0.021717666058729795
60.167,0.011772915778301082,-0.011772915778301082
60.168,0.0003505029752598351,0.0003505029752598351
60.169,0.012330299614816376,0.012330299614816376
60.17,0.02188856772804981,0.02188856772804981
60.171,0.02728841839115089,0.02728841839115089
60.172,0.027694908944734958,0.027694908944734958
60.173,0.023316733135109048,0.023316733135109048
60.174,0.015302812276898605,0.015302812276898605
60.175,0.005431090754914349,0.005431090754914349
60.176,0.004321924605978451,-0.004321924605978451
60.177,0.012216903106310515,-0.012216903106310515
60.178,0.01708536850396348,-0.01708536850396348
60.179,0.018489589320759642,-0.018489589320759642
60.18,0.016690057984000212,-0.016690057984000212
60.181,0.012456250741052907,-0.012456250741052907
60.182,0.006795810214834937,-0.006795810214834937
60.183,0.0006909272669870261,-0.0006909272669870261
60.184,0.005084029108764256,0.005084029108764256
60.185,0.010026220385818274,0.010026220385818274
60.186,0.01385732080732299,0.01385732080732299
60.187,0.016412239075862912,0.016412239075862912
60.188,0.017529001700969164,0.017529001700969164
60.189,0.016998788640789422,0.016998788640789422
60.19,0.014606274676934657,0.014606274676934657
60.190999999999995,0.010249899868397607,0.010249899868397607
60.192,0.004094265727229972,0.004094265727229972
60.193,0.003313619954647655,-0.003313619954647655
60.193999999999996,0.011027896613390119,-0.011027896613390119
60.195,0.017821552556156594,-0.017821552556156594
60.196,0.02242772543229655,-0.02242772543229655
60.196999999999996,0.023848385841524704,-0.023848385841524704
60.198,0.02164350693582798,-0.02164350693582798
60.199,0.016109529238607475,-0.016109529238607475
60.199999999999996,0.008281132094047294,-0.008281132094047294
60.201,0.0002614645692375834,0.0002614645692375834
60.202,0.007740479161606618,0.007740479161606618
60.202999999999996,0.012596546242623206,0.012596546242623206
60.204,0.013861592628632477,0.013861592628632477
60.205,0.011386156800169103,0.011386156800169103
60.205999999999996,0.005858024354096935,0.005858024354096935
60.207,0.0013923105803220974,-0.0013923105803220974
60.208,0.00874342543607099,-0.00874342543607099
60.208999999999996,0.014692098996922944,-0.014692098996922944
60.21,0.018205676917007446,-0.018205676917007446
60.211,0.018923211004351487,-0.018923211004351487
60.211999999999996,0.017158139615101563,-0.017158139615101563
60.213,0.013715337823436282,-0.013715337823436282
60.214,0.009589705951292415,-0.009589705951292415
60.214999999999996,0.005645545345196101,-0.005645545345196101
60.216,0.002376426979314152,-0.002376426979314152
60.217,0.00018523594554722804,0.00018523594554722804
60.217999999999996,0.002390768773511594,0.002390768773511594
60.219,0.004766792293988193,0.004766792293988193
60.22,0.00775383881345466,0.00775383881345466
60.221,0.011484760572754351,0.011484760572754351
60.222,0.015679565744346768,0.015679565744346768
60.223,0.019692324920086435,0.019692324920086435
60.224,0.022693750566393976,0.022693750566393976
60.225,0.02392723833423181,0.02392723833423181
60.226,0.02295162976190063,0.02295162976190063
60.227,0.01978865155241724,0.01978865155241724
60.228,0.014925166532037588,0.014925166532037588
60.229,0.009169214831367782,0.009169214831367782
60.23,0.0034080033135297995,0.0034080033135297995
60.231,0.0016509333871979948,-0.0016509333871979948
60.232,0.00566836008417617,-0.00566836008417617
60.233,0.008728256784860661,-0.008728256784860661
60.234,0.011240750777901121,-0.011240750777901121
60.235,0.013726731990838343,-0.013726731990838343
60.236,0.016559098632174158,-0.016559098632174158
60.237,0.019752185308217197,-0.019752185308217197
60.238,0.022876892183837726,-0.022876892183837726
60.239,0.025138528056012324,-0.025138528056012324
60.24,0.025600440538525927,-0.025600440538525927
60.241,0.023486822735193813,-0.023486822735193813
60.242,0.018469184183150935,-0.018469184183150935
60.243,0.010842720905083364,-0.010842720905083364
60.244,0.0015310782036026494,-0.0015310782036026494
60.245,0.008089419083907142,0.008089419083907142
60.246,0.01649903319206046,0.01649903319206046
60.247,0.02238911564694878,0.02238911564694878
60.248,0.02496037091395479,0.02496037091395479
60.249,0.024082224221637843,0.024082224221637843
60.25,0.02027491479263423,0.02027491479263423
60.251,0.014530766818206234,0.014530766818206234
60.252,0.008038301051624796,0.008038301051624796
60.253,0.001897190828427529,0.001897190828427529
60.254,0.0030936108996622025,-0.0030936108996622025
60.254999999999995,0.006524626508524979,-0.006524626508524979
60.256,0.008338137827188577,-0.008338137827188577
60.257,0.008704317635952178,-0.008704317635952178
60.257999999999996,0.007876663913050612,-0.007876663913050612
60.259,0.006090356280972949,-0.006090356280972949
60.26,0.0035401473998423545,-0.0035401473998423545
60.260999999999996,0.0004336078012078709,-0.0004336078012078709
60.262,0.00292230057042235,0.00292230057042235
60.263,0.006062464840804994,0.006062464840804994
60.263999999999996,0.008385530768867992,0.008385530768867992
60.265,0.009275700312131428,0.009275700312131428
60.266,0.008297138774878542,0.008297138774878542
60.266999999999996,0.005392948891990755,0.005392948891990755
60.268,0.0010034277144147443,0.0010034277144147443
60.269,0.003965448367675111,-0.003965448367675111
60.269999999999996,0.008345072938161257,-0.008345072938161257
60.271,0.011037095757328457,-0.011037095757328457
60.272,0.011377600054751412,-0.011377600054751412
60.272999999999996,0.009406502012222106,-0.009406502012222106
60.274,0.005931971790096303,-0.005931971790096303
60.275,0.0023382730563212464,-0.0023382730563212464
60.275999999999996,0.00017020768907194012,-0.00017020768907194012
60.277,0.000610506155874255,-0.000610506155874255
60.278,0.004017987041980339,-0.004017987041980339
60.278999999999996,0.009692512680675426,-0.009692512680675426
60.28,0.01597297788451386,-0.01597297788451386
60.281,0.02067207562655918,-0.02067207562655918
60.282,0.021737936529867045,-0.021737936529867045
60.283,0.017945990350094584,-0.017945990350094584
60.284,0.009396362233596812,-0.009396362233596812
60.285,0.0023630796773338562,0.0023630796773338562
60.286,0.014659910550926625,0.014659910550926625
60.287,0.024398943637098425,0.024398943637098425
60.288,0.028948294285506274,0.028948294285506274
60.289,0.02694412359962973,0.02694412359962973
60.29,0.018759222846656966,0.018759222846656966
60.291,0.006474013498492607,0.006474013498492607
60.292,0.006662050422349493,-0.006662050422349493
60.293,0.01713156031828593,-0.01713156031828593
60.294,0.022147998531488973,-0.022147998531488973
60.295,0.02045093979011438,-0.02045093979011438
60.296,0.012654401897138613,-0.012654401897138613
60.297,0.0010415167610930422,-0.0010415167610930422
60.298,0.011129462709282265,0.011129462709282265
60.299,0.020590590192202406,0.020590590192202406
60.3,0.025000720501444845,0.025000720501444845
60.301,0.023565931843897422,0.023565931843897422
60.302,0.0171621061087789,0.0171621061087789
60.303,0.007940752512464393,0.007940752512464393
60.304,0.0014342589981121896,-0.0014342589981121896
60.305,0.00865606599704895,-0.00865606599704895
60.306,0.012460999851273562,-0.012460999851273562
60.307,0.012912844384379655,-0.012912844384379655
60.308,0.011208977410358742,-0.011208977410358742
60.309,0.009097756839977345,-0.009097756839977345
60.31,0.008128510663311448,-0.008128510663311448
60.311,0.009009146643703732,-0.009009146643703732
60.312,0.011303977230950599,-0.011303977230950599
60.313,0.013581200648669724,-0.013581200648669724
60.314,0.013958673618322091,-0.013958673618322091
60.315,0.010854090112631823,-0.010854090112631823
60.315999999999995,0.003670914920106009,-0.003670914920106009
60.317,0.0068296553879486875,0.0068296553879486875
60.318,0.018614341255932084,0.018614341255932084
60.318999999999996,0.02890807667700997,0.02890807667700997
60.32,0.0350029237002164,0.0350029237002164
60.321,0.03508272180385088,0.03508272180385088
60.321999999999996,0.028793068260456064,0.028793068260456064
60.323,0.017370244480586886,0.017370244480586886
60.324,0.003288992903700125,0.003288992903700125
60.324999999999996,0.010452773939133414,-0.010452773939133414
60.326,0.02117807029882359,-0.02117807029882359
60.327,0.027234009883563753,-0.027234009883563753
60.327999999999996,0.028339917883107617,-0.028339917883107617
60.329,0.025491730975861538,-0.025491730975861538
60.33,0.020484610537676196,-0.020484610537676196
60.330999999999996,0.015238977484439736,-0.015238977484439736
60.332,0.011169650895222791,-0.011169650895222791
60.333,0.00880711013371763,-0.00880711013371763
60.333999999999996,0.007778139328934882,-0.007778139328934882
60.335,0.007118973251677478,-0.007118973251677478
60.336,0.005776581071091833,-0.005776581071091833
60.336999999999996,0.003094460248272162,-0.003094460248272162
60.338,0.000902436291693927,0.000902436291693927
60.339,0.005522717596971968,0.005522717596971968
60.339999999999996,0.009702440795364855,0.009702440795364855
60.341,0.012448709633460097,0.012448709633460097
60.342,0.01324836216748445,0.01324836216748445
60.342999999999996,0.012274458719257317,0.012274458719257317
60.344,0.010305925129873281,0.010305925129873281
60.345,0.008391454720424548,0.008391454720424548
