Czas,Sum
146.642,0.006926648216379296
146.643,0.008008337737571305
146.644,0.007925099890318626
146.645,0.0065949075570835725
146.64600000000002,0.004195102581467427
146.64700000000002,0.0011056764238436924
146.648,0.002183625173986823
146.649,0.005174590620555383
146.65,0.007446408303238358
146.651,0.008712135117612608
146.65200000000002,0.008843050919332147
146.65300000000002,0.007866783098020993
146.654,0.005948734201415591
146.655,0.003365074866449116
146.656,0.0004713466096350085
146.657,0.0023335995310073436
146.65800000000002,0.0046505665536157315
146.65900000000002,0.006130628920239118
146.66,0.0065298261768093925
146.661,0.005759149814830881
146.662,0.003917447808950495
146.663,0.0012949175362334576
146.66400000000002,0.001660662694867884
146.66500000000002,0.004414647861755377
146.666,0.0064430948390880585
146.667,0.007338485877684255
146.668,0.006900129018668353
146.669,0.0051865900056577065
146.67000000000002,0.002514335008741047
146.67100000000002,0.0006016023209751515
146.672,0.0035552103113188514
146.673,0.0057828097838069775
146.674,0.006891248290116743
146.675,0.00674899324025558
146.67600000000002,0.005515229030734658
146.67700000000002,0.0035964156339777145
146.678,0.001538301527699806
146.679,0.00012055477310178662
146.68,0.0009952656451287845
146.681,0.0009600112374288356
146.68200000000002,0.00018035428218845094
146.68300000000002,0.0009401976540856709
146.684,0.0018872691199421977
146.685,0.0022010553378800884
146.686,0.0016307019027780687
146.687,0.00022843630316182084
146.68800000000002,0.001649855168933018
146.68900000000002,0.0034430927118172484
146.69,0.004556283249735844
146.691,0.004552903781299028
146.692,0.003306413826301236
146.693,0.0010585536654553363
146.69400000000002,0.0016400668361135678
146.69500000000002,0.004093557512432895
146.696,0.005678975377928661
146.697,0.006048143445930587
146.698,0.005243459718127094
146.699,0.0036836337561520637
146.70000000000002,0.002017769025997624
146.70100000000002,0.0008920509792627776
146.702,0.0007067639911697089
146.703,0.0014499042120768764
146.704,0.0026725637725181616
146.705,0.0036258437912401265
146.70600000000002,0.003523471896426003
146.707,0.0018472107839232102
146.708,0.0014095196900512925
146.709,0.0056514165709781895
146.71,0.009790658522006338
146.711,0.012537677910280341
146.71200000000002,0.01279258142646072
146.713,0.010016981278361078
146.714,0.004464174784976942
146.715,0.002816017373594362
146.716,0.01021373307284829
146.717,0.01597691124547961
146.71800000000002,0.018690976070764993
146.719,0.017677602920660358
146.72,0.013191346462165623
146.721,0.006353132972568916
146.722,0.0011603675221825253
146.723,0.007578227644231629
146.72400000000002,0.011509655240128211
146.725,0.012292310521779632
146.726,0.010117947306182816
146.727,0.005910129674656134
146.728,0.0010054275352874016
146.729,0.0032534149109940532
146.73000000000002,0.00588402341636693
146.731,0.006484559563355054
146.732,0.005256267341315027
146.733,0.002844667948765366
146.734,7.25030886537146e-05
146.735,0.0023348563846364366
146.73600000000002,0.00393991519741814
146.737,0.004647929345666952
146.738,0.004629288456150802
146.739,0.004161071641039348
146.74,0.0034643882748579624
146.741,0.0026075832881933634
146.74200000000002,0.0015116140873129731
146.743,4.729505260480771e-05
146.744,0.0018264677876502556
146.745,0.003952771932559471
146.746,0.0059535697373177
146.747,0.007315834739796344
146.74800000000002,0.007562968266916103
146.749,0.006448561793340498
146.75,0.004094473301890374
146.751,0.0010106031051785162
146.752,0.0020250104775510923
146.75300000000001,0.00419500138891837
146.75400000000002,0.004906099441409781
146.755,0.003994914011932369
146.756,0.0017992717064715712
146.757,0.0009372336824890885
146.758,0.0033016399507355154
146.75900000000001,0.0045120388952966
146.76000000000002,0.004179890262804769
146.761,0.0024425996530337652
146.762,8.193634282685663e-05
146.763,0.002505746071168768
146.764,0.003975222222044082
146.76500000000001,0.003964910048603507
146.76600000000002,0.0024586505828676076
146.767,4.5359184328575804e-05
146.768,0.002707894778768263
146.769,0.004640423346669621
146.77,0.005213681472766466
146.77100000000002,0.004275501808783578
146.77200000000002,0.0022018646602229883
146.773,0.00023665927116876186
146.774,0.002146523920060533
146.775,0.0028262871763276107
146.776,0.002015582723641366
146.77700000000002,8.439867384731397e-06
146.77800000000002,0.0025206470170799134
146.779,0.00459266142153194
146.78,0.005408948600380589
146.781,0.004546590910633924
146.782,0.002124387549245837
146.78300000000002,0.0012278364444427683
146.78400000000002,0.004567692578147232
146.785,0.006938586491855762
146.786,0.007668368431046633
146.787,0.006571165815487539
146.788,0.00399010213279917
146.78900000000002,0.0006729063384187078
146.79000000000002,0.0024727860635981075
146.791,0.0046607315355956256
146.792,0.005452757582810877
146.793,0.004862488971348375
146.794,0.0033117317298353628
146.79500000000002,0.0014641987862235913
146.79600000000002,1.2237876745858533e-06
146.797,0.0006011868362193364
146.798,0.00017799992679395774
146.799,0.001083430685727556
146.8,0.002744904723520783
146.80100000000002,0.004270407477920788
146.80200000000002,0.0051914980056433965
146.803,0.005230679223191012
146.804,0.00435181775809789
146.805,0.002735013226193911
146.806,0.0006981324348872386
146.80700000000002,0.0013997634530342816
146.80800000000002,0.0032395992362976157
146.809,0.004588105112605166
146.81,0.005306577749618837
146.811,0.005335888348765476
146.812,0.0046770934859860745
146.81300000000002,0.0033828100129383904
146.81400000000002,0.0015633085291827584
146.815,0.0006009093033916441
146.816,0.0028554048159589846
146.817,0.004890931307314852
146.818,0.006390025014585055
146.81900000000002,0.007092623769309855
146.82000000000002,0.0068614539802644625
146.821,0.005724419510098687
146.822,0.0038770250876961642
146.823,0.0016409864808082362
146.824,0.0006095286407858298
146.82500000000002,0.0025312803628503066
146.82600000000002,0.003879473372651851
146.827,0.004540836913231727
146.828,0.004527341549938598
146.829,0.003940330888371693
146.83,0.002924530582501969
146.83100000000002,0.0016321609256094468
146.832,0.00020918051442360162
146.833,0.0011975944535861074
146.834,0.002425933314302297
146.835,0.0032948794919869686
146.836,0.0036267792700427843
146.83700000000002,0.0032958009917232116
146.838,0.0022882494082968764
146.839,0.0007485290741686125
146.84,0.001016381423236267
146.841,0.002589546576161639
146.842,0.0035485198512803817
146.84300000000002,0.0035937845365503276
146.844,0.0026583583363625762
146.845,0.000955560776334933
146.846,0.0010613441721171802
146.847,0.0028248042479977996
146.848,0.003829453111060789
146.84900000000002,0.0038025770086830717
146.85,0.0028081221683580967
146.851,0.0012420229761690854
146.852,0.0002881095639359402
146.853,0.0011651932149238317
146.854,0.0009813494765471545
146.85500000000002,0.0003028493531399274
146.856,0.002318498974677016
146.857,0.004389457995737617
146.858,0.0057477331861932384
146.859,0.00579487523705442
146.86,0.004321333440697919
146.86100000000002,0.001605818987711707
146.862,0.001645511870613063
146.863,0.004506917119201342
146.864,0.0061239771174407655
146.865,0.005992950209022794
146.866,0.00413484387948994
146.86700000000002,0.0011033640922122338
146.868,0.0021797533279590015
146.869,0.004710963567824044
146.87,0.005720473893999846
146.871,0.004914421567081833
146.872,0.0025648675906008176
146.87300000000002,0.0005808557140616948
146.874,0.0035402467510743155
146.875,0.005405268743472024
146.876,0.005620207019795894
146.877,0.004139252227912961
146.87800000000001,0.0014173856194949414
146.87900000000002,0.001755422857914637
146.88,0.004515438267733007
146.881,0.006191774645082832
146.882,0.0064911847453880305
146.883,0.005546105386007891
146.88400000000001,0.0038205210095089885
146.88500000000002,0.001917000268591673
146.886,0.0003593571757800549
146.887,0.0005713457105278021
146.888,0.0008941738627944566
146.889,0.0008679270647461428
146.89000000000001,0.0008456490191965112
146.89100000000002,0.0011062265139494107
146.892,0.0017302542453329847
146.893,0.002566939919663298
146.894,0.003301553410016365
146.895,0.003593303451762522
146.89600000000002,0.00322655662170424
146.89700000000002,0.0022139058846178945
146.898,0.0008089911251080768
146.899,0.0005775558445736748
146.9,0.001527790910738189
146.901,0.0017746427348862526
146.90200000000002,0.0013074022574213165
146.90300000000002,0.0003825516031394241
146.904,0.0005666951461288003
146.905,0.001090546383446325
146.906,0.0008940641866207513
146.907,4.393203615690248e-05
146.90800000000002,0.0014501183952043933
146.90900000000002,0.00284451576124458
146.91,0.0037079505675867513
146.911,0.00367079291804385
146.912,0.0026559946216891646
146.913,0.0009246410762106802
146.91400000000002,0.0009941794165187084
146.91500000000002,0.0024673529521961573
146.916,0.00296136770655656
146.917,0.0022179208345219814
146.918,0.0003436318493918383
146.919,0.0022147768118151606
146.92000000000002,0.004800304376041378
146.92100000000002,0.00673715076524258
146.922,0.007522323460306963
146.923,0.006958761975234212
146.924,0.005193308534375768
146.925,0.00265530959368835
146.92600000000002,7.701727505680746e-05
146.92700000000002,0.00243555076986712
146.928,0.003997189552333425
146.929,0.004559386351897709
146.93,0.004144961063854083
146.931,0.002949362648948148
146.93200000000002,0.0012597653004322357
146.93300000000002,0.0006215506182542555
146.934,0.002426612342935568
146.935,0.003937828374192156
146.936,0.004980936752113603
146.937,0.0054141121724723285
146.93800000000002,0.005131003718533406
146.93900000000002,0.004084776663789354
146.94,0.0023256647682183924
146.941,3.300397232434824e-05
146.942,0.0024802267363833114
146.943,0.0048047978986268105
146.94400000000002,0.006513576888776098
146.94500000000002,0.0072626049840582435
146.946,0.006884706033446412
146.947,0.00544400615578248
146.948,0.0032301621961394232
146.949,0.0006900475650595625
146.95000000000002,0.001684588042808143
146.95100000000002,0.0034799743695308593
146.952,0.004456532693575923
146.953,0.004590401219846814
146.954,0.004050823502581559
146.955,0.003125266638831402
146.95600000000002,0.0021205121623046118
146.957,0.0012737015700512227
146.958,0.0007007962357221577
146.959,0.0003941042845477193
146.96,0.0002617763751328443
146.961,0.00018768214545089134
146.96200000000002,8.512474071985905e-05
146.963,7.621494370605885e-05
146.964,0.0002768899135829476
146.965,0.0004789937672768478
146.966,0.0006624736682452405
146.967,0.0008452720005556467
146.96800000000002,0.0010745285518144775
146.969,0.001390736666141588
146.97,0.0017812704172632855
146.971,0.0021475536074765937
146.972,0.0023073707237469417
146.973,0.002040795027792476
146.97400000000002,0.0011696743726769734
146.975,0.00035603012301183576
146.976,0.00239932786935056
146.977,0.004633423441291306
146.978,0.00660602206439857
146.979,0.007857487984408527
146.98000000000002,0.00805786856996711
146.981,0.007116996635931067
146.982,0.0052270500592298255
146.983,0.002817426634135481
146.984,0.00043117190322412136
146.985,0.001439633294368033
146.98600000000002,0.002505441771659912
146.987,0.0027651892437056532
146.988,0.0024942323009455205
146.989,0.002134568849500278
146.99,0.0021218964309475657
146.991,0.0027079255730766394
146.99200000000002,0.0038409997673971414
146.993,0.005151024395648392
146.994,0.0060509633608807276
146.995,0.0059276568483055255
146.996,0.004362713309591391
146.997,0.0013108381336951892
146.99800000000002,0.002826715424098708
146.999,0.007264595150004473
147.0,0.011020254566489982
147.001,0.01317388548285817
147.002,0.013125456624151407
147.00300000000001,0.010771987738500228
147.00400000000002,0.006551234955018934
147.005,0.0013377290590942624
147.006,0.0037789814367632305
147.007,0.0077697166170541156
147.008,0.009916258370128972
147.00900000000001,0.009968426214377046
147.01000000000002,0.00816882828249145
147.011,0.005146675515983781
147.012,0.0017197628705486155
147.013,0.0013324546559102487
147.014,0.003458338086733996
147.01500000000001,0.004436494397449616
147.01600000000002,0.004371981155672116
147.017,0.0036008036968221847
147.018,0.0025434745772247576
147.019,0.0015595858694423894
147.02,0.0008491527723649371
147.02100000000002,0.000426317386186102
147.02200000000002,0.00016446235311330307
147.023,0.000112044169225401
147.024,0.0005278400728715288
147.025,0.001086352654366988
147.026,0.0016543203397646749
147.02700000000002,0.002005275423680675
147.02800000000002,0.0019051750038441252
147.029,0.001208956443625426
147.03,6.661743498744589e-05
147.031,0.0017202777478572892
147.032,0.0034035473870337473
147.03300000000002,0.004708363984346285
147.03400000000002,0.005279305245441534
147.035,0.004916884247385763
147.036,0.0036409363168914306
147.037,0.0016949199258857648
147.038,0.0005108062368362577
147.03900000000002,0.002501207249920201
147.04000000000002,0.0038561261209803244
147.041,0.004314585613148587
147.042,0.003836026475233836
147.043,0.002602974823049439
147.044,0.0009658207954024462
147.04500000000002,0.000654081246536103
147.04600000000002,0.001876091248384325
147.047,0.002456701934697788
147.048,0.00234566109326059
147.049,0.0016883049350245552
147.05,0.0007754011845874005
147.05100000000002,4.422079582257286e-05
147.05200000000002,0.00046353859738056856
147.053,0.0003025018210001431
147.054,0.00044378527706979135
147.055,0.001605381530593714
147.056,0.0028843886273623035
147.05700000000002,0.003934108745046
147.05800000000002,0.004448339708753752
147.059,0.004237287425914963
147.06,0.00327171457043035
147.061,0.0016867372920753689
147.062,0.00025202480372810165
147.06300000000002,0.0022078682560944885
147.06400000000002,0.0038410675542033756
147.065,0.004869295471105327
147.066,0.005109353908881867
147.067,0.004496621034573392
147.068,0.003085361790991558
147.06900000000002,0.0010366945235585363
147.07000000000002,0.001399388639590541
147.071,0.003905154263223532
147.072,0.006121182196153044
147.073,0.007681902737998991
147.074,0.00826416641582832
147.07500000000002,0.0076472156245175164
147.07600000000002,0.005774713433114454
147.077,0.0028024210675657375
147.078,0.0008877190528946292
147.079,0.004722417483656184
147.08,0.008025169317027674
147.08100000000002,0.010146556711279262
147.082,0.010610179904944643
147.083,0.009237772927079087
147.084,0.006216985736732555
147.085,0.002086580620298505
147.086,0.0023657458053563214
147.08700000000002,0.006273492352163649
147.088,0.008889275586659529
147.089,0.009759851498251029
147.09,0.00883118154234906
147.091,0.006454030931783042
147.092,0.0032873824208647083
147.09300000000002,0.00012525954366373902
147.094,0.002306076351554553
147.095,0.003525658170377302
147.096,0.003403118778545315
147.097,0.002166190777161817
147.098,0.00031307183144033753
147.09900000000002,0.001541131688257351
147.1,0.002837711613475432
147.101,0.0032185560759421996
147.102,0.0026040676883268554
147.103,0.0011893481993533212
147.104,0.0006322846570688729
147.10500000000002,0.0023897140009326388
147.106,0.00366041407890116
147.107,0.004167917470303081
147.108,0.003828576478110058
147.109,0.0027437212377491517
147.11,0.0011496686241431965
147.11100000000002,0.0006522511760302189
147.112,0.0023626624723759797
147.113,0.003732063953544835
147.114,0.004584591110610549
147.115,0.004822636223277469
147.116,0.004422748659611796
147.11700000000002,0.0034323519623398386
147.118,0.0019708525730366463
147.119,0.0002310401457944217
147.12,0.0015286832938821466
147.121,0.003010781262093707
147.122,0.003927429468869795
147.12300000000002,0.004065570361550214
147.124,0.003352172950921339
147.125,0.0018981774648094854
147.126,1.4398989682023518e-06
147.127,0.0019013852245165315
147.12800000000001,0.0033291761588198168
147.12900000000002,0.0038765366954435936
147.13,0.0033286972733180503
147.131,0.0017379306205758673
147.132,0.0005636470171879204
147.133,0.0030237663080310284
147.13400000000001,0.004991254757681252
147.13500000000002,0.005870415796630139
147.136,0.005270149697059742
147.137,0.0031099553879419934
147.138,0.0003442586521020321
147.139,0.004523797227444909
147.14000000000001,0.008669733558527033
147.14100000000002,0.011987628894733666
147.142,0.013808914472341711
147.143,0.013723878985848138
147.144,0.011659836058520232
147.145,0.007891820074346937
147.14600000000002,0.002988117684768248
147.14700000000002,0.002294536810027089
147.148,0.0071435366311629524
147.149,0.010825916794650368
147.15,0.012804422699126836
147.151,0.012817316583403442
147.15200000000002,0.010912090532792173
147.15300000000002,0.007430369771585158
147.154,0.002947847804197009
147.155,0.0018211523734206316
147.156,0.006140103768349242
147.157,0.009369837846222386
147.15800000000002,0.011071940594160348
147.15900000000002,0.011078029024053707
147.16,0.009511625521010146
147.161,0.006757161712918134
147.162,0.0033805021723045006
147.163,1.5354024702896445e-05
147.16400000000002,0.0027623040352066355
147.16500000000002,0.00454616384443546
147.166,0.005174307958752821
147.167,0.004750522226216475
147.168,0.003607353230273963
147.169,0.002218843434898773
147.17000000000002,0.0010821946740550443
147.17100000000002,0.0005948566677683691
147.172,0.0009550112285745132
147.173,0.0021087024252966777
147.174,0.0037568681104950363
147.175,0.005422305026244619
147.17600000000002,0.006562903318635951
147.17700000000002,0.006706256622942461
147.178,0.005574565557948819
147.179,0.003169302147488711
147.18,0.0002072065695127428
147.181,0.004002420267331587
147.18200000000002,0.007528546470242823
147.18300000000002,0.010117318369787943
147.184,0.011278168244750062
147.185,0.010819755885941381
147.186,0.0089014147035857
147.187,0.005997289530974136
147.18800000000002,0.0027783475465387618
147.18900000000002,5.961281089783948e-05
147.19,0.0019769042095021537
147.191,0.00272945849465094
147.192,0.002425498620508276
147.193,0.0014799257610343273
147.19400000000002,0.0004763882140164033
147.19500000000002,2.452275337426772e-05
147.196,0.00032611977702760365
147.197,0.0015393951353301792
147.198,0.0032677527730828296
147.199,0.004901748652451209
147.20000000000002,0.005759752919207778
147.20100000000002,0.005314951740713305
147.202,0.003388731891750386
147.203,0.00024610167102007103
147.204,0.003443636902333972
147.205,0.006776875080707857
147.20600000000002,0.008870521203245153
147.207,0.009126647227919862
147.208,0.007425277936143825
147.209,0.004182622554039915
147.21,0.00025159790110382626
147.211,0.00331032462710466
147.21200000000002,0.005539224893969209
147.213,0.0058403281715596845
147.214,0.0041581661844834914
147.215,0.000989879978348077
147.216,0.002762031099108406
147.217,0.006052293090351291
147.21800000000002,0.00799094540304095
147.219,0.008087686695756383
147.22,0.006371702441851028
147.221,0.0033562280670873276
147.222,0.00013450230051545694
147.223,0.0032171347161145665
147.22400000000002,0.005200099953374984
147.225,0.005758760145611427
147.226,0.004988261427046454
147.227,0.0033287273569810325
147.228,0.001397439483294869
147.229,0.00021146377883689703
147.23000000000002,0.0010949935524934382
147.231,0.0011294053262431464
147.232,0.0004618384710848405
147.233,0.0005777948198127538
147.234,0.0016041580973397372
147.235,0.0022955716690528155
147.23600000000002,0.002467896451157778
147.237,0.0020887091761177166
147.238,0.0012418527272740096
147.239,6.950310721324965e-05
147.24,0.0012776107349176569
147.241,0.0026614347759598015
147.24200000000002,0.003947339694402457
147.243,0.0049804483448776405
147.244,0.005572799170996964
147.245,0.0055226407719385275
147.246,0.004671405553154088
147.247,0.002983048815012864
147.24800000000002,0.0006137626636446668
147.249,0.0020643044417793834
147.25,0.004510310710619979
147.251,0.006133729038009256
147.252,0.006457313054916912
147.25300000000001,0.0052744336535935285
147.25400000000002,0.0027455361445952128
147.255,0.0006071583426366282
147.256,0.004016655841766744
147.257,0.0066723750125334625
147.258,0.007947140396878273
147.25900000000001,0.0075789436185639885
147.26000000000002,0.005747566249116523
147.261,0.003018396088250967
147.262,0.00016873425831970571
147.263,0.0020490121362698593
147.264,0.0031313255964727127
147.26500000000001,0.0029627285894934506
147.26600000000002,0.0018264373885322138
147.267,0.00028616845485022736
147.268,0.0010179708959644133
147.269,0.001588357121447537
147.27,0.0012289816387665165
147.27100000000002,9.285275315912803e-05
147.27200000000002,0.0013940626206210508
147.273,0.002700515919781764
147.274,0.0033860475058692316
147.275,0.003254054840034262
147.276,0.0024080905798466814
147.27700000000002,0.0011943075089046141
147.27800000000002,5.5132154363535246e-05
147.279,0.0006485387347509959
147.28,0.0007787188212360576
147.281,0.0004720310205012297
147.282,8.269765687377069e-05
147.28300000000002,3.8797953801089936e-05
147.28400000000002,0.0006663161886079737
147.285,0.0020475875931537566
147.286,0.003967997013798949
147.287,0.005972042489731016
147.288,0.0075093722291637265
147.28900000000002,0.00811819271860329
147.29000000000002,0.007579810732647526
147.291,0.005988973518294002
147.292,0.003715928757506421
147.293,0.0012760027224259446
147.294,0.0008439036618055735
147.29500000000002,0.002337660609271509
147.29600000000002,0.0031561902332535815
147.297,0.0034826082217241576
147.298,0.0036201101986850217
147.299,0.003839770742144808
147.3,0.004250380502996162
147.30100000000002,0.004743349604231228
147.30200000000002,0.005035944448949018
147.303,0.004796982621147971
147.304,0.003805552601531111
147.305,0.002078371787935442
147.306,8.882655594758134e-05
147.30700000000002,0.0021891552943922995
147.30800000000002,0.00366349322565239
147.309,0.004096156277725438
147.31,0.0033760693931149323
147.311,0.0017613560138337095
147.312,0.0001821068736702778
147.31300000000002,0.001752949848776885
147.31400000000002,0.0023415818702335685
147.315,0.0016351068806230238
147.316,0.0002717424637088227
147.317,0.0028998018214878114
147.318,0.0055366426842385396
147.31900000000002,0.007464835536711973
147.32000000000002,0.008189328421558839
147.321,0.007586271383418927
147.322,0.005923359740891578
147.323,0.003747118443247017
147.324,0.0016793520237954672
147.32500000000002,0.00019656095480198108
147.32600000000002,0.0005287342912364142
147.327,0.0006688410101354236
147.328,0.0006508269288550201
147.329,0.0009697097639972144
147.33,0.00197388200087206
147.33100000000002,0.003701779238996964
147.332,0.005830647229121568
147.333,0.007758562867530242
147.334,0.008793819977944975
147.335,0.00838802170045891
147.336,0.006333834136304495
147.33700000000002,0.002860367579987748
147.338,0.0014061150973621222
147.339,0.005603499957926586
147.34,0.008864970151608219
147.341,0.01054707358754597
147.342,0.010386023058091599
147.34300000000002,0.008540114961548972
147.344,0.005514780940127759
147.345,0.002003584390189039
147.346,0.0012989315461524214
147.347,0.003854773205508636
147.348,0.005370187177675847
147.34900000000002,0.0058021109943047836
147.35,0.005300505781410491
147.351,0.004121532766514798
147.352,0.0025483107484611774
147.353,0.0008430651066252474
147.354,0.0007660213566089048
147.35500000000002,0.0020783359327395524
147.356,0.0029179713503654624
147.357,0.0031523770245138684
147.358,0.002734576724552386
147.359,0.0017523943202571782
147.36,0.000456056524758444
147.36100000000002,0.0007632319932277303
147.362,0.0014554488779959507
147.363,0.0012414423993693017
147.364,4.7328307212881414e-05
147.365,0.0022694384213431686
147.366,0.004959526605241711
147.36700000000002,0.007420538538590442
147.368,0.008907250493248552
147.369,0.008851175212708074
147.37,0.007056063862445865
147.371,0.0037955490301372083
147.372,0.00022870326463585546
147.37300000000002,0.004066258324756369
147.374,0.006786184294348486
147.375,0.007753057972918451
147.376,0.006822292095048793
147.377,0.004388782623413557
147.37800000000001,0.0012685166798887975
147.37900000000002,0.001552995659243629
147.38,0.003226945662296689
147.381,0.003303927958028869
147.382,0.001867577067062699
147.383,0.0005050305871765775
147.38400000000001,0.0029436675985555815
147.38500000000002,0.0045801769321511965
147.386,0.004841026147799143
147.387,0.003640011466017462
147.388,0.0014066809598058134
147.389,0.0010596370923612538
147.39000000000001,0.0028624605818107916
147.39100000000002,0.003317518716546733
147.392,0.0021963985068311088
147.393,0.00017683305338307803
147.394,0.003009603570218301
147.395,0.005280466099626039
147.39600000000002,0.0060592991631487824
147.39700000000002,0.0048073345890021065
147.398,0.0015629830555904333
147.399,0.0030442573166970244
147.4,0.00795581454516112
147.401,0.011972290183688594
147.40200000000002,0.014081381460334035
147.40300000000002,0.013729695301835333
147.404,0.010962733685004606
147.405,0.0063990616892378085
147.406,0.0010541271974646468
147.407,0.003929083884798316
147.40800000000002,0.007563399156498744
147.40900000000002,0.009238419394272362
147.41,0.00882714612148351
147.411,0.006663083201601461
147.412,0.003409430069725921
147.413,0.000132025774619055
147.41400000000002,0.0032157846480987684
147.41500000000002,0.005303044383901999
147.416,0.006139719589464017
147.417,0.005758307861010869
147.418,0.004419848690128522
147.419,0.0025228771732546994
147.42000000000002,0.0005065035813178895
147.42100000000002,0.0012327299243635524
147.422,0.002400903374376513
147.423,0.002842819232725836
147.424,0.0025570726503686457
147.425,0.0016922092274257751
147.42600000000002,0.0005231494519436905
147.42700000000002,0.0005945849766952579
147.428,0.0012930495567666119
147.429,0.001276082611319095
147.43,0.00040438906178361496
147.431,0.0012406754349108726
147.43200000000002,0.00333798144521943
147.43300000000002,0.005368419032172479
147.434,0.0067189844677990225
147.435,0.006831602358571093
147.436,0.0053620497495845566
147.437,0.002305326444232275
147.43800000000002,0.0019528889681450117
147.43900000000002,0.006682817626802851
147.44,0.010953717652414402
147.441,0.013844144757251375
147.442,0.014667966645436339
147.443,0.013156045450544442
147.44400000000002,0.009541640641916963
147.44500000000002,0.004521300158783028
147.446,0.0009037737858844317
147.447,0.0056674349377327906
147.448,0.008897008011908404
147.449,0.010121040289920157
147.45000000000002,0.00936962202413221
147.45100000000002,0.007139690496076116
147.452,0.004235490581471227
147.453,0.0015299110817007181
147.454,0.00028470168652271476
147.455,0.0008844343928883539
147.45600000000002,0.0003863898596101204
147.45700000000002,0.0007140759458159925
147.458,0.0017211750261841852
147.459,0.0019765632102874357
147.46,0.0010837403973434985
147.461,0.0009509547819377863
147.46200000000002,0.003705610428752561
147.463,0.006463822802090921
147.464,0.008433456329136214
147.465,0.008995747468587487
147.466,0.007906688498130353
147.467,0.005386202156854306
147.46800000000002,0.0020647875676600425
147.469,0.001198245125380536
147.47,0.003570002612598421
147.471,0.004493619583810678
147.472,0.0038538275817109864
147.473,0.002005797930769308
147.47400000000002,0.00034240133875578773
147.475,0.0023566981739533296
147.476,0.0033409668162886806
147.477,0.002953612512227556
147.478,0.0013076592328055802
147.479,0.0010767737693693107
147.48000000000002,0.0034503161983369755
147.481,0.005082439173118202
147.482,0.0054969243829469
147.483,0.004616834390681685
147.484,0.0027723737265164593
147.485,0.0005720498927247841
147.48600000000002,0.0013157305928370132
147.487,0.0023931904555600228
147.488,0.002495109762994625
147.489,0.0018264449092918078
147.49,0.0008645914770494047
147.491,0.00016385253342746597
147.49200000000002,0.00013492644798745668
147.493,0.0008813548287763969
147.494,0.0021542889262770896
147.495,0.0034437132859381544
147.496,0.004173801067852432
147.497,0.003930685614258925
147.49800000000002,0.0026372752114728307
147.499,0.0006073821637291423
147.5,0.0015453938053403469
147.501,0.003115194189823444
147.502,0.003554853278803505
147.50300000000001,0.002678951152100985
147.50400000000002,0.0007426525007903966
147.505,0.0016362361135527225
147.506,0.0036874474401990378
147.507,0.004756470708860463
147.508,0.004533106701480998
147.50900000000001,0.003154930752386252
147.51000000000002,0.001144873321801352
147.511,0.0007964478843290215
147.512,0.0020672327036289173
147.513,0.0024044832572656365
147.514,0.001991997504317671
147.51500000000001,0.001387585536395563
147.51600000000002,0.0012883091465882147
147.517,0.0022165846688397893
147.518,0.004246190368220134
147.519,0.006880475747556663
147.52,0.009145485952836702
147.52100000000002,0.009884290435029645
147.52200000000002,0.008162299556445764
147.523,0.003644963598647382
147.524,0.003191649856766411
147.525,0.01110725504854686
147.526,0.018405520478817026
147.52700000000002,0.023417027011773898
147.52800000000002,0.025003983320615788
147.529,0.02291810454143807
147.53,0.017885760605833377
147.531,0.011382853040463223
147.532,0.005166584623316032
147.53300000000002,0.0007161913872431657
147.53400000000002,0.0012305817126572673
147.535,0.0008876159260337017
147.536,0.0006959421694698952
147.537,0.0020399040524469877
147.538,0.0017860737310732996
147.53900000000002,0.0007925693135112115
147.54000000000002,0.005506196489811117
147.541,0.01128925914472151
147.542,0.016557695926765415
147.543,0.019759380377062853
147.544,0.01992445834145385
147.54500000000002,0.017019084499182706
147.54600000000002,0.011972711721548955
147.547,0.006363226189504641
147.548,0.001866253619321258
147.549,0.0003383410063970207
147.55,1.0020272019491658e-05
147.55100000000002,0.0021561403351839257
147.55200000000002,0.004603509758987455
147.553,0.005671833691019986
147.554,0.004145552876653392
147.555,0.00021770878568604834
147.556,0.006508191158646229
147.55700000000002,0.012894210426349141
147.55800000000002,0.01720006030404806
147.559,0.01764607486818092
147.56,0.013501957646375188
147.561,0.005425207679091813
147.562,0.004643930255348827
147.56300000000002,0.014013597483052457
147.56400000000002,0.020036756027173575
147.565,0.0209201131267847
147.566,0.01628390257550999
147.567,0.00728918490412275
147.568,0.003710843586157501
147.56900000000002,0.013884186627190825
147.57000000000002,0.02076848894555933
147.571,0.022982873336984882
147.572,0.02057905174287065
147.573,0.014928491045200267
147.574,0.008195743651138152
147.57500000000002,0.002582446323763
147.57600000000002,0.0004024864877086239
147.577,0.00040593199494821306
147.578,0.0017191399658437788
147.579,0.004281090830764716
147.58,0.005400008964026983
147.58100000000002,0.0037145029258026617
147.58200000000002,0.0010960677092656198
147.583,0.00814878851774612
147.584,0.015605943025266836
147.585,0.021250151047156392
147.586,0.023194617600599328
147.58700000000002,0.020496406410094523
147.588,0.01347659355938522
147.589,0.003649641335245043
147.59,0.006708872192167215
147.591,0.015214076151257814
147.592,0.020037804828048015
147.59300000000002,0.020387786559751393
147.594,0.01666626577700062
147.595,0.010279463360171551
147.596,0.003176733917134994
147.597,0.002726058440610186
147.598,0.006062042790157104
147.59900000000002,0.006324505335572878
147.6,0.0039048532130471826
147.601,0.0001235205653495292
147.602,0.004383662077013649
147.603,0.007607552827381756
147.604,0.008961447775102957
147.60500000000002,0.008205520451051872
147.606,0.005669426974169235
147.607,0.0020815399159707522
147.608,0.0016753133875383457
147.609,0.004802212088619377
147.61,0.006755888938277276
147.61100000000002,0.007325856221516758
147.612,0.0066217596634114756
147.613,0.0049977928433570734
147.614,0.002947566701342202
147.615,0.0009964572258527996
147.616,0.0003936812390840923
147.61700000000002,0.0009025786607279561
147.618,0.00041064520546792773
147.619,0.00096623706242224
147.62,0.002877254226342422
147.621,0.0047850481644873466
147.622,0.006067305526172507
147.62300000000002,0.006161168925864189
147.624,0.0047209584926174025
147.625,0.001745531011942524
147.626,0.0023696135798756037
147.627,0.0068848649679053115
147.62800000000001,0.010873571585605828
147.62900000000002,0.013449043170944561
147.63,0.013999644687145322
147.631,0.012361142012921347
147.632,0.00886992665901158
147.633,0.004275603461886965
147.63400000000001,0.0004641805219002631
147.63500000000002,0.004444931845313354
147.636,0.007051406796304932
147.637,0.008095121017069577
147.638,0.007812585416493247
147.639,0.006730580801059413
147.64000000000001,0.005449648035769823
147.64100000000002,0.0044238134234124826
147.642,0.0038137574612154847
147.643,0.003462413412961761
147.644,0.0029965219714412758
147.645,0.0020114625754683005
147.64600000000002,0.0002665615575776379
147.64700000000002,0.002184963469243386
147.648,0.0049821470281814
147.649,0.007565248095047982
147.65,0.009367726373231817
147.651,0.010019540664934113
147.65200000000002,0.009484849784869024
147.65300000000002,0.008080674215001577
147.654,0.006366733288975365
147.655,0.0049444535350385895
147.656,0.00423738665742826
147.657,0.004333235807199792
147.65800000000002,0.004946263146250877
147.65900000000002,0.0055157474499801925
147.66,0.005407070417727529
147.661,0.004144837229242419
147.662,0.0015957049977925858
147.663,0.001963513882267765
147.66400000000002,0.00591604548177918
147.66500000000002,0.009488381382971093
147.666,0.011982221611521598
147.667,0.012975508078971026
147.668,0.012426426392575494
147.669,0.010650973673179633
147.67000000000002,0.008190587480149081
147.67100000000002,0.0056242647207548025
147.672,0.003395774758031752
147.673,0.0017156697865697962
147.674,0.0005648645939478786
147.675,0.00021504363884597292
147.67600000000002,0.0007933472365658726
147.67700000000002,0.0012451180858492298
147.678,0.0015177945374792057
147.679,0.0014843891280365232
147.68,0.0010580204402173506
147.681,0.0003120633376281368
147.68200000000002,0.000457359213429028
147.68300000000002,0.0007703089480460478
147.684,0.0001070474926596003
147.685,0.0018848626260344573
147.686,0.005195482903629885
147.687,0.009350910022768541
147.68800000000002,0.013461513282200794
147.68900000000002,0.016426838069802975
147.69,0.017246921308902156
147.691,0.015345752820464418
147.692,0.010798768845472144
147.693,0.004379624864638665
147.69400000000002,0.002603940634332876
147.69500000000002,0.008647004875321761
147.696,0.012459938345430127
147.697,0.013330256501049092
147.698,0.01131963676989026
147.699,0.007232076723310463
147.70000000000002,0.002361549787130921
147.70100000000002,0.0019017864001574427
147.702,0.00448241459222686
147.703,0.004918198676260874
147.704,0.0034555511785767964
147.705,0.0009168961977707322
147.70600000000002,0.00160920860682109
147.70700000000002,0.003148179395737322
147.708,0.00316234286406733
147.709,0.0017117144027968788
147.71,0.0005954740934629286
147.711,0.002838914804099564
147.71200000000002,0.004123348990441673
147.713,0.0038991300807083335
147.714,0.0021571115937228896
147.715,0.0005662711162887871
147.716,0.0033723078741229547
147.717,0.005306711047831626
147.71800000000002,0.005684404389298749
147.719,0.004323018739427193
147.72,0.001608267433055843
147.721,0.0016282828619722397
147.722,0.004376187054356642
147.723,0.0057684663108847935
147.72400000000002,0.005354124203630861
147.725,0.0032346783718005374
147.726,2.4955409595345157e-05
147.727,0.0033440479374805005
147.728,0.0059129024024259635
147.729,0.006978918771634672
147.73000000000002,0.006290662919034468
147.731,0.0040964892110969525
147.732,0.0010402490195977885
147.733,0.00205482413368374
147.734,0.00444097642353173
147.735,0.005659263439281306
147.73600000000002,0.005649293189720919
147.737,0.004729438434236559
147.738,0.0034629760181893042
147.739,0.002459080991245615
147.74,0.0021735341788845213
147.741,0.0027690901265134426
147.74200000000002,0.00407310924543572
147.743,0.005638642900629753
147.744,0.006884848778141267
147.745,0.007272074127756999
147.746,0.006460915060234781
147.747,0.004412985278993216
147.74800000000002,0.0014098952706768752
147.749,0.0020102684429855167
147.75,0.005179222994279499
147.751,0.0074543225308486265
147.752,0.008366348981634096
147.75300000000001,0.007725957663177113
147.75400000000002,0.0056663333009556345
147.755,0.0026141279098359747
147.756,0.0008040136221678683
147.757,0.0038986693706156736
147.758,0.006068584434773396
147.75900000000001,0.006931719261588708
147.76000000000002,0.006406003366726062
147.761,0.004719575354418759
147.762,0.0023460999280216985
147.763,0.00012081009354143105
147.764,0.0021233605635453297
147.76500000000001,0.003284726183983196
147.76600000000002,0.0035030659694900153
147.767,0.0029658640887830295
147.768,0.002077579112611812
147.769,0.001319149782298898
147.77,0.0010799639889851982
147.77100000000002,0.0015141074992041093
147.77200000000002,0.0024684458729815587
147.773,0.00351034126813454
147.774,0.004052664770920302
147.775,0.0035422302743865833
147.776,0.0016550487247344358
147.77700000000002,0.0015640637541987216
147.77800000000002,0.005665975469690344
147.779,0.009883778115454466
147.78,0.013321422161731955
147.781,0.01519123052450141
147.782,0.015029556780384042
147.78300000000002,0.01282447525181405
147.78400000000002,0.009015442421254441
147.785,0.0043644919323437585
147.786,0.0002609260623762792
147.787,0.0041252150708964855
147.788,0.006807601646566899
147.78900000000002,0.008274639071519221
147.79000000000002,0.008823032032183473
147.791,0.00891709971283646
147.792,0.008980705334578261
147.793,0.009218796973177347
147.794,0.009533275814449236
147.79500000000002,0.009564848752527187
147.79600000000002,0.008847755821784906
147.797,0.007022982809228449
147.798,0.0040321613461466715
147.799,0.00021747510834240082
147.8,0.0037176479519407885
147.80100000000002,0.006885660847960752
147.80200000000002,0.008480004512709834
147.803,0.008044560476647299
147.804,0.005656723284995781
147.805,0.0019564841240356785
147.806,0.0019992524795796234
147.80700000000002,0.0050219601320624346
147.80800000000002,0.006134286115899952
147.809,0.0048659985493689755
147.81,0.0014092661254498657
147.811,0.003419606942365757
147.812,0.008405822413623466
147.81300000000002,0.012284244449846852
147.81400000000002,0.014105628573548969
147.815,0.013509024740234698
147.816,0.010816099336774274
147.817,0.006917679368720298
147.818,0.002987406651641784
147.81900000000002,0.00011168593001502979
147.82000000000002,0.001048180178030945
147.821,0.00045538823034490963
147.822,0.0013044891778951815
147.823,0.003226744976972646
147.824,0.004227738242620086
147.82500000000002,0.0035140110531897977
147.82600000000002,0.0008623012797447686
147.827,0.003280250154689235
147.828,0.00791018077810568
147.829,0.011763037565991352
147.83,0.013699361355779668
147.83100000000002,0.013061363072500233
147.83200000000002,0.00988855024388101
147.833,0.004923919678395958
147.834,0.0005927300594116331
147.835,0.00528169754159656
147.836,0.008021325956108674
147.83700000000002,0.00826556477895348
147.838,0.006185428540198669
147.839,0.002594078316364025
147.84,0.001317236068660864
147.841,0.004346963427957356
147.842,0.0056388520353833635
147.84300000000002,0.004915995280973274
147.844,0.0025250296758393565
147.845,0.0007157830701172217
147.846,0.0038080959283316868
147.847,0.005904917685484667
147.848,0.006572300936555577
147.84900000000002,0.00589777116735174
147.85,0.004415175205843032
147.851,0.0028779725695885047
147.852,0.001963707104816685
147.853,0.002014642419502932
147.854,0.0029060193796806412
147.85500000000002,0.004088756618951995
147.856,0.00479275177806301
147.857,0.004320753241311929
147.858,0.00233013579618622
147.859,0.0009979192883062618
147.86,0.004965762398228785
147.86100000000002,0.008548054761039479
147.862,0.01070513380948629
147.863,0.010720328428453711
147.864,0.008449751039690544
147.865,0.004399270190927336
147.866,0.0004016991934222798
147.86700000000002,0.004694172613511244
147.868,0.007360954007127355
147.869,0.007759023333033681
147.87,0.005908314127296451
147.871,0.0024778751689440346
147.872,0.0014249798303498406
147.87300000000002,0.00459450600174221
147.874,0.006087413409581322
147.875,0.00549226392537654
147.876,0.0030265405794321354
147.877,0.0005623890651598417
147.87800000000001,0.004252934458512428
147.87900000000002,0.007073498912159079
147.88,0.008388862696300523
147.881,0.008059494914210003
147.882,0.006430434370377608
147.883,0.00416479571933869
147.88400000000001,0.0019879359954711965
147.88500000000002,0.0004349327995177496
147.886,0.0003119226035886005
147.887,0.00044431387846217545
147.888,0.0004082205590630693
147.889,0.0006935716374547081
147.89000000000001,0.0016139937211082705
147.89100000000002,0.0031586798385759103
147.892,0.004970672052287566
147.893,0.00645949679910663
147.894,0.007007747680449348
147.895,0.00619784975207045
147.89600000000002,0.003978266022462712
147.89700000000002,0.0007098018238475981
147.898,0.0029255090516593384
147.899,0.006123071285463048
147.9,0.008195647702632761
147.901,0.008775088583159226
147.90200000000002,0.007910579688653713
147.90300000000002,0.006034042598887883
147.904,0.003808139452928805
147.905,0.0019104889860841454
147.906,0.0008264338352993712
147.907,0.0007163892799033253
147.90800000000002,0.0013956709558638428
147.90900000000002,0.0024253559181950453
147.91,0.0032761897022169817
147.911,0.0035061815290921253
147.912,0.002892789341501708
147.913,0.0014810290074793783
147.91400000000002,0.00045903128260609856
147.91500000000002,0.002540244464934845
147.916,0.004386687258367278
147.917,0.005735203980910468
147.918,0.006478570617999188
147.919,0.006644514944918849
147.92000000000002,0.006330556904664263
147.92100000000002,0.005630319895448206
147.922,0.004587021369166491
147.923,0.0031949931262986505
147.924,0.0014468517944981876
147.925,0.0005979619904230813
147.92600000000002,0.0027591005815136545
147.92700000000002,0.004727838013157127
147.928,0.006120670950896372
147.929,0.006583495024288454
147.93,0.005913380529618957
147.931,0.004153956296518008
147.93200000000002,0.0016256392631161733
147.93300000000002,0.0011278730478497343
147.934,0.003467250580725243
147.935,0.004823614881868027
147.936,0.004852800521425922
147.937,0.003529930410286117
147.93800000000002,0.0011551108443153164
147.93900000000002,0.001730500495394223
147.94,0.004490705540449541
147.941,0.006556410491147889
147.942,0.007555506515554882
147.943,0.00737582103729243
147.94400000000002,0.006150871261966943
147.94500000000002,0.004184093718537528
147.946,0.0018454258363701996
147.947,0.0005214552523549002
147.948,0.0026529298773332057
147.949,0.004371598344261226
147.95000000000002,0.005557163536290832
147.95100000000002,0.006108350244321487
147.952,0.005923693219480111
147.953,0.004917827244565863
147.954,0.003070895585247579
147.955,0.000489959188823468
147.95600000000002,0.00254906270339413
147.95700000000002,0.005607486180614136
147.958,0.008150750939702592
147.959,0.009665734712439433
147.96,0.009796446196870328
147.961,0.008454482286610538
147.96200000000002,0.005864389396726489
147.963,0.0025227826001861667
147.964,0.0009222423501758675
147.965,0.0038377960912159507
147.966,0.005768636173948141
147.967,0.006544926754581626
147.96800000000002,0.006301962741180402
147.969,0.005407170705726707
147.97,0.004320178745424769
147.971,0.003433516399287749
147.972,0.002947033470734959
147.973,0.0028165633037942435
147.97400000000002,0.0027911894709861805
147.975,0.002522920773620736
147.976,0.0017082898855386936
147.977,0.00021167134692461948
147.978,0.0018719862871814867
147.979,0.004235008608722545
147.98000000000002,0.006446908148309081
147.981,0.008083331393550011
147.982,0.008848987549967456
147.983,0.008653777206289365
147.984,0.00761976008920947
147.985,0.006022017399974452
147.98600000000002,0.004189435485147552
147.987,0.002403736486433855
147.988,0.0008326700006714352
147.989,0.00048231872400418383
147.99,0.0015860357747282884
147.991,0.002539666395742384
147.99200000000002,0.0033544077595661008
147.993,0.00395906238721973
147.994,0.004216931487994743
147.995,0.0039860667371337515
147.996,0.0031979285687493337
147.997,0.001920315380524152
147.99800000000002,0.00037485953983292815
147.999,0.0011040138716326413
148.0,0.0021591758057020183
148.001,0.0025204589940526806
148.002,0.002094867733957198
148.00300000000001,0.0010031890482478504
148.00400000000002,0.0004531246921589789
148.005,0.0018861041148393383
148.006,0.0029451404522457835
148.007,0.003427380082685879
148.008,0.0033349617460945893
148.00900000000001,0.0028576108557787946
148.01000000000002,0.0022857548676724062
148.011,0.001884983282409837
148.012,0.0017779881276873287
148.013,0.0018792046202989257
148.014,0.0019100168278534985
148.01500000000001,0.0014942636829635744
148.01600000000002,0.00030453001235772103
148.017,0.0017903520772066385
148.018,0.004629676237012459
148.019,0.007755381534122293
148.02,0.010506382121092374
148.02100000000002,0.012189329758294495
148.02200000000002,0.01227601643683064
148.023,0.010566831864484275
148.024,0.007268392355917112
148.025,0.002959061947149718
148.026,0.0015496123655652915
148.02700000000002,0.005415613439339945
148.02800000000002,0.007974114864193721
148.029,0.008890346087711446
148.03,0.008215996974999333
148.031,0.006338059005224107
148.032,0.003841979289836939
148.03300000000002,0.0013357880761359678
148.03400000000002,0.000709212294275782
148.035,0.0020548089699518016
148.036,0.002706502985275808
148.037,0.002845278363556253
148.038,0.002713082829717823
148.03900000000002,0.0024978877871996196
148.04000000000002,0.0022611091128810924
148.041,0.0019323077607510321
148.042,0.0013699985182149775
148.043,0.000462266138251632
148.044,0.0007745709342966424
148.04500000000002,0.002141471152923517
148.04600000000002,0.0032738286093930893
148.047,0.0037327157080564817
148.048,0.0031457078146353273
148.049,0.0013530359877002988
148.05,0.0014909408584299622
148.05100000000002,0.004900380296108534
148.05200000000002,0.008140157187999967
148.053,0.010392866607260454
148.054,0.01096876290724048
148.055,0.009501192274571519
148.056,0.006071057499155086
148.05700000000002,0.0012214644451639452
148.05800000000002,0.004146944735982519
148.059,0.008976723881932724
148.06,0.012300383745250379
148.061,0.013469901566137261
148.062,0.012309683358798106
148.06300000000002,0.009153686170261157
148.06400000000002,0.004757782283975356
148.065,0.00011080434501796319
148.066,0.0038066686548922507
148.067,0.00625447409547205
148.068,0.006898603493927808
148.06900000000002,0.005871662752640059
148.07000000000002,0.0037169223705604357
148.071,0.0012342071727728086
148.072,0.0007306536942958544
148.073,0.0014991534853058394
148.074,0.0007244638505777979
148.07500000000002,0.00153048164551952
148.07600000000002,0.004815868135358065
148.077,0.00840881230536217
148.078,0.011487315621000692
148.079,0.013321373437397307
148.08,0.013436792763699017
148.08100000000002,0.011716005252796131
148.08200000000002,0.008416291344337695
148.083,0.004105191709088536
148.084,0.0004689712119335897
148.085,0.004540352959991786
148.086,0.007485674047295535
148.08700000000002,0.008946399121027501
148.088,0.008887685190170077
148.089,0.0075832213845494255
148.09,0.005531561175106329
148.091,0.003324724441316693
148.092,0.0015005830141312268
148.09300000000002,0.00041443317015950375
148.094,0.00016103052613313624
148.095,0.0005666666173483239
148.096,0.0012538160278800735
148.097,0.0017622241987285449
148.098,0.001694640400226036
148.09900000000002,0.0008471214802020936
148.1,0.0007141091868148524
148.101,0.002654421986271602
148.102,0.004455286426341091
148.103,0.005561666144828748
148.104,0.005552297610167557
148.10500000000002,0.004282910668986523
148.106,0.001956709635501772
148.107,0.0009050653981950913
148.108,0.003591302069988976
148.109,0.005396344271908365
148.11,0.0058278401972740096
148.11100000000002,0.004764490224519816
148.112,0.002511959060300426
148.113,0.0002669610954685061
148.114,0.0027345567764560444
148.115,0.004123698259388231
148.116,0.003974872522399929
148.11700000000002,0.0022913124337029713
148.118,0.0004399664344701563
148.119,0.003374606377340146
148.12,0.0055531319289047545
148.121,0.00618984477202947
148.122,0.004921737607406136
148.12300000000002,0.0019395827506792074
148.124,0.0020431652748815754
148.125,0.005979487680686647
148.126,0.008783018527652828
148.127,0.009640850245439212
148.12800000000001,0.008251009772324125
148.12900000000002,0.004912396663878848
148.13,0.00043948093129904007
148.131,0.004072380368532499
148.132,0.007559390441795247
148.133,0.009284502478214692
148.13400000000001,0.009026763822268115
148.13500000000002,0.007110406955146823
148.136,0.004270159767358487
148.137,0.0014004032576528708
148.138,0.0007291882470274221
148.139,0.0017010616429388207
148.14000000000001,0.0015511758497539715
148.14100000000002,0.00071831911563539
148.142,0.00013458481373709852
148.143,0.0003625499008693217
148.144,0.0004385661679214697
148.145,0.002300866727500376
148.14600000000002,0.004883766520051571
148.14700000000002,0.007597384435850858
148.148,0.009802184188535096
148.149,0.011013679011004727
148.15,0.011042862169373549
148.151,0.010028555129659668
148.15200000000002,0.008357400557383059
148.15300000000002,0.006506524703734584
148.154,0.004869227480100158
148.155,0.0036270153828540644
148.156,0.0027115990173706074
148.157,0.0018658965415322669
148.15800000000002,0.0007764693315457428
148.15900000000002,0.0007755894065109314
148.16,0.0028035991523635657
148.161,0.005086128857196512
148.162,0.007230413510599896
148.163,0.008804283177209727
148.16400000000002,0.009487183859959824
148.16500000000002,0.009184072688996093
148.166,0.008059982392843506
148.167,0.006482496047210795
148.168,0.004893299767637066
148.169,0.003655911261949942
148.17000000000002,0.0029351769960636255
148.17100000000002,0.0026521990413107136
148.172,0.002530482534151472
148.173,0.0022155555856212886
148.174,0.001423373078830172
148.175,6.226513421988983e-05
148.17600000000002,0.0017171909692669841
148.17700000000002,0.0035637665313599373
148.178,0.005044740333075455
148.179,0.005800393310106014
148.18,0.005678430102925517
148.181,0.004799540124744072
148.18200000000002,0.0035292792800654294
148.18300000000002,0.002364162857248836
148.184,0.00176971146373658
148.185,0.002024766509210836
148.186,0.0031241219536726193
148.187,0.004771549383168992
148.18800000000002,0.006464907349561961
148.18900000000002,0.007644905466745199
148.19,0.007859456752782134
148.191,0.0068925856190183285
148.192,0.004820722433166844
148.193,0.0019842685821503604
148.19400000000002,0.00111059363915425
148.19500000000002,0.003924979109283964
148.196,0.006013747159355236
148.197,0.007111310434185607
148.198,0.007160323686264742
148.199,0.006287007674330841
148.20000000000002,0.004742309414647396
148.20100000000002,0.002833886113354798
148.202,0.0008694175925138025
148.203,0.0008794862713488584
148.204,0.0021956401640016955
148.205,0.002927151276114761
148.20600000000002,0.003000734865561427
148.20700000000002,0.0024402133203692677
148.208,0.0013830178546821346
148.209,8.04595941599477e-05
148.21,0.0011321915644163278
148.211,0.0019009554989551085
148.21200000000002,0.0019442425177922252
148.213,0.0011457851337251179
148.214,0.0003824705170733413
148.215,0.0022959051255525744
148.216,0.004084280096487176
148.217,0.005200485402600386
148.21800000000002,0.005218389611454657
148.219,0.0039730395255918195
148.22,0.001636963003242811
148.221,0.0012973252517508957
148.222,0.004130786589454852
148.223,0.006139129772467602
148.22400000000002,0.006770941296707125
148.225,0.005804434355636731
148.226,0.0034156796085221164
148.227,0.00013739204314887514
148.228,0.0032797452398135
148.229,0.006062301021624691
148.23000000000002,0.007609219808897358
148.231,0.007632401600157224
148.232,0.006207033288240837
148.233,0.00372449503954188
148.234,0.0007693220712529055
148.235,0.0020386167995420077
148.23600000000002,0.004190327399563886
148.237,0.005385295877142352
148.238,0.0055628151407820774
148.239,0.004870998754148887
148.24,0.003593985206435971
148.241,0.0020646515101044698
148.24200000000002,0.0005868551439669015
148.243,0.0006187337907073035
148.244,0.0014423155222056234
148.245,0.0018907303915695367
148.246,0.0020773776069053216
148.247,0.0021990160080620795
148.24800000000002,0.0024978009061372647
148.249,0.003205815908145079
148.25,0.004474087765193126
148.251,0.006297786315532267
148.252,0.008459754383046142
148.25300000000001,0.010519657631115464
148.25400000000002,0.011870824226351112
148.255,0.011869838423838172
148.256,0.010018831733065305
148.257,0.006155356394387551
148.258,0.0005897885579137221
148.25900000000001,0.005866480504574732
148.26000000000002,0.01201465166807304
148.261,0.016516351753581498
148.262,0.018223504733041775
148.263,0.01650384184403615
148.264,0.011465017967875033
148.26500000000001,0.003999772265551313
148.26600000000002,0.004378982897750838
148.267,0.011883461918368362
148.268,0.016890430361667142
148.269,0.01835473801222159
148.27,0.01607835461692416
148.27100000000002,0.010754375602020291
148.27200000000002,0.0037697924433346746
148.273,0.0031779919723574353
148.274,0.0085401686572531
148.275,0.011317892289108638
148.276,0.011291262476984965
148.27700000000002,0.009014812061501822
148.27800000000002,0.005590304362697749
148.279,0.002294912098578437
148.28,0.00018420225490289858
148.281,0.00020789261154297486
148.282,0.0010142640110382252
148.28300000000002,0.0031993273619766354
148.28400000000002,0.005405889859102436
148.285,0.006732325834772451
148.286,0.006608970211159563
148.287,0.004960981427742244
148.288,0.0021981130900329466
148.28900000000002,0.0009528175526916968
148.29000000000002,0.003706131280702373
148.291,0.005473945097649823
148.292,0.006035976296480216
148.293,0.005572399534487628
148.294,0.004559580195544522
148.29500000000002,0.0035751852998984488
148.29600000000002,0.0030867661693015826
148.297,0.0032980580153342707
148.298,0.004101618783906378
148.299,0.005145621153536289
148.3,0.005981925490583921
148.30100000000002,0.006236356180951112
148.30200000000002,0.00573873600215514
148.303,0.004569404709049179
148.304,0.0030122933572329716
148.305,0.0014391800344656556
148.306,0.00017290572898834582
148.30700000000002,0.0006186054228307108
148.30800000000002,0.000960932089465338
148.309,0.0010354518429444408
148.31,0.0010855322049694068
148.311,0.0013063842352949503
148.312,0.0017617546581589752
148.31300000000002,0.002357653824571684
148.31400000000002,0.002879905812042024
148.315,0.00307797375934106
148.316,0.0027614985863485867
148.317,0.0018737457849314428
148.318,0.0005174783987422148
148.31900000000002,0.001071771283575667
148.32000000000002,0.0025906855920074614
148.321,0.003745321585779808
148.322,0.004314177068637056
148.323,0.004181107626528074
148.324,0.0033372306669768254
148.32500000000002,0.0018639014940803377
148.32600000000002,8.625158775955388e-05
148.327,0.002298245123597812
148.328,0.004493615223760948
148.329,0.0063318430497859455
148.33,0.0074330812386638944
148.33100000000002,0.007436230695603447
148.33200000000002,0.006091306658749001
148.333,0.0033650914496552806
148.334,0.0004769578362340897
148.335,0.0048532974339110975
148.336,0.008941181767048088
148.33700000000002,0.011844071007590877
148.338,0.012817993913303889
148.339,0.011495439251695284
148.34,0.008034958990540648
148.341,0.003138127791142594
148.342,0.002088920091402344
148.34300000000002,0.006404465941909425
148.344,0.00876132361309174
148.345,0.008603069520656816
148.346,0.006034748784403883
148.347,0.0018098090832880448
148.348,0.002870854712587347
148.34900000000002,0.00669377347758536
148.35,0.00860456649243912
148.351,0.008105658042869796
148.352,0.005390481791543834
148.353,0.0012743744020876054
148.354,0.0030550158561137744
148.35500000000002,0.006389651764387618
148.356,0.007847019027389818
148.357,0.007106183435013696
148.358,0.004467397273383302
148.359,0.0007259548521841708
148.36,0.0030907551684694057
148.36100000000002,0.0060338409883752085
148.362,0.007492305176909541
148.363,0.007325213143704594
148.364,0.005836889439519298
148.365,0.0036186293337928093
148.366,0.0013223521259780107
148.36700000000002,0.0005513338667537191
148.368,0.0017804925110580451
148.369,0.0024302437103529717
148.37,0.002753161713668685
148.371,0.003031123524505892
148.372,0.003426127179101215
148.37300000000002,0.0038997410836171718
148.374,0.00423101380984354
148.375,0.0041226651639350775
148.376,0.0033503432264967398
148.377,0.001892612555684072
148.37800000000001,1.375650525701549e-05
148.37900000000002,0.0019204991890623923
148.38,0.0033050568292173517
148.381,0.003751608021412111
148.382,0.0031107329438738195
148.383,0.0015774819568488137
148.38400000000001,0.000345455729016798
148.38500000000002,0.0019932831571736367
148.386,0.0027488632885094267
148.387,0.0022486138577966206
148.388,0.0005156655933795999
148.389,0.0020260715010968107
148.39000000000001,0.00466507096458974
148.39100000000002,0.00660957252166302
148.392,0.007225696259559038
148.393,0.006232827326507218
148.394,0.003796254279508256
148.395,0.0004891355988735599
148.39600000000002,0.002864019151799168
148.39700000000002,0.005414842312642655
148.398,0.006522296955713346
148.399,0.005921467683698635
148.4,0.003784599620566531
148.401,0.0006619954165758578
148.40200000000002,0.002675013150912011
148.40300000000002,0.0054408638627199335
148.404,0.007033802398849544
148.405,0.0071734935989359195
148.406,0.005947092406497137
148.407,0.0037597357912064616
148.40800000000002,0.001210764042963109
148.40900000000002,0.0010661659937775951
148.41,0.0025560527284395457
148.411,0.0029724011363911427
148.412,0.002302779730043116
148.413,0.0007870336445682481
148.41400000000002,0.0011587444815324946
148.41500000000002,0.003048842433212358
148.416,0.0044381021469046865
148.417,0.005011777610322147
148.418,0.004639032306419454
148.419,0.0033838900152887976
148.42000000000002,0.001476913199472295
148.42100000000002,0.0007418644342275585
148.422,0.002894178589209559
148.423,0.004633761706004518
148.424,0.005702783525668238
148.425,0.005966296105496287
148.42600000000002,0.005422005713263767
148.42700000000002,0.004187889937303329
148.428,0.002473873795965194
148.429,0.0005452382744082932
148.43,0.0013154019587993603
148.431,0.0028431594313548217
148.43200000000002,0.0038213846015877225
148.43300000000002,0.004107836605937728
148.434,0.0036566113632318965
148.435,0.002533918734914312
148.436,0.0009229818277670112
148.437,0.0008884882995227907
148.43800000000002,0.002543802821140267
148.43900000000002,0.003676644193839851
148.44,0.003987333367468134
148.441,0.0033205767474080417
148.442,0.0017233795571163575
148.443,0.000538182825323601
148.44400000000002,0.0030170716130915377
148.44500000000002,0.005177766371731013
148.446,0.00652538478889651
148.447,0.006739025480802401
148.448,0.005770442138221326
148.449,0.003874512394575721
148.45000000000002,0.0015551074693872283
148.45100000000002,0.0005653313875700768
148.452,0.0019193832566260774
148.453,0.002161700111486936
148.454,0.0012778913768282363
148.455,0.0004016760174445342
148.45600000000002,0.0022922789449427044
148.45700000000002,0.0037259948505408776
148.458,0.004153397253187353
148.459,0.0033138588494553297
148.46,0.0013205388216701937
148.461,0.0013679601220441047
148.46200000000002,0.0040814792107539384
148.463,0.006135956895764092
148.464,0.0070323507086862865
148.465,0.006594118366828546
148.466,0.005001185106417235
148.467,0.0027129580600384344
148.46800000000002,0.0003097792851608051
148.469,0.0016914486355350939
148.47,0.0029849706728498
148.471,0.003539770298530327
148.472,0.0035629147688455917
148.473,0.0033827746316034716
148.47400000000002,0.003300289261878487
148.475,0.0034661789961867805
148.476,0.0038300142844864874
148.477,0.004177986280069214
148.478,0.004241113406788212
148.479,0.0038278320663560758
148.48000000000002,0.0029251641295413404
148.481,0.0017248870333188427
148.482,0.0005609336033661676
148.483,0.0002196770566574741
148.484,0.0004017487001428467
148.485,2.88957418658763e-06
148.48600000000002,0.0007147667500496438
148.487,0.0013340400981248055
148.488,0.0014451506792405584
148.489,0.0008213505314334272
148.49,0.0004621391182816293
148.491,0.0020191453352950725
148.49200000000002,0.0032681536005924566
148.493,0.0036399064156908394
148.494,0.0028059763831819406
148.495,0.0008428805096466407
148.496,0.0017370626572084215
148.497,0.004113338203517072
148.49800000000002,0.0054122834813523394
148.499,0.005009519366014983
148.5,0.0027761605350793495
148.501,0.000822770556976564
148.502,0.004823922452219065
148.50300000000001,0.00803693442576395
148.50400000000002,0.009411483416095824
148.505,0.008382754141036657
148.506,0.005079298729418186
148.507,0.00031822176940269546
148.508,0.004619349084988107
148.50900000000001,0.008366888715152804
148.51000000000002,0.009886931337935695
148.511,0.00878881547349847
148.512,0.005446841145057749
148.513,0.0008802164811816706
148.514,0.00356627378240458
148.51500000000001,0.006637103289842409
148.51600000000002,0.007542278192660309
148.517,0.006175384537846333
148.518,0.0031077519852978756
148.519,0.0006318458063838278
148.52,0.003911983556061792
148.52100000000002,0.00586568439852265
148.52200000000002,0.006147603062193578
148.523,0.005000399764667123
148.524,0.003117116840011551
148.525,0.0013566285756691724
148.526,0.00041779412236857104
148.52700000000002,0.0005885443397322216
148.52800000000002,0.0016560305811398439
148.529,0.0030046370994371223
148.53,0.0038615348682985062
148.531,0.0035982100913761954
148.532,0.0019786171957333087
148.53300000000002,0.0007342750405936097
148.53400000000002,0.003850103952067402
148.535,0.006474128517494189
148.536,0.007802412078985469
148.537,0.0073865002406693575
148.538,0.0052779315572434055
148.53900000000002,0.002006770218982697
148.54000000000002,0.0015932857101052338
148.541,0.004648747194033409
148.542,0.006507185301048678
148.543,0.006908859223429939
148.544,0.006018411848845531
148.54500000000002,0.004317376317134071
148.54600000000002,0.002406565251346247
148.547,0.000795432809453725
148.548,0.0002459411592297651
148.549,0.000725543998104625
148.55,0.0008565775136444717
148.55100000000002,0.0009135646257306608
148.55200000000002,0.001082869523007099
148.553,0.0013714144772392848
148.554,0.0016105655630846846
148.555,0.001551238746926409
148.556,0.0010074991988952941
148.55700000000002,1.5459488559072683e-05
148.55800000000002,0.0012685945660870998
148.559,0.002312354628963196
148.56,0.002664585245389877
148.561,0.0019919396583868766
148.562,0.00027232072087007115
148.56300000000002,0.002138558588423927
148.56400000000002,0.004572018749777499
148.565,0.006231787026989356
148.566,0.006444252907309773
148.567,0.004891224398252614
148.568,0.001744326222896327
148.56900000000002,0.0023497926221629586
148.57000000000002,0.006435651916350656
148.571,0.009518133049808948
148.572,0.010851129198642232
148.573,0.010154601801447137
148.574,0.00769174043957178
148.57500000000002,0.0041831514570393295
148.57600000000002,0.0005873248499795684
148.577,0.00218153075535763
148.578,0.003509529008830519
148.579,0.003235963316501131
148.58,0.0016621132808524574
148.58100000000002,0.0005771368154630683
148.58200000000002,0.0027290713952449167
148.583,0.004152377137587246
148.584,0.004487533024458966
148.585,0.00372130835633939
148.586,0.0021371445191899485
148.58700000000002,0.0001814958773471208
148.588,0.0016990418999765662
148.589,0.0031912559175785483
148.59,0.004177857544500191
148.591,0.004717387109667192
148.592,0.004961162416882474
148.59300000000002,0.005048264555335342
148.594,0.005023857473572253
148.595,0.004813086895329375
148.596,0.0042584263059187635
148.597,0.0032024577416005892
148.598,0.0015804964376784534
148.59900000000002,0.0005156344590292896
148.6,0.002829539489633609
148.601,0.004993113434955092
148.602,0.006622621270821727
148.603,0.0074246727157811
148.604,0.007275936362556552
148.60500000000002,0.0062508511781477
148.606,0.004590786245283076
148.607,0.002628587118357665
148.608,0.0006966630031217411
148.609,0.0009501071236895853
148.61,0.0021737567251108782
148.61100000000002,0.0029479985192849196
148.612,0.0033185418684618315
148.613,0.0033507486202163927
148.614,0.0030885409708244346
148.615,0.0025409550023841117
148.616,0.0016991747250851002
148.61700000000002,0.0005730629764391914
148.618,0.000772276443437393
148.619,0.0021992909690993594
148.62,0.003511192589532585
148.621,0.004493720114254552
148.622,0.004971393568672528
148.62300000000002,0.0048577198275297755
148.624,0.0041805870008417975
148.625,0.0030733365382211645
148.626,0.0017349638281026604
148.627,0.0003743800211372229
148.62800000000001,0.000840864736600674
148.62900000000002,0.0018136305427387826
148.63,0.0025158177070481536
148.631,0.0029609832393956864
148.632,0.0031658740123418263
148.633,0.0031200134577724133
148.63400000000001,0.002778659154880526
148.63500000000002,0.0020841091177929765
148.636,0.0010076080705900996
148.637,0.0004058689111184086
148.638,0.0020107719245476756
148.639,0.003567617078166432
148.64000000000001,0.004786793049510393
148.64100000000002,0.005399127917882582
148.642,0.005231831423068149
148.643,0.004264805344752539
148.644,0.0026476001943972326
148.645,0.0006697403265029244
148.64600000000002,0.0013076615179595291
148.64700000000002,0.00293853939012145
148.648,0.003970830212758772
148.649,0.004295219137548977
148.65,0.003951959745131207
148.651,0.003098208183893464
148.65200000000002,0.001950652312254467
148.65300000000002,0.0007244726988161143
148.654,0.0004119980469150821
148.655,0.0013559525306264268
148.656,0.0020626282158685235
148.657,0.002522083596121982
148.65800000000002,0.0027352168488081197
148.65900000000002,0.0027017799783995763
148.66,0.0024254518290781637
148.661,0.0019314389068611046
148.662,0.0012848475430971504
148.663,0.0005964512772630577
148.66400000000002,7.325360453261527e-06
148.66500000000002,0.00034676010391123193
148.666,0.0003802292720951099
148.667,9.458243601652372e-05
148.668,0.00040955649529670615
148.669,0.0009543824487806406
148.67000000000002,0.001337635148822691
148.67100000000002,0.0014004431290279174
148.672,0.0010870156111635937
148.673,0.000473541657296736
148.674,0.0002470732705494621
148.675,0.0008229736784021391
148.67600000000002,0.0010264181543318156
148.67700000000002,0.0007346140623689027
148.678,2.019400846833174e-05
148.679,0.0010506802337176921
148.68,0.0020671288568014914
148.681,0.0027671873384296497
148.68200000000002,0.0029333857819042334
148.68300000000002,0.002505290734436724
148.684,0.0016008326654403256
148.685,0.00047820413121513596
148.686,0.0005498830039407085
148.687,0.0012209335734109923
148.68800000000002,0.0014104359265652226
148.68900000000002,0.0011717411126170806
148.69,0.0007130942609507342
148.691,0.00031844477763198645
148.692,0.0002385180529965317
148.693,0.0005898418304871017
148.69400000000002,0.0012979134379438912
148.69500000000002,0.002106687741901495
148.696,0.002654554950730515
148.697,0.002594256809350747
148.698,0.0017184099351535112
148.699,4.889300001895086e-05
148.70000000000002,0.002141327455807352
148.70100000000002,0.0043844921154581554
148.702,0.006138299657139883
148.703,0.006935354416243022
148.704,0.006517254211823743
148.705,0.004912922571140334
148.70600000000002,0.00243756335378977
148.70700000000002,0.00038737613809212783
148.708,0.002969231284570177
148.709,0.00479429523356609
148.71,0.005550022682206102
148.711,0.005186115344599358
148.71200000000002,0.0039010505959435385
148.713,0.0020635590487464435
148.714,9.741718319231026e-05
148.715,0.0016330729149365856
148.716,0.0029028076460053606
148.717,0.0036506155611115425
148.71800000000002,0.003948369381837747
148.719,0.0039323908606596104
148.72,0.00372648442917486
148.721,0.0033866718768319937
148.722,0.002887851811445351
148.723,0.002155833841519669
148.72400000000002,0.0011304491828589723
148.725,0.00016704793002601153
148.726,0.001591867728015373
148.727,0.002880401359407825
148.728,0.003706991307569752
148.729,0.003778837004434008
148.73000000000002,0.002939707653806517
148.731,0.0012469711979990732
148.732,0.001007874572131714
148.733,0.00334874173821537
148.734,0.00522618769475394
148.735,0.006161284627284038
148.73600000000002,0.005880510308939456
148.737,0.0044001588842954254
148.738,0.0020321516386044656
148.739,0.0006938927908174247
148.74,0.0031718294336194244
148.741,0.00488269131120503
148.74200000000002,0.005532116498736565
148.743,0.005119731769879442
148.744,0.003919196217830753
148.745,0.002375387410742795
148.746,0.0009516036826047947
148.747,2.3896176335509243e-05
148.74800000000002,0.0004618149299054274
148.749,0.0005314390371597195
148.75,0.0005884088101639762
148.751,0.0010335098778158657
148.752,0.0021491018733700395
148.75300000000001,0.003968823229251313
148.75400000000002,0.006227054227594579
148.755,0.008409705995986788
148.756,0.009894941562775664
148.757,0.010142056984712785
148.758,0.00886908327363848
148.75900000000001,0.0061609615625639194
148.76000000000002,0.0024705639280571475
148.761,0.0014917757868508747
148.762,0.004948819039121712
148.763,0.007269272235344719
148.764,0.008136978246721908
148.76500000000001,0.00762364363766253
148.76600000000002,0.006142809731476516
148.767,0.004300890949804912
148.768,0.002694354484639779
148.769,0.0017194560114096955
148.77,0.0014564766199395222
148.77100000000002,0.0016654335693611008
148.77200000000002,0.001892942864335185
148.773,0.0016526874781962622
148.774,0.0006172669949514089
148.775,0.0012445820688051727
148.776,0.0036329495500152186
148.77700000000002,0.005996913313533229
148.77800000000002,0.007703926346204759
148.779,0.008242206977064412
148.78,0.00738865293679339
148.781,0.0052863451149394265
148.782,0.002406097910918068
148.78300000000002,0.0005946329599050778
148.78400000000002,0.003068111339079129
148.785,0.004562873634861562
148.786,0.004939957718276694
148.787,0.004383325580742862
148.788,0.003305667108839122
148.78900000000002,0.002186282436033287
148.79000000000002,0.0013998093632028711
148.791,0.0010957061442865115
148.792,0.001168529450577861
148.793,0.0013254644993556707
148.794,0.001222354532038686
148.79500000000002,0.000615214263580229
148.79600000000002,0.0005305062341012011
148.797,0.0020142495946274966
148.798,0.003468136680370846
148.799,0.004492975804764323
148.8,0.0048113433212192995
148.80100000000002,0.004379389465656277
148.80200000000002,0.0034133798855818867
148.803,0.0023179202818945704
148.804,0.0015392729886849236
148.805,0.001395927359962818
148.806,0.001948956159999069
148.80700000000002,0.002962441732375609
148.80800000000002,0.003973222752309565
148.809,0.004450074986788104
148.81,0.0039890420180572535
148.811,0.002476116910249004
148.812,0.00015693966824223204
148.81300000000002,0.0024166148044621827
148.81400000000002,0.004551080055341293
148.815,0.005635942228647987
148.816,0.005353674209512341
148.817,0.003802625243477729
148.818,0.0014868761423983445
148.81900000000002,0.0008295685803745657
148.82000000000002,0.002361369246131221
148.821,0.0025578886433376764
148.822,0.0012931406564544948
148.823,0.0010746241300659052
148.824,0.0037971262721757776
148.82500000000002,0.00595818610878009
148.82600000000002,0.006756174076101524
148.827,0.005758696881309023
148.828,0.0030489794418491435
148.829,0.0007833152530649664
148.83,0.0048056740492923005
148.83100000000002,0.008011463564208367
148.83200000000002,0.009611961821909881
148.833,0.009262966350360804
148.834,0.007157955678229161
148.835,0.003961248261554066
148.836,0.0006036237315191489
148.83700000000002,0.0019958495062133725
148.838,0.0031970319960256013
148.839,0.002815438538581371
148.84,0.0011580673454521374
148.841,0.0010885501070798183
148.842,0.0030806435744756147
148.84300000000002,0.00408062647019617
148.844,0.0036822306141531614
148.845,0.0019315455540042297
148.846,0.0006893657991312947
148.847,0.003408519817913128
148.848,0.005394580397877605
148.84900000000002,0.006003690764068187
148.85,0.004971477837102676
148.851,0.002496451526529309
148.852,0.000807272892724044
148.853,0.0040733299472961015
148.854,0.006416542762918155
148.85500000000002,0.007172548088189217
148.856,0.006079430597777313
148.857,0.003353795422037552
148.858,0.00035786018104384934
148.859,0.004139133140499352
148.86,0.007033539830323711
148.86100000000002,0.00828563957090669
148.862,0.007532844120451338
148.863,0.004900213072555626
148.864,0.0009749020997557875
148.865,0.003333359298628994
148.866,0.007011535883812346
148.86700000000002,0.009188720984461288
148.868,0.009347858380246411
148.869,0.007452098538758792
148.87,0.003954915607040765
148.871,0.0003085385262902938
148.872,0.004322312909446783
148.87300000000002,0.007133614186291194
148.874,0.008080146483475483
148.875,0.006945409089819694
148.876,0.004004628078895655
148.877,4.8591290617228514e-05
148.87800000000001,0.00427505730844822
148.87900000000002,0.007717943093467057
148.88,0.009628720225731477
148.881,0.009635780889332089
148.882,0.007816380490140816
148.883,0.004658045690530568
148.88400000000001,0.0009237639505835395
148.88500000000002,0.0025413574595755523
148.886,0.005011621646961074
148.887,0.006040982431089069
148.888,0.00554592237037113
148.889,0.0037965612107143296
148.89000000000001,0.0013252895287994403
148.89100000000002,0.0012183454472926016
148.892,0.0032272556332085707
148.893,0.004271922154551098
148.894,0.00418180386190737
148.895,0.0030596732277114393
148.89600000000002,0.001232670901764429
148.89700000000002,0.0008420086895388611
148.898,0.0026907656556488155
148.899,0.0039294117123308365
148.9,0.004338991992016407
148.901,0.0038984651100636607
148.90200000000002,0.0027715667660422765
148.90300000000002,0.0012548093916586055
148.904,0.0002992648069062505
148.905,0.001565609248628649
148.906,0.002318699823643282
148.907,0.0024778216980948496
148.90800000000002,0.0021162403248125112
148.90900000000002,0.0014327231019995242
148.91,0.0006924221015660192
148.911,0.0001516847136825569
148.912,1.3952390092025959e-05
148.913,0.00024088822489969685
148.91400000000002,0.000819233196174655
148.91500000000002,0.001511706677189588
148.916,0.0020617069412156874
148.917,0.002247912047825135
148.918,0.0019596452334092397
148.919,0.0012410554551860705
148.92000000000002,0.00028810359677550006
148.92100000000002,0.0006038426219541017
148.922,0.0011283725944349055
148.923,0.0010664453630101225
148.924,0.0003639827169490249
148.925,0.0008374584862827451
148.92600000000002,0.0022294538261076052
148.92700000000002,0.003418995032041537
148.928,0.00404091925516629
148.929,0.0038665207903671667
148.93,0.0028744817407457103
148.931,0.0012614305573834907
148.93200000000002,0.0006116910495263581
148.93300000000002,0.0023208210386606084
148.934,0.0034957105220960543
148.935,0.003916063217618681
148.936,0.0035578082568457773
148.937,0.002577585686170032
148.93800000000002,0.0012444659854777271
148.93900000000002,0.0001546373382859344
148.94,0.0014015887382773545
148.941,0.0023959550478086693
148.942,0.003151711914173231
148.943,0.003747505417542689
148.94400000000002,0.004254119633302067
148.94500000000002,0.004671548414295825
148.946,0.004904254085877639
148.947,0.004788013242585444
148.948,0.004160706374148472
148.949,0.002950399491381022
148.95000000000002,0.0012445145693828646
148.95100000000002,0.0006920439333605454
148.952,0.002465019237174805
148.953,0.003656261839729917
148.954,0.003954848084550221
148.955,0.0032694050348187815
148.95600000000002,0.0017797366108591008
148.95700000000002,9.621028425515694e-05
148.958,0.0018161677878414282
148.959,0.002875913903177058
148.96,0.002969049447048503
148.961,0.0020907882440854243
148.96200000000002,0.0005483618816421739
148.963,0.001129778836302818
148.964,0.002360205070404391
148.965,0.0026941843780749295
148.966,0.0019690642138892136
148.967,0.000370304427216431
148.96800000000002,0.0016188385475747657
148.969,0.0033664687556477562
148.97,0.00429361565134305
148.971,0.004063494004952164
148.972,0.0026964769330666966
148.973,0.0005719890589295758
148.97400000000002,0.0016851965739967827
148.975,0.0033992036130700972
148.976,0.004056245760097148
148.977,0.0034684363746295428
148.978,0.0018352512956655476
148.979,0.00031776328967075726
148.98000000000002,0.002304225624829511
148.981,0.0034940534001762133
148.982,0.0035138732438895824
148.983,0.0023673617704778604
148.984,0.0004374852799859485
148.985,0.0016302628655134102
148.98600000000002,0.003127412425010962
148.987,0.0035031703533426766
148.988,0.002538417664644939
148.989,0.0004201209340039984
148.99,0.0023060304975409964
148.991,0.004890067535179736
148.99200000000002,0.006592879340137076
148.993,0.006898530077006581
148.994,0.005662296242390507
148.995,0.0031529216636441036
148.996,2.1091198433694276e-05
148.997,0.0030781944985282966
148.99800000000002,0.005275173647765097
148.999,0.006104052041443038
149.0,0.005421440411160075
149.001,0.003477574397751216
149.002,0.0008405087451707964
149.00300000000001,0.0017610216076827828
149.00400000000002,0.0036321565178109483
149.005,0.004292072230134694
149.006,0.0035938152203909193
149.007,0.0017551547340989221
149.008,0.0007045570920987014
149.00900000000001,0.0031027578922036003
149.01000000000002,0.004770437734392411
149.011,0.005222125932611123
149.012,0.00427691304827001
149.013,0.002101441807607152
149.014,0.0008343634987765104
149.01500000000001,0.0038763717175421815
149.01600000000002,0.006349319441418915
149.017,0.007722459400696616
149.018,0.007736049906659665
149.019,0.006457122447208713
149.02,0.004251211380097694
149.02100000000002,0.0016785515756182522
149.02200000000002,0.0006569446179615915
149.023,0.0022651261037233447
149.024,0.0028910335091563992
149.025,0.0025678897520182062
149.026,0.0015883425805469774
149.02700000000002,0.000403719603825623
149.02800000000002,0.0005184672444960044
149.029,0.0008366692123767067
149.03,0.00043542240587025936
149.031,0.0005454479502139293
149.032,0.0017599621854058783
149.03300000000002,0.002767172542696965
149.03400000000002,0.0031694444879210738
149.035,0.0027350745195209567
149.036,0.0014680296572706633
149.037,0.00039526526720804725
149.038,0.002458916965039926
149.03900000000002,0.004285293662901776
149.04000000000002,0.005519054882779436
149.041,0.005978382055247184
149.042,0.005686459929774684
149.043,0.004836995835876212
149.044,0.003709793628911657
149.04500000000002,0.002568551104717177
149.04600000000002,0.001577669164484064
149.047,0.0007664978096306066
149.048,5.117289761057015e-05
149.049,0.0006974301417620963
149.05,0.0015683299982752394
149.05100000000002,0.0025429644845650504
149.05200000000002,0.0034743878292905696
149.053,0.004124461793633565
149.054,0.004248127852960678
149.055,0.00369485771326864
149.056,0.002488696217137066
149.05700000000002,0.0008535062485072205
149.05800000000002,0.000832177764071119
149.059,0.0021416953545577064
149.06,0.002736275740408548
149.061,0.0024854997763928675
149.062,0.0015290186068591942
149.06300000000002,0.00025323278022537844
149.06400000000002,0.0008164407501027058
149.065,0.001178762818060173
149.066,0.0005260757001599908
149.067,0.001134533143813648
149.068,0.003450523032768764
149.06900000000002,0.005799497788467678
149.07000000000002,0.007454423466682036
149.071,0.0077932019824621486
149.072,0.0064917888637760395
149.073,0.003642648156795128
149.074,0.00023937637027919884
149.07500000000002,0.004329658390729476
149.07600000000002,0.007696496655374842
149.077,0.009539325669019253
149.078,0.009397301182206287
149.079,0.007271305604397412
149.08,0.003626680788854142
149.08100000000002,0.0007229197381517535
149.08200000000002,0.0048179046795746834
149.083,0.007786358364055318
149.084,0.009047435869488597
149.085,0.008433638674554973
149.086,0.00620494193104359
149.08700000000002,0.002957655426381046
149.088,0.0005417194086269045
149.089,0.0035498773413594896
149.09,0.005516104937289187
149.091,0.006186954692583312
149.092,0.005626058738927315
149.09300000000002,0.004153210327440601
149.094,0.0022278479521810257
149.095,0.000314324167680861
149.096,0.0012328121201315898
149.097,0.0022351104069151064
149.098,0.0026965128820214926
149.09900000000002,0.0027565732442125556
149.1,0.0026122765564777894
149.101,0.0024371603496124226
149.102,0.0023242312040200777
149.103,0.0022689962862501387
149.104,0.0021943158864933194
149.10500000000002,0.0020044240602157906
149.106,0.0016458199507027149
149.107,0.0011507313624495679
149.108,0.0006450495696587161
149.109,0.00031505365038102126
149.11,0.00034195267630786883
149.11100000000002,0.0008255475459420907
149.112,0.0017240493628321188
149.113,0.0028340919327206103
149.114,0.0038237075373945013
149.115,0.004314606020356941
149.116,0.0039934310285015566
149.11700000000002,0.002720071375628626
149.118,0.0005986381924750002
149.119,0.002015154121305933
149.12,0.004579487884057282
149.121,0.006492892409212259
149.122,0.007250480795487649
149.12300000000002,0.006587554059140036
149.124,0.004568779601131222
149.125,0.0015941557131575047
149.126,0.001684874415686034
149.127,0.00452063608985923
149.12800000000001,0.006256364277399177
149.12900000000002,0.00649554556175149
149.13,0.0052072664668525
149.131,0.002738049790121123
149.132,0.0002741221549621852
149.133,0.0030612944167267555
149.13400000000001,0.004919824453369746
149.13500000000002,0.005386289155540601
149.136,0.004349543208065423
149.137,0.0020714307366777335
149.138,0.0008864805772599558
149.139,0.0038081639252869016
149.14000000000001,0.006000827847163859
149.14100000000002,0.006959317981341256
149.142,0.006477701102771059
149.143,0.004684448453677421
149.144,0.0019982259029171353
149.145,0.0009793440273852475
149.14600000000002,0.003604345962212608
149.14700000000002,0.005330544606340864
149.148,0.005818636511254147
149.149,0.004995045159458778
149.15,0.0030534521640313093
149.151,0.00040433381380581933
149.15200000000002,0.0024134037871522784
149.15300000000002,0.004839925518014144
149.154,0.006401426305757664
149.155,0.006798669573767846
149.156,0.005962739196480969
149.157,0.004068367835535662
149.15800000000002,0.001501146119332633
149.15900000000002,0.0012178447702874985
149.16,0.003538298433823963
149.161,0.004998405814989001
149.162,0.005329292428679326
149.163,0.0045208979685548165
149.16400000000002,0.002829861290937151
149.16500000000002,0.0007221156152601716
149.166,0.0012408553525688876
149.167,0.002546892630024959
149.168,0.00287263185868376
149.169,0.002178852009496409
149.17000000000002,0.0007318887469606375
149.17100000000002,0.0009600758742698202
149.172,0.002283316710947728
149.173,0.0026928820907274023
149.174,0.0018768700946444246
149.175,0.00013747179326902424
149.17600000000002,0.0029696580092518662
149.17700000000002,0.00597247027346397
149.178,0.00839850530395466
149.179,0.009601862575752278
149.18,0.009218116281556808
149.181,0.007270272067963077
149.18200000000002,0.004168658838924484
149.18300000000002,0.000602988702368317
149.184,0.002643749107827962
149.185,0.004906741367232665
149.186,0.005815532833765909
149.187,0.005384380745634931
149.18800000000002,0.003991272418636382
149.18900000000002,0.002252713180508136
149.19,0.0008318700931885835
149.191,0.00023694290596209684
149.192,0.0006690616503742155
149.193,0.0019639825017303985
149.19400000000002,0.0036439658861428903
149.19500000000002,0.005063820768446829
149.196,0.005607743680832717
149.197,0.004879186330438632
149.198,0.0028285293494371634
149.199,0.0002182134874945818
149.20000000000002,0.003637707871251536
149.20100000000002,0.006672119957653653
149.202,0.008630322166641316
149.203,0.00907124189260267
149.204,0.00791903102045435
149.205,0.005479623050904794
149.20600000000002,0.0023561555877844756
149.20700000000002,0.0007113590324235971
149.208,0.003036626898479029
149.209,0.0041555273418912445
149.21,0.0039278652198325905
149.211,0.0025478521772272166
149.21200000000002,0.00046498296815562925
149.213,0.0017580742766655528
149.214,0.0036072820653191323
149.215,0.004751582205459006
149.216,0.005112435124400907
149.217,0.004851588683010254
149.21800000000002,0.004285041026726568
149.219,0.0037532791678297956
149.22,0.0034906673607042775
149.221,0.0035365274517142006
149.222,0.0037170561619605967
149.223,0.00370472439020393
149.22400000000002,0.003136969077794704
149.225,0.0017564301411744922
149.226,0.00047312095208685743
149.227,0.0033148545034606455
149.228,0.006291748040517157
149.229,0.008798924839470932
149.23000000000002,0.010264803522525512
149.231,0.010313819668496054
149.232,0.008881176411182523
149.233,0.0062432281148968125
149.234,0.002952013407319997
149.235,0.000308416435016165
149.23600000000002,0.002902001875682165
149.237,0.004403625786058763
149.238,0.004696743971319759
149.239,0.003977829325632528
149.24,0.0026691017734298615
149.241,0.0012699090984684914
149.24200000000002,0.00019616117748092748
149.243,0.0003399191081612893
149.244,0.000371839723401717
149.245,0.00013172818859523704
149.246,6.633463753974126e-05
149.247,3.092590978461152e-05
149.24800000000002,0.0004995740439218062
149.249,0.0011917293080340925
149.25,0.0017774597313759033
149.251,0.0018628489178271503
149.252,0.0011440653370392822
149.25300000000001,0.0004570818054507164
149.25400000000002,0.0027263165177982417
149.255,0.005187116171049993
149.256,0.007223908901519535
149.257,0.00826216485124129
149.258,0.007948591818583654
149.25900000000001,0.006272522667163741
149.26000000000002,0.0035871131804606974
149.261,0.0005205817161036194
149.262,0.002196972148641347
149.263,0.003938344301430715
149.264,0.004352570451293619
149.26500000000001,0.0034540498992908296
149.26600000000002,0.0016018584798544002
149.267,0.0006212921474842036
149.268,0.002589709122258607
149.269,0.0038169025846283428
149.27,0.004083134325845032
149.27100000000002,0.0034721279316128804
149.27200000000002,0.00231154252965855
149.273,0.001042879490747911
149.274,6.754899012512159e-05
149.275,0.0003796148382435826
149.276,0.00029067286908548724
149.27700000000002,0.00013546101771922292
149.27800000000002,0.0005801047557515987
149.279,0.0007245787281069214
149.28,0.0003604095812618079
149.281,0.0005453298594504802
149.282,0.0018465917200219631
149.28300000000002,0.0032715770492712072
149.28400000000002,0.0045091016076300615
149.285,0.005296403932511942
149.286,0.005480460690319714
149.287,0.005037968857755934
149.288,0.004055754776772534
149.28900000000002,0.0026868844465122634
149.29000000000002,0.0011033931680429392
149.291,0.000536926785174179
149.292,0.002102323050316055
149.293,0.003481765996853035
149.294,0.004574748958648529
149.29500000000002,0.005289296012296485
149.29600000000002,0.0055550315929943994
149.297,0.005348058960150458
149.298,0.004715429242984464
149.299,0.003783738131415134
149.3,0.0027409440144380358
149.30100000000002,0.0017914153682184186
149.30200000000002,0.001096985490037926
149.303,0.0007256744021812743
149.304,0.0006301870658546926
149.305,0.0006690475748330543
149.306,0.0006671103327322523
149.30700000000002,0.0004952749407556104
149.30800000000002,0.00013856829225276414
149.309,0.00027748158209654734
149.31,0.0005190686802339264
149.311,0.0003301588953407017
149.312,0.0004547780766849943
149.31300000000002,0.0018127863894912843
149.31400000000002,0.0034903587857047966
149.315,0.005042241281148383
149.316,0.00594851907733268
149.317,0.00577787980448747
149.318,0.0043443497886425176
149.31900000000002,0.0018015413509483449
149.32000000000002,0.0013648288806559267
149.321,0.004453215356780984
149.322,0.006741228417029571
149.323,0.0077000744279878425
149.324,0.007158854921833629
149.32500000000002,0.00536231689088717
149.32600000000002,0.0028989262510092104
149.327,0.0005187903112251005
149.328,0.0011014860196693632
149.329,0.001570672445117506
149.33,0.0009014489229136706
149.33100000000002,0.0005041720223924286
149.33200000000002,0.001997954149935203
149.333,0.002909136205125081
149.334,0.0027734092293979057
149.335,0.001490106180607844
149.336,0.0006448112857662811
149.33700000000002,0.0030397565809742707
149.338,0.005006465908867185
149.339,0.005987747635996968
149.34,0.005736028923553661
149.341,0.004383029458044643
149.342,0.002379787123047022
149.34300000000002,0.00033183515829122767
149.344,0.0012095956024479192
149.345,0.0019256049454151004
149.346,0.001815158627906337
149.347,0.0011613363801877318
149.348,0.00039549803397711847
149.34900000000002,8.639262845522804e-05
149.35,8.440828006548793e-05
149.351,0.0003289007152749347
149.352,0.0008450352597034557
149.353,0.0010547216605452517
149.354,0.0006295273488166594
149.35500000000002,0.0005208783246527938
149.356,0.0021788534642474223
149.357,0.003867778043804721
149.358,0.005007345212336965
149.359,0.005122082743493424
149.36,0.004028033535856437
149.36100000000002,0.001927447204028136
149.362,0.0006280223103844905
149.363,0.002899275032988987
149.364,0.004195647678068719
149.365,0.004105598929645153
149.366,0.0026424139238500426
149.36700000000002,0.0002524229132150909
149.368,0.0023206830846546605
149.369,0.00427277585460762
149.37,0.00499969691073252
149.371,0.0042945034368715084
149.372,0.0024154140791759282
149.37300000000002,1.2851948825184166e-06
149.374,0.002137735425333137
149.375,0.0032852962270493637
149.376,0.003052446951726597
149.377,0.001503558690676519
149.37800000000001,0.0008655071738534429
149.37900000000002,0.0032882263799277264
149.38,0.004973413211115239
149.381,0.005356068693844848
149.382,0.00427305041703855
149.383,0.002009757859605652
149.38400000000001,0.0007932616096098618
149.38500000000002,0.0033401821593102
149.386,0.004920512227076258
149.387,0.005114943300060302
149.388,0.003905509432930906
149.389,0.001662046343476638
149.39000000000001,0.0009834250702746138
149.39100000000002,0.0033294434835955127
149.392,0.004803114250755226
149.393,0.005105051306676574
149.394,0.004264078293456499
149.395,0.002595038561279849
149.39600000000002,0.0005824923624209168
149.39700000000002,0.0012676604286079897
149.398,0.0025623577536904936
149.399,0.003105374028250033
149.4,0.0029149203149153595
149.401,0.0021804214327664725
149.40200000000002,0.0011808262126055899
149.40300000000002,0.00019416168744484152
149.404,0.0005747407024990777
149.405,0.0010316953955282315
149.406,0.0011923475988659304
149.407,0.0011511743890489207
149.40800000000002,0.0010350954751779573
149.40900000000002,0.0009574907489357216
149.41,0.000984843830897192
149.411,0.001122329565188646
149.412,0.0013187332782470087
149.413,0.0014866420972995927
149.41400000000002,0.001531347869087867
149.41500000000002,0.0013810396533302301
149.416,0.0010111156662942283
149.417,0.0004565410667128185
149.418,0.00019176381070930135
149.419,0.000807263463372737
149.42000000000002,0.0012612985097041408
149.42100000000002,0.0014615790980039064
149.422,0.0013842607089137066
149.423,0.0010879358240699442
149.424,0.0007017317767128315
149.425,0.0003873377030999103
149.42600000000002,0.00028416715541655174
149.42700000000002,0.0004547189267288534
149.428,0.0008501171555744622
149.429,0.0013116747742915535
149.43,0.0016134483566763768
149.431,0.0015362037922982052
149.43200000000002,0.0009500262900359907
149.43300000000002,0.00012372552338021591
149.434,0.0014968302705006095
149.435,0.0028569420097003403
149.436,0.0038605991166055565
149.437,0.004248927097160267
149.43800000000002,0.00394683160060732
149.43900000000002,0.0031079910778880103
149.44,0.0020834814600297247
149.441,0.0013171123868639628
149.442,0.0011971984706898105
149.443,0.0019129079056147515
149.44400000000002,0.0033660826344398746
149.44500000000002,0.0051741916143301
149.446,0.006770929549248894
149.447,0.007577342553611617
149.448,0.007189972362615228
149.449,0.005523243931301208
149.45000000000002,0.002855506281741456
149.45100000000002,0.00024134891991603065
149.452,0.0030697750953063607
149.453,0.005018950455114166
149.454,0.00575166466750325
149.455,0.0053025281844359526
149.45600000000002,0.0040533243272920395
149.45700000000002,0.002593002613060829
149.458,0.00150981343916429
149.459,0.0011872332530488959
149.46,0.0016747206486747378
149.461,0.002678688415485074
149.46200000000002,0.0036770258005636176
149.463,0.004116750632014853
149.464,0.003624488006248105
149.465,0.0021543277421967395
149.466,1.9359817363900405e-05
149.467,0.002205660272716293
149.46800000000002,0.0038770763108741486
149.469,0.004502749023199964
149.47,0.003912117451162543
149.471,0.0023156255671679155
149.472,0.00023269061098910753
149.473,0.0016856000264786957
149.47400000000002,0.0028753230984343873
149.475,0.003041918963714862
149.476,0.002241592876536916
149.477,0.0008351053793660982
149.478,0.0006658412843919604
149.479,0.001800036670817676
149.48000000000002,0.002329284564659299
149.481,0.00231681304262607
149.482,0.002082416704880727
149.483,0.0020524056156013357
149.484,0.0025632007774978767
149.485,0.0036962706037014076
149.48600000000002,0.0052115942159938495
149.487,0.006610408176550062
149.488,0.00730887529115146
149.489,0.006860762690273469
149.49,0.005145794655225938
149.491,0.0024497175150630514
149.49200000000002,0.0006003456854586192
149.493,0.0032291467936759765
149.494,0.004770640045154508
149.495,0.004898589138010453
149.496,0.0037459006530800726
149.497,0.0018655386926408953
149.49800000000002,4.164879244656008e-05
149.499,0.0009861600859324112
149.5,0.0007893081371725701
149.501,0.0005879758017806103
149.502,0.002632224159095866
149.50300000000001,0.004532929126887342
149.50400000000002,0.005466848713603538
149.505,0.00489692274911653
149.506,0.0027810082799453514
149.507,0.0003849007428692835
149.508,0.0037080371705347313
149.50900000000001,0.006180296314973071
149.51000000000002,0.0070065343682084915
149.511,0.005869737260613003
149.512,0.003044047700832171
149.513,0.0006819972919905385
149.514,0.004245862060896587
149.51500000000001,0.00663475805793812
149.51600000000002,0.007186471865273872
149.517,0.00577153188179531
149.518,0.002803490126449851
149.519,0.000916946603630693
149.52,0.0044636791656907805
149.52100000000002,0.007061202089296041
149.52200000000002,0.008284751562609985
149.523,0.00812705900662011
149.524,0.006924532746686144
149.525,0.005185064876249357
149.526,0.003390331329478462
149.52700000000002,0.0018473118949741687
149.52800000000002,0.0006377396565605373
149.529,0.00032843566802237263
149.53,0.0011916486273044614
149.531,0.0020148786235499993
149.532,0.0027101940211927376
149.53300000000002,0.003054754332719332
149.53400000000002,0.002791316373002443
149.535,0.0017702764226242014
149.536,6.971547341574509e-05
149.537,0.0019646231956654972
149.538,0.0037876400330655244
149.53900000000002,0.004816726866034773
149.54000000000002,0.004633030345873281
149.541,0.003147889305839883
149.542,0.000668000243136623
149.543,0.0021732903492542597
149.544,0.004603162205797513
149.54500000000002,0.005955016179484199
149.54600000000002,0.005888486781931044
149.547,0.004505322374349388
149.548,0.0023172409971447417
149.549,7.335988069366558e-05
149.55,0.0014951450300793498
149.55100000000002,0.001925068044398526
149.55200000000002,0.0011783757025389757
149.553,0.00034910978278700325
149.554,0.0019712102710165292
149.555,0.002956981334837789
149.556,0.00279205786614043
149.55700000000002,0.0013637566077151179
149.55800000000002,0.0009950380190701606
149.559,0.003618090993140946
149.56,0.00573379126660044
149.561,0.006727910071722095
149.562,0.006348600126589044
149.56300000000002,0.004782549559725445
149.56400000000002,0.002577770889952203
149.565,0.0004432918005148312
149.566,0.001000702363392903
149.567,0.0014323659003593365
149.568,0.0009235695624156519
149.56900000000002,0.00011014734308480202
149.57000000000002,0.0010832318240858478
149.571,0.001471116858577268
149.572,0.0010125410475487497
149.573,0.00019102628012508373
149.574,0.0017143294756472355
149.57500000000002,0.0029698375941772997
149.57600000000002,0.003431027139587474
149.577,0.0028343082895950053
149.578,0.0012847728339365672
149.579,0.0007733655013693174
149.58,0.0027109132013132947
149.58100000000002,0.0039359897452901325
149.58200000000002,0.004103173238112328
149.583,0.00323317958535383
149.584,0.0016996539038422308
149.585,8.836958256639074e-05
149.586,0.0010191632709495326
149.58700000000002,0.0012580330196164352
149.588,0.0006100512382393854
149.589,0.0005963931757058657
149.59,0.0018170487359423083
149.591,0.002505302749614355
149.592,0.0023297698443056833
149.59300000000002,0.0013148137865290539
149.594,0.00015009431712011725
149.595,0.0014392878915888447
149.596,0.0019150364664509575
149.597,0.0011684809804528337
149.598,0.0008088748831113337
149.59900000000002,0.0035866634252224873
149.6,0.006408250600116495
149.601,0.008420193776665127
149.602,0.008943329079241136
149.603,0.007694920095479282
149.604,0.004886970907726595
149.60500000000002,0.001167087621934996
149.606,0.0025790395792132104
149.607,0.005498392874737398
149.608,0.007025635111097286
149.609,0.0070396213037294845
149.61,0.005872521674672162
149.61100000000002,0.004172351246582273
149.612,0.0026682696743275604
149.613,0.001919199414974014
149.614,0.00213000779104947
149.615,0.0030950379072867047
149.616,0.0042849191460119845
149.61700000000002,0.005044369307680055
149.618,0.004832228806831552
149.619,0.003422045767432924
149.62,0.0009958669053180653
149.621,0.0018998823866406731
149.622,0.004521808387007023
149.62300000000002,0.00616550027147621
149.624,0.0063935833976406726
149.625,0.00518266534799577
149.626,0.0029424007476007118
149.627,0.0004005182783226292
149.62800000000001,0.001610703896390559
149.62900000000002,0.0024013179566847284
149.63,0.0016296874527310825
149.631,0.0005930951642621408
149.632,0.003729764644392599
149.633,0.006964949337325795
149.63400000000001,0.009430572445953153
149.63500000000002,0.010443754912983591
149.636,0.009690999393117614
149.637,0.007309668392443037
149.638,0.00384773272115527
149.639,0.00011640893436252348
149.64000000000001,0.0030217867338970515
149.64100000000002,0.004872008471720175
149.642,0.005076487661116667
149.643,0.003693401834949652
149.644,0.001169407888742131
149.645,0.0017823406684509386
149.64600000000002,0.004363969034209737
149.64700000000002,0.00588692431271232
149.648,0.0059305168884087375
149.649,0.0044286882981292046
149.65,0.001668370571177438
149.651,0.0017947367861644652
149.65200000000002,0.00527750234079911
149.65300000000002,0.008130132990747024
149.654,0.009876489479393227
149.655,0.010301836068610373
149.656,0.00947121357231223
149.657,0.007680203599743491
149.65800000000002,0.005356796827132343
149.65900000000002,0.0029440761122907916
149.66,0.0007958753390443368
149.661,0.0008887456497622138
149.662,0.002079280739259765
149.663,0.0028784457553452567
149.66400000000002,0.0034540365306884504
149.66500000000002,0.0039622216773692156
149.666,0.004486740496047901
149.667,0.005011377939244811
149.668,0.005431261356531146
149.669,0.005595892288065581
149.67000000000002,0.0053673653615777025
149.67100000000002,0.004673693600735915
149.672,0.0035402611777210742
149.673,0.002090682092180155
149.674,0.0005186942367899563
149.675,0.0009583718558442006
149.67600000000002,0.00214932763440815
149.67700000000002,0.0029275241390346474
149.678,0.0032486325725579962
149.679,0.0031460833018702463
149.68,0.0027094431476070145
149.681,0.002055132370587377
149.68200000000002,0.0012991133362350664
149.68300000000002,0.0005380863403422963
149.684,0.00015893703627481413
149.685,0.0007509146678354958
149.686,0.001221086873991082
149.687,0.001572864065411932
149.68800000000002,0.0018264416054466798
149.68900000000002,0.0020147658438902727
149.69,0.002176400860371446
149.691,0.0023440062790299216
149.692,0.002530087577862975
149.693,0.002714908505569298
149.69400000000002,0.002843059010863881
149.69500000000002,0.002833778962619572
149.696,0.002605655331015989
149.697,0.0021101552695446824
149.698,0.0013631145784607276
149.699,0.00046134468454379457
149.70000000000002,0.0004255219989742884
149.70100000000002,0.0010902969525628007
149.702,0.0013431682707119134
149.703,0.0010703883630330915
149.704,0.00027717754479038813
149.705,0.000901452440492829
149.70600000000002,0.002228593871925009
149.70700000000002,0.0034256400191258808
149.708,0.004246544891397232
149.709,0.004541904227478031
149.71,0.004291165327052719
149.711,0.00359203379819758
149.71200000000002,0.002611583206549787
149.713,0.001518082417419777
149.714,0.00042047386383951374
149.715,0.0006597561954177364
149.716,0.001771724624043822
149.717,0.0029787845224924707
149.71800000000002,0.004285406687093057
149.719,0.005579675427325635
149.72,0.006621167735556076
149.721,0.007089023462276663
149.722,0.006682295942876489
149.723,0.00524221480918076
149.72400000000002,0.002852465161150901
149.725,0.00012490266157290258
149.726,0.0031027244948911865
149.727,0.005407067177441409
149.728,0.006465853504254028
149.729,0.005991196060795006
149.73000000000002,0.004094645221671959
149.731,0.0012908582092963491
149.732,0.0016219807755809888
149.733,0.0037773435500604354
149.734,0.004490589996531579
149.735,0.0034686414975954533
149.73600000000002,0.0009122635227878556
149.737,0.0025250591578052256
149.738,0.005914062329345648
149.739,0.008312288860310636
149.74,0.009034483076476163
149.741,0.007849449958045882
149.74200000000002,0.005044161071665325
149.743,0.0013367162576967424
149.744,0.002333780076614753
149.745,0.005075201670423215
149.746,0.006286911793663349
149.747,0.005809205986208185
149.74800000000002,0.003937925651257886
149.749,0.0013075637188660412
149.75,0.0013137161015628152
149.751,0.0032493808157327783
149.752,0.004090905698505271
149.75300000000001,0.0037766323068261255
149.75400000000002,0.002559256897834026
149.755,0.0008846323128716849
149.756,0.0007693321655317906
149.757,0.0020371887980900104
149.758,0.0027493127118491736
149.75900000000001,0.0029354445788805188
149.76000000000002,0.0027595785544545365
149.761,0.002420320727021874
149.762,0.00205932511892551
149.763,0.0017124975303071262
149.764,0.0013184837450360813
149.76500000000001,0.0007748885170474442
149.76600000000002,1.400087211299866e-05
149.767,0.0009367094972026925
149.768,0.0019365614517378046
149.769,0.002765344968592638
149.77,0.003196816867779694
149.77100000000002,0.0030840365022034564
149.77200000000002,0.0024235753840670367
149.773,0.0013733243394379873
149.774,0.00021575310725363035
149.775,0.0007216364678772765
149.776,0.0011617713216247
149.77700000000002,0.0009575182518820518
149.77800000000002,0.00013001796437995432
149.779,0.001144104488111802
149.78,0.0025887274490797715
149.781,0.003905741924003714
149.782,0.004847562126275191
149.78300000000002,0.005263302119383429
149.78400000000002,0.005109699587301022
149.785,0.004432083977101876
149.786,0.0033309088603993434
149.787,0.0019317755819289334
149.788,0.00037108699792654236
149.78900000000002,0.0012014141533755731
149.79000000000002,0.0026127519560231057
149.791,0.00366461658038459
149.792,0.004151875988767673
149.793,0.0039049656076923602
149.794,0.002846620147401579
149.79500000000002,0.0010430041077540463
149.79600000000002,0.001273745492059885
149.797,0.003728053190157004
149.798,0.005870638202081417
149.799,0.007280374275597911
149.8,0.00766973599294758
149.80100000000002,0.006961077506022515
149.80200000000002,0.005308297616172956
149.803,0.0030552452005997346
149.804,0.0006427886864917152
149.805,0.0015065463104673407
149.806,0.0030903201717894795
149.80700000000002,0.003983669712360517
149.80800000000002,0.004237998962065459
149.809,0.004027189560621296
149.81,0.003565580877912625
149.811,0.00303033091624721
149.812,0.002516545412009458
149.81300000000002,0.0020385510462957385
149.81400000000002,0.0015708578712864067
149.815,0.0011055877083891174
149.816,0.0006961953726189376
149.817,0.0004631455027248702
149.818,0.0005537578464835284
149.81900000000002,0.0010692657576141832
149.82000000000002,0.0019888480369456836
149.821,0.0031258623983276774
149.822,0.004142718117677228
149.823,0.004630244017180203
149.824,0.0042322837894654955
149.82500000000002,0.0027760485617064393
149.82600000000002,0.0003616432412828474
149.827,0.002626141721224464
149.828,0.00559660180405529
149.829,0.007904669271083017
149.83,0.009031013805817958
149.83100000000002,0.00873390579669632
149.83200000000002,0.00712254631148946
149.833,0.004625668135209604
149.834,0.0018631742636035333
149.835,0.000539075921592598
149.836,0.002131729142764357
149.83700000000002,0.002762407503310916
149.838,0.0025953850263331383
149.839,0.0020254505305962933
149.84,0.0015166057599309748
149.841,0.001421610300183958
149.842,0.0018447283526576844
149.84300000000002,0.0025951685316338204
149.844,0.0032477332626932288
149.845,0.0032907114132698385
149.846,0.002311477282316554
149.847,0.000157549060249327
149.848,0.0029809033912745965
149.84900000000002,0.006595017537320283
149.85,0.009980704796310521
149.851,0.01242283861194151
149.852,0.013383072414938496
149.853,0.01263499665497035
149.854,0.010309205408827219
149.85500000000002,0.006840695316730436
149.856,0.0028414349388382297
149.857,0.0010581423016649463
149.858,0.004349816748221304
149.859,0.0067326487643302015
149.86,0.008126951387565435
149.86100000000002,0.008626596301338874
149.862,0.00841776495652138
149.863,0.007698783374938251
149.864,0.006628940085154224
149.865,0.005317984274975384
149.866,0.0038493390409444894
149.86700000000002,0.00231635532719307
149.868,0.0008471989606095855
149.869,0.0003989325923088451
149.87,0.0012670575676696763
149.871,0.0016602324444208495
149.872,0.001588737252313008
149.87300000000002,0.0011907438587995033
149.874,0.0007100193048890873
149.875,0.0004322170291497774
149.876,0.0005977618602005119
149.877,0.0013198775117163168
149.87800000000001,0.002536731360871509
149.87900000000002,0.00401650006860671
149.88,0.005416811910139997
149.881,0.00638156196439507
149.882,0.006645029417220532
149.883,0.006110166869766978
149.88400000000001,0.004875987840437136
149.88500000000002,0.003205409305639535
149.886,0.001444136872417078
149.887,8.322107532936657e-05
149.888,0.0011667372178889176
149.889,0.0017652584666418372
149.89000000000001,0.0020049354770341338
149.89100000000002,0.002123980715503822
149.892,0.0023822390931159372
149.893,0.0029646594208421876
149.894,0.003908992367483212
149.895,0.005080058098530708
149.89600000000002,0.006198565532752479
149.89700000000002,0.006916275617662474
149.898,0.006916038044159596
149.899,0.006008449177948636
149.9,0.00419804952966111
149.901,0.0017003179843219473
149.90200000000002,0.0010963333086629683
149.90300000000002,0.003715270307807581
149.904,0.005702954944268319
149.905,0.006739875682123443
149.906,0.006723517696059714
149.907,0.005801590177377414
149.90800000000002,0.004344703103052543
149.90900000000002,0.0028616547027535753
149.91,0.0018745811825299963
149.911,0.0017822983271260882
149.912,0.0027453853694734834
149.913,0.004624024766203946
149.91400000000002,0.006989004941400916
149.91500000000002,0.009209310704491384
149.916,0.010600027514297117
149.917,0.010596848141064203
149.918,0.008913374140133188
149.919,0.005638327644313985
149.92000000000002,0.0012426632102442272
149.92100000000002,0.0035111019251725774
149.922,0.0077388338229108875
149.923,0.01064276180122678
149.924,0.011703868083699663
149.925,0.010807323795840776
149.92600000000002,0.008266616784645383
149.92700000000002,0.004739369007490941
149.928,0.0010577529085640505
149.929,0.0019799674400862092
149.93,0.003800068421828701
149.931,0.00417583369175147
149.93200000000002,0.0032523966660912952
149.93300000000002,0.0014733380552353458
149.934,0.0005637694177969595
149.935,0.002277369242152222
149.936,0.003248386961852416
149.937,0.0033054636024128004
149.93800000000002,0.0025330878163373834
149.93900000000002,0.0012112511402110088
149.94,0.0002857211123100004
149.941,0.0015956567247351998
149.942,0.002449569021336796
149.943,0.002710651850460972
149.94400000000002,0.002372033789951176
149.94500000000002,0.0015277892631029276
149.946,0.00033691073132121284
149.947,0.001004331666484715
149.948,0.0022769295815109622
149.949,0.0032473365307270044
149.95000000000002,0.0036825026164679885
149.95100000000002,0.003382828971364487
149.952,0.002234049577340909
149.953,0.0002653771500065155
149.954,0.0023094703718467796
149.955,0.005093570545947216
149.95600000000002,0.007565894665751365
149.95700000000002,0.009194487710121714
149.958,0.00957789883577469
149.959,0.008572683209839968
149.96,0.006361764888649546
149.961,0.003431964875369508
149.96200000000002,0.00045621167463116515
149.963,0.001891592035244256
149.964,0.003134757319437438
149.965,0.0031408638638180976
149.966,0.0021652291101757356
149.967,0.0007694898500009372
149.96800000000002,0.0003648793701801269
149.969,0.0006709600392630644
149.97,9.854983704491681e-05
149.971,0.0017674840644744036
149.972,0.003774853036055196
149.973,0.0053506142573513564
149.97400000000002,0.00577577773756954
149.975,0.004642267600147579
149.976,0.00202357819424463
149.977,0.0015069009774385121
149.978,0.005024475083519704
149.979,0.007527629041360193
149.98000000000002,0.008253386174709967
149.981,0.0069314588042983455
149.982,0.0038916323370906955
149.983,1.5648609172565547e-05
149.984,0.003665506425967083
149.985,0.005996894614339636
149.98600000000002,0.006336885485954833
149.987,0.004607972523627183
149.988,0.0013519971721140086
149.989,0.0024372991590048904
149.99,0.005620056770848251
149.991,0.007257679456738239
149.99200000000002,0.006892909073380266
149.993,0.0046766700485696994
149.994,0.0013058972520473447
149.995,0.0022029763645954803
149.996,0.004829288221367388
149.997,0.0058514805062192836
149.99800000000002,0.005045790348873181
149.999,0.0027248002444763128
150.0,0.0003865371867850096
150.001,0.0033888051857690203
150.002,0.005478995613816758
150.00300000000001,0.006169103543505954
150.00400000000002,0.005390619597209308
150.005,0.0034646087783138826
150.006,0.0009616066644149026
150.007,0.0014919214591475962
150.008,0.0033932092373089202
150.00900000000001,0.004474494772766176
150.01000000000002,0.004721441234722965
150.011,0.004308882680524835
150.012,0.003491089545468257
150.013,0.0024941169398861045
150.014,0.0014495180251711279
150.01500000000001,0.0003867812732035082
150.01600000000002,0.0007240356073358457
150.017,0.0019074661400491856
150.018,0.003129537143946021
150.019,0.004281548088317175
150.02,0.005207003624848637
150.02100000000002,0.00575758612186149
150.02200000000002,0.005850873723222496
150.023,0.005501949217821651
150.024,0.004813082522117315
150.025,0.003924962163870009
150.026,0.002951099465360836
150.02700000000002,0.0019260602172540605
150.02800000000002,0.0007938526645265339
150.029,0.0005535796748392874
150.03,0.002199818951219007
150.031,0.004120027405120845
150.032,0.006127326210551121
150.03300000000002,0.007879068339160675
150.03400000000002,0.008951392357372088
150.035,0.00896383206607099
150.036,0.007713898137894685
150.037,0.005273331658156799
150.038,0.0020072321425731346
150.03900000000002,0.0014980359253195666
150.04000000000002,0.004580781143708951
150.041,0.006679511234331744
150.042,0.007481620831409944
150.043,0.006996378771360319
150.044,0.005528536139438107
150.04500000000002,0.0035630008793079287
150.04600000000002,0.0016018894678553359
150.047,1.1579430635786774e-05
150.048,0.0010670338136116292
150.049,0.0017156992985158804
150.05,0.002148744623051874
150.05100000000002,0.0025740785066611952
150.05200000000002,0.0030624522564584454
150.053,0.0034797119710569414
150.054,0.003513424067348101
150.055,0.0027892369630393224
150.056,0.001036766961832237
150.05700000000002,0.0017570432017480124
150.05800000000002,0.005268664730891822
150.059,0.008870971939812573
150.06,0.011778020255156485
150.061,0.013260854917079335
150.062,0.012866085387721127
150.06300000000002,0.010564495127658462
150.06400000000002,0.006777780628062059
150.065,0.0022709192848850124
150.066,0.002057765568125719
150.067,0.005422493802645106
150.068,0.007353557415788947
150.06900000000002,0.007794831674331618
150.07000000000002,0.007067895463257499
150.071,0.005720710360908982
150.072,0.004317395152491333
150.073,0.003244083785003143
150.074,0.0025978725205928065
150.07500000000002,0.0021944726637844647
150.07600000000002,0.0016866592318991304
150.077,0.000745458624259176
150.078,0.0007664891404811648
150.079,0.0026968658659885076
150.08,0.004620836975787903
150.08100000000002,0.0059712065434662925
150.08200000000002,0.006237575262638778
150.083,0.005164049997212956
150.084,0.00287338903755872
150.085,0.0001306327179036091
150.086,0.0030896081264425476
150.08700000000002,0.005208308075118189
150.088,0.005894611902249103
150.089,0.004943636826883033
150.09,0.00260583477744869
150.091,0.0004833102396032427
150.092,0.0034892935899442238
150.09300000000002,0.005620638418225072
150.094,0.0063506694914121295
150.095,0.005551506163937556
150.096,0.003503362436065147
150.097,0.0007836811011336105
150.098,0.0019213600052516485
150.09900000000002,0.004018438935923549
150.1,0.005157895382387419
150.101,0.005291735074478472
150.102,0.004631229016689202
150.103,0.003530854572248795
150.104,0.0023476574822864195
150.10500000000002,0.001328320530518611
150.106,0.0005603819008611975
150.107,3.900535039221932e-06
150.108,0.00047155380665120323
150.109,0.0009203901029146149
150.11,0.001339983307191869
150.11100000000002,0.001629370327335572
150.112,0.0016530882896829656
150.113,0.0013308829811010446
150.114,0.0007199636991004346
150.115,4.874090025566067e-05
150.116,0.00032200445670849
150.11700000000002,6.6595468828115575e-06
150.118,0.0012612945162374248
150.119,0.0034994306446131315
150.12,0.00641149093975931
150.121,0.009419960858658198
150.122,0.011797042653197858
150.12300000000002,0.012860875013475076
150.124,0.012179078457703113
150.125,0.009715239275588719
150.126,0.005868678484860128
150.127,0.0013895154582962506
150.12800000000001,0.0028104393519108747
150.12900000000002,0.005897541936152183
150.13,0.007336993304248015
150.131,0.007029674298194015
150.132,0.0053257999440532895
150.133,0.0029132696208117783
150.13400000000001,0.0006158154051961425
150.13500000000002,0.0008383303468827545
150.136,0.0010101214576794554
150.137,0.00014732183071176615
150.138,0.002300216594060644
150.139,0.0048491827345318265
150.14000000000001,0.007107799187411157
150.14100000000002,0.008489531958644428
150.142,0.008650499202128861
150.143,0.007553467888500048
150.144,0.005444814634629739
150.145,0.0027619642882366433
150.14600000000002,6.145858482411852e-06
150.14700000000002,0.002380162945244643
150.148,0.004099693592761005
150.149,0.005035446703062937
150.15,0.005236840843025812
150.151,0.0048727902689905
150.15200000000002,0.004172815565266746
150.15300000000002,0.0033742665402608243
150.154,0.0026853101121030224
150.155,0.00226398710154589
150.156,0.002207485961912655
150.157,0.0025449337367142414
150.15800000000002,0.00323088794051201
150.15900000000002,0.0041425298993825604
150.16,0.005087680102670866
150.161,0.005830417377879957
150.162,0.006135691713799847
150.163,0.005825804431540626
150.16400000000002,0.004833699882183275
150.16500000000002,0.0032346134753919917
150.166,0.0012411958822302334
150.167,0.0008424759729218638
150.168,0.0026987021147162134
150.169,0.004083962088306895
150.17000000000002,0.004898752279922763
150.17100000000002,0.005214756336907446
150.172,0.005247077377694251
150.173,0.005277156634579135
150.174,0.005549350609539289
150.175,0.006174696397420311
150.17600000000002,0.007074980705599252
150.17700000000002,0.007988362067496304
150.178,0.00853805800485736
150.179,0.008344530092166336
150.18,0.007146434389221724
150.181,0.004891762872901818
150.18200000000002,0.0017696665107375454
150.18300000000002,0.0018274812825722832
150.184,0.005399603329722245
150.185,0.008461439573904592
150.186,0.01065363759134174
150.187,0.011809303485498763
150.18800000000002,0.011959356071468414
150.18900000000002,0.011281603384464508
150.19,0.01001735919782021
150.191,0.008388877388114847
150.192,0.006547663876235582
150.193,0.004569316432122065
150.19400000000002,0.0024906204258043534
150.19500000000002,0.00036695895492554453
150.196,0.0016803869655553074
150.197,0.003453319554449037
150.198,0.00471329554402038
150.199,0.005255194232069108
150.20000000000002,0.0049910246441614604
150.20100000000002,0.004008185451198113
150.202,0.0025733171020667278
150.203,0.0010714989304070723
150.204,0.00010486464396005384
150.205,0.0006818628207419367
150.20600000000002,0.0005995894447433465
150.20700000000002,3.9333345330762756e-05
150.208,0.0006335478705373317
150.209,0.0009971953437717803
150.21,0.0007302591785933935
150.211,0.00025673152929561136
150.21200000000002,0.0017656257863392223
150.213,0.0033567730771422517
150.214,0.004488245473012064
150.215,0.004705099890244467
150.216,0.0038144756060527305
150.217,0.001982760383519409
150.21800000000002,0.00028574845637717585
150.219,0.0022902115755281637
150.22,0.003354175115369033
150.221,0.0030552883573262343
150.222,0.0013856768434453027
150.223,0.0012158617154574168
150.22400000000002,0.003978126554781995
150.225,0.006027804465595239
150.226,0.00666484558417742
150.227,0.005593930377383584
150.228,0.0030343730558914706
150.229,0.00033137064820548456
150.23000000000002,0.0035581866415596635
150.231,0.00572602809644954
150.232,0.006223398415127851
150.233,0.004935343282013372
150.234,0.0022752585065234352
150.235,0.0009492601830119554
150.23600000000002,0.003791991412261121
150.237,0.005461112319273466
150.238,0.0055544141403557935
150.239,0.00416205535399434
150.24,0.0018075518651855629
150.241,0.0007477710507230687
150.24200000000002,0.002766590630614062
150.243,0.0037730903737322866
150.244,0.0036866699639734263
150.245,0.0028105698649627878
150.246,0.0016857817966116227
150.247,0.0008675557215535356
150.24800000000002,0.0007076751700924972
150.249,0.0012216584206275595
150.25,0.002087953865563254
150.251,0.0027777264977793506
150.252,0.002766370291300798
150.25300000000001,0.00174833036281035
150.25400000000002,0.00022439442817072836
150.255,0.0027322859115525315
150.256,0.00511295876317414
150.257,0.006678167464186166
150.258,0.006947585591748338
150.25900000000001,0.005817293103896659
150.26000000000002,0.0036034872318757537
150.261,0.0009454710875721725
150.262,0.0013990181032036552
150.263,0.002795925798263245
150.264,0.002931919824769152
150.26500000000001,0.001900455035088976
150.26600000000002,0.00015033130017226359
150.267,0.001681833671261606
150.268,0.002994253837019973
150.269,0.0034194163003411636
150.27,0.0029324655286554926
150.27100000000002,0.001834700818348754
150.27200000000002,0.0006233233354311623
150.273,0.00020174835319389158
150.274,0.00032276225507702047
150.275,0.0002848942515777233
150.276,0.0013523360392612544
150.27700000000002,0.002423021863236044
150.27800000000002,0.003022274533254419
150.279,0.0028266107988485583
150.28,0.0017717185251707706
150.281,6.297848830363776e-05
150.282,0.001910052931658453
150.28300000000002,0.0037180908857732246
150.28400000000002,0.005037830923051159
150.285,0.005743223339293913
150.286,0.005909922615477721
150.287,0.00573591651850972
150.288,0.005415074318803866
150.28900000000002,0.005019381478162157
150.29000000000002,0.004442527883341116
150.291,0.0034333000483401893
150.292,0.0017109882058011891
150.293,0.0008794463835225603
150.294,0.004234042113529097
150.29500000000002,0.007936280470799964
150.29600000000002,0.01131516163050126
150.297,0.01360725489616056
150.298,0.014176255807950887
150.299,0.012719673800268701
150.3,0.009392336446840989
150.30100000000002,0.004801027028298559
150.30200000000002,0.0001343788895972666
150.303,0.004414466394605556
150.304,0.007218778660007785
150.305,0.008111610912698124
150.306,0.007135039564548014
150.30700000000002,0.004765843876302545
150.30800000000002,0.0017560424073508039
150.309,0.0010884145960334169
150.31,0.003120927481728877
150.311,0.003997874242975888
150.312,0.0037185235890043666
150.31300000000002,0.0025633949551803876
150.31400000000002,0.0009650717659400275
150.315,0.0006376389807907111
150.316,0.0019138498343818388
150.317,0.0026937554424189096
150.318,0.0029583816147030523
150.31900000000002,0.002787185791206156
150.32000000000002,0.0022964968752126
150.321,0.001598119827259972
150.322,0.0007914368089730382
150.323,1.800237509109111e-05
150.324,0.0006956333033883379
150.32500000000002,0.0010761616750878324
150.32600000000002,0.000997901338784726
150.327,0.0003685208773738534
150.328,0.0007623492012897474
150.329,0.0021590526858643977
150.33,0.003415563200211334
150.33100000000002,0.004042756530139702
150.33200000000002,0.0036113230988732863
150.333,0.0019085095598245525
150.334,0.0009461313498090718
150.335,0.0044743537070318735
150.336,0.007925063789332037
150.33700000000002,0.010458473568226836
150.338,0.011379158007131998
150.339,0.0103474360182749
150.34,0.0075001840165612
150.341,0.0034375142612795956
150.342,0.0009269269273956678
